0.000000000000000000e+00 6.247893871029201913e-04
9.004502251125562351e-01 9.233902364350091109e-04
1.800900450225112470e+00 1.409726654967538573e-03
2.701350675337668594e+00 2.046591097391400015e-03
3.601800900450224940e+00 2.393898529565798537e-03
4.502251125562780842e+00 2.210911709502042487e-03
5.402701350675337189e+00 2.010046125673950121e-03
6.303151575787893535e+00 1.908510499685354923e-03
7.203601800900449881e+00 1.571932298958980028e-03
8.104052026013006227e+00 1.137083326812395392e-03
9.004502251125561685e+00 8.202700360245547637e-04
9.904952476238118919e+00 5.901843016944814625e-04
1.080540270135067438e+01 4.233644558679112578e-04
1.170585292646323161e+01 3.125426307143133135e-04
1.260630315157578707e+01 2.394740418893747183e-04
1.350675337668834430e+01 1.895611822400275221e-04
1.440720360180089976e+01 1.541096501573991479e-04
1.530765382691345522e+01 1.281159075523307744e-04
1.620810405202601245e+01 1.086266180374956654e-04
1.710855427713856969e+01 9.380230374646413211e-05
1.800900450225112337e+01 8.212525672366705477e-05
1.890945472736368060e+01 7.207954957734886547e-05
1.980990495247623784e+01 6.327624345697769031e-05
2.071035517758879507e+01 5.593826413693842839e-05
2.161080540270134875e+01 4.990803699605001950e-05
2.251125562781390599e+01 4.491058284034592777e-05
2.341170585292646322e+01 4.072525542268059249e-05
2.431215607803901690e+01 3.720084693652358121e-05
2.521260630315157414e+01 3.424335854203838878e-05
2.611305652826413137e+01 3.180837315974963261e-05
2.701350675337668861e+01 2.986769994155130328e-05
2.791395697848924229e+01 2.823650209383086272e-05
2.881440720360179952e+01 2.656740623642436363e-05
2.971485742871435676e+01 2.493549029034690032e-05
3.061530765382691044e+01 2.358036709180762278e-05
3.151575787893946767e+01 2.230839959431985632e-05
3.241620810405202491e+01 2.086953028379904567e-05
3.331665832916458214e+01 1.953413088819264167e-05
3.421710855427713938e+01 1.857710910325277080e-05
3.511755877938969661e+01 1.780883611479468884e-05
3.601800900450224674e+01 1.681772463620480912e-05
3.691845922961480397e+01 1.564038745928210912e-05
3.781890945472736121e+01 1.453696124014563282e-05
3.871935967983991844e+01 1.362616967537762114e-05
3.961980990495247568e+01 1.289453583049875472e-05
4.052026013006503291e+01 1.230239113768371619e-05
4.142071035517759015e+01 1.182803505770818359e-05
4.232116058029014027e+01 1.146277095050416888e-05
4.322161080540269751e+01 1.120172576381412340e-05
4.412206103051525474e+01 1.108484857513192440e-05
4.502251125562781198e+01 1.117611301216566673e-05
4.592296148074036921e+01 1.141897064496021189e-05
4.682341170585292645e+01 1.157321960984886835e-05
4.772386193096548368e+01 1.141602810458441201e-05
4.862431215607803381e+01 1.095806646293497599e-05
4.952476238119059104e+01 1.042287516590050465e-05
5.042521260630314828e+01 9.889056817018608737e-06
5.132566283141570551e+01 9.489885159009669337e-06
5.222611305652826275e+01 9.353093114815635637e-06
5.312656328164081998e+01 9.345121999187639368e-06
5.402701350675337721e+01 9.221003367817428651e-06
5.492746373186592734e+01 9.011983550636462365e-06
5.582791395697848458e+01 8.973598736601056709e-06
5.672836418209104181e+01 9.024756214210276947e-06
5.762881440720359905e+01 8.794197511514131619e-06
5.852926463231615628e+01 8.343890055982051575e-06
5.942971485742871351e+01 8.013921771118707362e-06
6.033016508254127075e+01 7.918173033202313568e-06
6.123061530765382088e+01 7.995970828174399668e-06
6.213106553276637811e+01 8.009695289433523222e-06
6.303151575787893535e+01 7.935686060686626862e-06
6.393196598299149258e+01 7.933341776861544160e-06
6.483241620810404982e+01 7.832913810635283938e-06
6.573286643321659994e+01 7.471493732578718408e-06
6.663331665832916428e+01 7.155129285404272456e-06
6.753376688344171441e+01 7.118044780312307499e-06
6.843421710855427875e+01 7.411001984122545616e-06
6.933466733366682888e+01 8.038713669519178824e-06
7.023511755877939322e+01 8.737655317859025045e-06
7.113556778389194335e+01 9.121595306648936253e-06
7.203601800900449348e+01 8.971926088027037504e-06
7.293646823411705782e+01 8.651931914886717769e-06
7.383691845922960795e+01 8.720213651034175694e-06
7.473736868434217229e+01 8.992025191349772148e-06
7.563781890945472242e+01 8.977920266246054262e-06
7.653826913456728676e+01 8.771695248410313702e-06
7.743871935967983688e+01 8.633172973082090931e-06
7.833916958479238701e+01 8.570411322922744481e-06
7.923961980990495135e+01 8.559841676138608223e-06
8.014007003501750148e+01 8.727207655899912775e-06
8.104052026013006582e+01 9.139268244906406888e-06
8.194097048524261595e+01 9.608444780497050374e-06
8.284142071035518029e+01 9.838758372367391132e-06
8.374187093546773042e+01 9.939927563510719829e-06
8.464232116058028055e+01 9.974138386518540916e-06
8.554277138569284489e+01 9.794221508664863115e-06
8.644322161080539502e+01 9.553199558756246849e-06
8.734367183591795936e+01 9.474355329249938598e-06
8.824412206103050949e+01 9.434204131450593659e-06
8.914457228614307382e+01 9.547015984255807964e-06
9.004502251125562395e+01 1.016337553997381203e-05
9.094547273636817408e+01 1.151032142951696989e-05
9.184592296148073842e+01 1.318844277042756756e-05
9.274637318659328855e+01 1.402887426352744824e-05
9.364682341170585289e+01 1.384837804114643052e-05
9.454727363681840302e+01 1.327821846041527720e-05
9.544772386193096736e+01 1.258751329040166631e-05
9.634817408704351749e+01 1.239622867982764898e-05
9.724862431215606762e+01 1.278675169150235185e-05
9.814907453726863196e+01 1.328592647303402354e-05
9.904952476238118209e+01 1.405539644387586769e-05
9.994997498749374643e+01 1.488882542649528068e-05
1.008504252126062966e+02 1.479770422755330054e-05
1.017508754377188609e+02 1.386699949558485924e-05
1.026513256628314110e+02 1.305656096103689232e-05
1.035517758879439612e+02 1.272348421005934347e-05
1.044522261130565255e+02 1.290653443535326831e-05
1.053526763381690756e+02 1.316058368938705198e-05
1.062531265632816400e+02 1.296871559229467921e-05
1.071535767883941901e+02 1.259285262816109535e-05
1.080540270135067544e+02 1.275725786102758802e-05
1.089544772386193046e+02 1.337226388654820092e-05
1.098549274637318547e+02 1.332686607727064134e-05
1.107553776888444190e+02 1.239989782721182210e-05
1.116558279139569692e+02 1.144007633701824677e-05
1.125562781390695335e+02 1.094134181153956328e-05
1.134567283641820836e+02 1.070288281849545475e-05
1.143571785892946480e+02 1.025432917274565979e-05
1.152576288144071981e+02 9.462302747887181388e-06
1.161580790395197482e+02 8.604658636113624652e-06
1.170585292646323126e+02 8.010108142399247148e-06
1.179589794897448627e+02 7.761681185950620405e-06
1.188594297148574270e+02 7.747047678075299592e-06
1.197598799399699772e+02 7.968894797998007809e-06
1.206603301650825415e+02 8.275525418274350044e-06
1.215607803901950916e+02 8.614738961906499804e-06
1.224612306153076418e+02 9.164855915187989198e-06
1.233616808404202061e+02 1.002076363743210112e-05
1.242621310655327562e+02 1.083469348578570160e-05
1.251625812906453206e+02 1.109733556678154638e-05
1.260630315157578707e+02 1.088920240805752044e-05
1.269634817408704350e+02 1.054875343146203177e-05
1.278639319659829852e+02 1.015599130480455303e-05
1.287643821910955353e+02 9.937293209618082437e-06
1.296648324162080996e+02 9.985229148349821204e-06
1.305652826413206640e+02 1.014567981352739622e-05
1.314657328664331999e+02 1.023469872807243664e-05
1.323661830915457642e+02 1.018330041580794651e-05
1.332666333166583286e+02 1.010559207996056927e-05
1.341670835417708929e+02 1.034122824538091840e-05
1.350675337668834288e+02 1.089491866444924978e-05
1.359679839919959932e+02 1.148894647975338325e-05
1.368684342171085575e+02 1.223583401987650596e-05
1.377688844422210934e+02 1.331955201939322492e-05
1.386693346673336578e+02 1.422658656095650077e-05
1.395697848924462221e+02 1.492596243124704022e-05
1.404702351175587864e+02 1.582988806823358222e-05
1.413706853426713224e+02 1.672109349237598563e-05
1.422711355677838867e+02 1.664862188345364545e-05
1.431715857928964510e+02 1.571060062298874655e-05
1.440720360180089870e+02 1.487148364514727246e-05
1.449724862431215513e+02 1.486973879127313415e-05
1.458729364682341156e+02 1.552996034759138719e-05
1.467733866933466800e+02 1.605976835405204778e-05
1.476738369184592159e+02 1.643442631619029855e-05
1.485742871435717802e+02 1.707438112474340787e-05
1.494747373686843446e+02 1.764805914328837171e-05
1.503751875937968805e+02 1.796922011882022877e-05
1.512756378189094448e+02 1.795397823214727636e-05
1.521760880440220092e+02 1.751302462656231134e-05
1.530765382691345735e+02 1.701476216418861697e-05
1.539769884942471094e+02 1.696210965339635293e-05
1.548774387193596738e+02 1.721046641400240742e-05
1.557778889444722381e+02 1.753300085747145571e-05
1.566783391695847740e+02 1.776470671947312873e-05
1.575787893946973384e+02 1.754478360944933179e-05
1.584792396198099027e+02 1.729958910542902145e-05
1.593796898449224670e+02 1.750341819860822147e-05
1.602801400700350030e+02 1.799692650105101500e-05
1.611805902951475673e+02 1.844349366707132240e-05
1.620810405202601316e+02 1.930965224858035941e-05
1.629814907453726676e+02 2.013851843973695429e-05
1.638819409704852319e+02 2.009491518958061781e-05
1.647823911955977962e+02 1.930192929224504384e-05
1.656828414207103606e+02 1.827125078266801365e-05
1.665832916458228965e+02 1.783512939151174441e-05
1.674837418709354608e+02 1.871434682695718275e-05
1.683841920960480252e+02 2.045103137613870487e-05
1.692846423211605611e+02 2.160695613848771299e-05
1.701850925462731254e+02 2.205278493425455859e-05
1.710855427713856898e+02 2.164642661948144343e-05
1.719859929964982541e+02 2.061600326032894442e-05
1.728864432216107900e+02 1.983230416430776700e-05
1.737868934467233544e+02 1.934600474126334517e-05
1.746873436718359187e+02 1.862289899782124301e-05
1.755877938969484546e+02 1.781315765652435120e-05
1.764882441220610190e+02 1.719127445616735903e-05
1.773886943471735833e+02 1.681887334270491786e-05
1.782891445722861476e+02 1.668544659824229483e-05
1.791895947973986836e+02 1.640250875734952855e-05
1.800900450225112479e+02 1.590404676005905673e-05
1.809904952476238122e+02 1.555726472579339707e-05
1.818909454727363482e+02 1.526654110230991039e-05
1.827913956978489125e+02 1.468723355443847605e-05
1.836918459229614768e+02 1.447152683160106208e-05
1.845922961480740412e+02 1.496830846388378931e-05
1.854927463731865771e+02 1.567568506860140032e-05
1.863931965982991414e+02 1.606187777927107710e-05
1.872936468234117058e+02 1.601963096881327657e-05
1.881940970485242417e+02 1.600058379298516817e-05
1.890945472736368060e+02 1.617033928212806374e-05
1.899949974987493704e+02 1.672313815689320890e-05
1.908954477238619347e+02 1.744807368939938665e-05
1.917958979489744706e+02 1.767484166467377162e-05
1.926963481740870350e+02 1.732949984876364015e-05
1.935967983991995993e+02 1.701344554805727814e-05
1.944972486243121352e+02 1.683528476503078381e-05
1.953976988494246996e+02 1.700454540412030954e-05
1.962981490745372639e+02 1.753391692330114778e-05
1.971985992996498283e+02 1.815629379853462758e-05
1.980990495247623642e+02 1.874275026608667873e-05
1.989994997498749285e+02 1.893228716539131388e-05
1.998999499749874929e+02 1.861099987072525072e-05
2.008004002001000288e+02 1.808963762722214943e-05
2.017008504252125931e+02 1.785336087836642878e-05
2.026013006503251574e+02 1.837873005425003382e-05
2.035017508754377218e+02 1.913993176211302991e-05
2.044022011005502577e+02 1.896589833640497478e-05
2.053026513256628220e+02 1.792930641712770154e-05
2.062031015507753864e+02 1.714610418280546752e-05
2.071035517758879223e+02 1.705776377442492727e-05
2.080040020010004866e+02 1.740393105959408312e-05
2.089044522261130510e+02 1.793518653368674805e-05
2.098049024512256153e+02 1.846880545839935591e-05
2.107053526763381512e+02 1.868298244037099401e-05
2.116058029014507156e+02 1.846429924567245278e-05
2.125062531265632799e+02 1.802611764621368687e-05
2.134067033516758158e+02 1.750361122232148612e-05
2.143071535767883802e+02 1.686546591303220678e-05
2.152076038019009445e+02 1.649732640039437817e-05
2.161080540270135089e+02 1.671143245878099106e-05
2.170085042521260448e+02 1.737459876966886352e-05
2.179089544772386091e+02 1.820525459026924533e-05
2.188094047023511735e+02 1.904599317010662604e-05
2.197098549274637094e+02 1.939966825832365870e-05
2.206103051525762737e+02 1.940096877027752722e-05
2.215107553776888381e+02 1.984595078713650244e-05
2.224112056028014024e+02 2.053419585386923193e-05
2.233116558279139383e+02 2.113640724609999733e-05
2.242121060530265027e+02 2.157319239960893499e-05
2.251125562781390670e+02 2.190262182598069223e-05
2.260130065032516029e+02 2.212991777310794637e-05
2.269134567283641672e+02 2.198186891791580120e-05
2.278139069534767316e+02 2.139640378169731043e-05
2.287143571785892959e+02 2.060007534822754806e-05
2.296148074037018318e+02 1.971323028044257147e-05
2.305152576288143962e+02 1.916030503545900876e-05
2.314157078539269605e+02 1.919510012523042828e-05
2.323161580790394964e+02 1.969890673382584373e-05
2.332166083041520608e+02 2.050174153485965188e-05
2.341170585292646251e+02 2.116074675566646245e-05
2.350175087543771895e+02 2.113939360090296430e-05
2.359179589794897254e+02 2.031484896870745341e-05
2.368184092046022897e+02 1.960075380499590677e-05
2.377188594297148541e+02 1.950131514640988565e-05
2.386193096548273900e+02 1.978727307022954359e-05
2.395197598799399543e+02 2.038244919024154733e-05
2.404202101050525187e+02 2.075790952592922951e-05
2.413206603301650830e+02 2.065020855315409995e-05
2.422211105552776189e+02 2.041274639286615384e-05
2.431215607803901833e+02 2.023371533791203084e-05
2.440220110055027476e+02 2.013406351728571752e-05
2.449224612306152835e+02 2.020932958503138496e-05
2.458229114557278479e+02 2.039211968839470742e-05
2.467233616808404122e+02 2.058651255146663094e-05
2.476238119059529765e+02 2.090025299899702003e-05
2.485242621310655124e+02 2.117595431661067949e-05
2.494247123561780768e+02 2.108270391605249401e-05
2.503251625812906411e+02 2.076660233875284389e-05
2.512256128064031770e+02 2.061079563215007594e-05
2.521260630315157414e+02 2.081753551568837047e-05
2.530265132566283057e+02 2.128451707673428587e-05
2.539269634817408701e+02 2.158472262745950713e-05
2.548274137068534060e+02 2.120371175292274691e-05
2.557278639319659703e+02 2.032571071114290425e-05
2.566283141570785347e+02 1.977978169238432595e-05
2.575287643821910706e+02 1.987970306275823668e-05
2.584292146073036633e+02 2.038338529881290618e-05
2.593296648324161993e+02 2.071985596346514905e-05
2.602301150575287352e+02 2.108828647899506259e-05
2.611305652826413279e+02 2.196209536156507069e-05
2.620310155077538639e+02 2.306212935946891417e-05
2.629314657328663998e+02 2.410481921752673988e-05
2.638319159579789925e+02 2.544055036172476102e-05
2.647323661830915285e+02 2.719873309996315698e-05
2.656328164082040644e+02 2.897250588166680769e-05
2.665332666333166571e+02 3.032205875130639696e-05
2.674337168584291931e+02 3.076210389206773376e-05
2.683341670835417858e+02 2.998679473861241409e-05
2.692346173086543217e+02 2.889630832012196545e-05
2.701350675337668577e+02 2.852970100357681856e-05
2.710355177588794504e+02 2.859137483040207292e-05
2.719359679839919863e+02 2.826383028456431757e-05
2.728364182091045222e+02 2.821337491061830672e-05
2.737368684342171150e+02 2.856412708900331543e-05
2.746373186593296509e+02 2.888934644017906574e-05
2.755377688844421868e+02 2.897344985337277896e-05
2.764382191095547796e+02 2.841007532509298247e-05
2.773386693346673155e+02 2.728858547029253717e-05
2.782391195597798514e+02 2.645174202691839984e-05
2.791395697848924442e+02 2.651509849701159883e-05
2.800400200100049801e+02 2.740439633727317182e-05
2.809404702351175729e+02 2.833067711939539940e-05
2.818409204602301088e+02 2.888221051223619537e-05
2.827413706853426447e+02 2.924793664185340876e-05
2.836418209104552375e+02 2.925917938683946442e-05
2.845422711355677734e+02 2.917929741682063964e-05
2.854427213606803093e+02 2.955897125345108574e-05
2.863431715857929021e+02 3.052945406057388801e-05
2.872436218109054380e+02 3.207989874514868573e-05
2.881440720360179739e+02 3.338412859860327383e-05
2.890445222611305667e+02 3.377308228488866372e-05
2.899449724862431026e+02 3.323856997416678444e-05
2.908454227113556385e+02 3.250358897750285392e-05
2.917458729364682313e+02 3.251575584655480209e-05
2.926463231615807672e+02 3.332244077953867259e-05
2.935467733866933600e+02 3.435164464188379538e-05
2.944472236118058959e+02 3.485268991799835264e-05
2.953476738369184318e+02 3.464444958071796602e-05
2.962481240620310246e+02 3.410275918070005536e-05
2.971485742871435605e+02 3.363249861344646960e-05
2.980490245122560964e+02 3.330271815974951064e-05
2.989494747373686891e+02 3.339750143098847251e-05
2.998499249624812251e+02 3.423736241146082437e-05
3.007503751875937610e+02 3.483728776799848874e-05
3.016508254127063537e+02 3.430907765584477372e-05
3.025512756378188897e+02 3.366449736257565937e-05
3.034517258629314256e+02 3.327622943852824643e-05
3.043521760880440183e+02 3.279273539241957431e-05
3.052526263131565543e+02 3.207599985451125186e-05
3.061530765382691470e+02 3.139901177843716190e-05
3.070535267633816829e+02 3.129583018499826526e-05
3.079539769884942189e+02 3.202169981463903547e-05
3.088544272136068116e+02 3.293210043284295284e-05
3.097548774387193475e+02 3.370718122797711810e-05
3.106553276638318835e+02 3.431305509561047572e-05
3.115557778889444762e+02 3.485640905701544633e-05
3.124562281140570121e+02 3.563821093325380087e-05
3.133566783391695481e+02 3.664316874424191538e-05
3.142571285642821408e+02 3.787156795145454706e-05
3.151575787893946767e+02 3.925851436100702971e-05
3.160580290145072127e+02 3.947503623041731128e-05
3.169584792396198054e+02 3.800240093789728917e-05
3.178589294647323413e+02 3.653581628040686281e-05
3.187593796898449341e+02 3.638415392846010944e-05
3.196598299149574700e+02 3.750580345890335953e-05
3.205602801400700059e+02 3.905482649954843658e-05
3.214607303651825987e+02 3.953194156268467692e-05
3.223611805902951346e+02 3.945537888764026396e-05
3.232616308154076705e+02 3.977685251631155945e-05
3.241620810405202633e+02 4.115471348994050233e-05
3.250625312656327992e+02 4.282399296283951549e-05
3.259629814907453351e+02 4.397767669745423201e-05
3.268634317158579279e+02 4.421239386176284810e-05
3.277638819409704638e+02 4.307006163120250756e-05
3.286643321660829997e+02 4.190261163395278104e-05
3.295647823911955925e+02 4.176517573688313224e-05
3.304652326163081284e+02 4.221785615511967194e-05
3.313656828414207212e+02 4.270478478634320027e-05
3.322661330665332571e+02 4.297848499042963990e-05
3.331665832916457930e+02 4.308363856219873109e-05
3.340670335167583858e+02 4.319962989671142101e-05
3.349674837418709217e+02 4.344214361128952883e-05
3.358679339669834576e+02 4.359984491274699242e-05
3.367683841920960504e+02 4.344032134482588860e-05
3.376688344172085863e+02 4.306237230074862920e-05
3.385692846423211222e+02 4.278643677141563196e-05
3.394697348674337150e+02 4.280482221672145759e-05
3.403701850925462509e+02 4.283549543087054217e-05
3.412706353176587868e+02 4.200580177004928004e-05
3.421710855427713796e+02 4.035451636955535718e-05
3.430715357678839155e+02 3.934558226221024553e-05
3.439719859929965082e+02 3.899156097112983186e-05
3.448724362181090441e+02 3.891811531083092744e-05
3.457728864432215801e+02 3.937790589802279403e-05
3.466733366683341728e+02 4.004976105876553038e-05
3.475737868934467087e+02 4.036753587112272529e-05
3.484742371185592447e+02 4.097771776597671097e-05
3.493746873436718374e+02 4.205056671292594820e-05
3.502751375687843733e+02 4.281301020133640331e-05
3.511755877938969093e+02 4.281263296246384434e-05
3.520760380190095020e+02 4.200625162022909181e-05
3.529764882441220379e+02 4.115221116471197259e-05
3.538769384692345739e+02 4.060301969078080930e-05
3.547773886943471666e+02 4.017720905314395513e-05
3.556778389194597025e+02 3.997363511595593939e-05
3.565782891445722953e+02 3.966881950347178349e-05
3.574787393696848312e+02 3.923860410606117455e-05
3.583791895947973671e+02 3.874583807581753444e-05
3.592796398199099599e+02 3.842724388747038275e-05
3.601800900450224958e+02 3.833055066358612785e-05
3.610805402701350317e+02 3.820178492583695595e-05
3.619809904952476245e+02 3.846126191550226314e-05
3.628814407203601604e+02 3.811983908491859069e-05
3.637818909454726963e+02 3.629247720771284369e-05
3.646823411705852891e+02 3.432572019922132628e-05
3.655827913956978250e+02 3.351927964325298692e-05
3.664832416208103609e+02 3.345066173847753820e-05
3.673836918459229537e+02 3.326496990412012461e-05
3.682841420710354896e+02 3.345363951206027100e-05
3.691845922961480824e+02 3.463351072363373198e-05
3.700850425212606183e+02 3.598236729527353665e-05
3.709854927463731542e+02 3.691411407925388908e-05
3.718859429714857470e+02 3.791107966085913682e-05
3.727863931965982829e+02 3.864700758711247494e-05
3.736868434217108188e+02 3.906655495233807935e-05
3.745872936468234116e+02 3.982677222156662050e-05
3.754877438719359475e+02 4.093219469783595182e-05
3.763881940970484834e+02 4.152568770107640969e-05
3.772886443221610762e+02 4.127817241737041342e-05
3.781890945472736121e+02 4.047778793353109638e-05
3.790895447723861480e+02 3.927576745510387451e-05
3.799899949974987408e+02 3.810996688148057750e-05
3.808904452226112767e+02 3.698051162186298676e-05
3.817908954477238694e+02 3.596618885621674460e-05
3.826913456728364054e+02 3.516170701099269021e-05
3.835917958979489413e+02 3.490292003186817356e-05
3.844922461230615340e+02 3.507021595696830599e-05
3.853926963481740700e+02 3.471842840961505641e-05
3.862931465732866059e+02 3.440102083355655091e-05
3.871935967983991986e+02 3.504022067592365734e-05
3.880940470235117346e+02 3.621776582318567822e-05
3.889944972486242705e+02 3.721548261965667697e-05
3.898949474737368632e+02 3.748126825720283741e-05
3.907953976988493991e+02 3.682994338074404282e-05
3.916958479239619351e+02 3.617841840417593486e-05
3.925962981490745278e+02 3.626683148158562497e-05
3.934967483741870637e+02 3.644629442159304537e-05
3.943971985992996565e+02 3.665767465506284539e-05
3.952976488244121924e+02 3.734886850519307224e-05
3.961980990495247283e+02 3.814239209246529530e-05
3.970985492746373211e+02 3.825102032017952292e-05
3.979989994997498570e+02 3.763703777808988655e-05
3.988994497248623929e+02 3.750591898330858030e-05
3.997998999499749857e+02 3.782432665001681150e-05
4.007003501750875216e+02 3.813439510998356731e-05
4.016008004002000575e+02 3.818239187891060964e-05
4.025012506253126503e+02 3.779377318977335102e-05
4.034017008504251862e+02 3.706583320809523643e-05
4.043021510755377221e+02 3.655335380661054226e-05
4.052026013006503149e+02 3.659321655890853504e-05
4.061030515257628508e+02 3.644587344569010445e-05
4.070035017508754436e+02 3.612088038901998654e-05
4.079039519759879795e+02 3.631710271518200003e-05
4.088044022011005154e+02 3.682699381282524974e-05
4.097048524262131082e+02 3.718262184597024905e-05
4.106053026513256441e+02 3.707793783385537862e-05
4.115057528764381800e+02 3.677867521611458726e-05
4.124062031015507728e+02 3.656748867062777075e-05
4.133066533266633087e+02 3.632459020285491133e-05
4.142071035517758446e+02 3.642117969095566679e-05
4.151075537768884374e+02 3.717845732141347444e-05
4.160080040020009733e+02 3.771289828077416684e-05
4.169084542271135092e+02 3.723007624702607534e-05
4.178089044522261020e+02 3.637847844375743440e-05
4.187093546773386379e+02 3.583878041018763612e-05
4.196098049024512306e+02 3.564240166413013347e-05
4.205102551275637666e+02 3.515860402856137168e-05
4.214107053526763025e+02 3.432388123363387894e-05
4.223111555777888952e+02 3.385634379278687093e-05
4.232116058029014312e+02 3.423860444622923391e-05
4.241120560280139671e+02 3.498032971463957712e-05
4.250125062531265598e+02 3.573521844600720981e-05
4.259129564782390958e+02 3.647471888637277671e-05
4.268134067033516317e+02 3.660428172062287427e-05
4.277138569284642244e+02 3.608659035262670777e-05
4.286143071535767604e+02 3.577135161644349467e-05
4.295147573786892963e+02 3.609961900531057918e-05
4.304152076038018890e+02 3.639390829598255052e-05
4.313156578289144250e+02 3.569350667562833866e-05
4.322161080540270177e+02 3.457246414959850336e-05
4.331165582791395536e+02 3.419518111701096993e-05
4.340170085042520896e+02 3.469683249822511545e-05
4.349174587293646823e+02 3.555276770076469506e-05
4.358179089544772182e+02 3.614392427930705808e-05
4.367183591795897541e+02 3.623121673474510651e-05
4.376188094047023469e+02 3.612038985700559185e-05
4.385192596298148828e+02 3.614476876430816469e-05
4.394197098549274187e+02 3.665314858228370018e-05
4.403201600800400115e+02 3.769469264400478924e-05
4.412206103051525474e+02 3.842696451342490581e-05
4.421210605302650833e+02 3.847895486555912606e-05
4.430215107553776761e+02 3.879222304281130905e-05
4.439219609804902120e+02 3.954916878651522469e-05
4.448224112056028048e+02 4.016202161081337823e-05
4.457228614307153407e+02 4.052442165513210897e-05
4.466233116558278766e+02 4.046912187317403670e-05
4.475237618809404694e+02 4.002124012312671333e-05
4.484242121060530053e+02 3.932824391260537092e-05
4.493246623311655412e+02 3.876425568559425553e-05
4.502251125562781340e+02 3.885339684302809970e-05
4.511255627813906699e+02 3.905284435094053609e-05
4.520260130065032058e+02 3.894086103867964278e-05
4.529264632316157986e+02 3.874352872271851850e-05
4.538269134567283345e+02 3.841382924265019321e-05
4.547273636818408704e+02 3.837804517970935672e-05
4.556278139069534632e+02 3.917985777582680721e-05
4.565282641320659991e+02 4.033099408634032568e-05
4.574287143571785919e+02 4.132843187758229541e-05
4.583291645822911278e+02 4.207427886646409091e-05
4.592296148074036637e+02 4.236206162629751527e-05
4.601300650325162565e+02 4.207869155739409284e-05
4.610305152576287924e+02 4.144712780498417736e-05
4.619309654827413283e+02 4.059177061780026266e-05
4.628314157078539210e+02 3.967035117528116086e-05
4.637318659329664570e+02 3.867217300267428458e-05
4.646323161580789929e+02 3.728515948439236011e-05
4.655327663831915856e+02 3.640140584025811397e-05
4.664332166083041216e+02 3.702046180969331143e-05
4.673336668334167143e+02 3.851042327364374401e-05
4.682341170585292502e+02 3.962710294151843330e-05
4.691345672836417862e+02 4.018204827678621027e-05
4.700350175087543789e+02 4.038444682240077341e-05
4.709354677338669148e+02 4.014735028083602110e-05
4.718359179589794508e+02 3.931871570986265082e-05
4.727363681840920435e+02 3.850156717966119775e-05
4.736368184092045794e+02 3.809573871651418162e-05
4.745372686343171154e+02 3.812957727616043409e-05
4.754377188594297081e+02 3.831712794545389988e-05
4.763381690845422440e+02 3.810553711132730635e-05
4.772386193096547800e+02 3.778666384223943267e-05
4.781390695347673727e+02 3.762356953459946289e-05
4.790395197598799086e+02 3.754217213893808034e-05
4.799399699849925014e+02 3.751633036011729825e-05
4.808404202101050373e+02 3.764991066965184838e-05
4.817408704352175732e+02 3.812483785378144763e-05
4.826413206603301660e+02 3.881184283315243017e-05
4.835417708854427019e+02 4.005484038806846753e-05
4.844422211105552378e+02 4.164997613642977098e-05
4.853426713356678306e+02 4.274205560106967910e-05
4.862431215607803665e+02 4.314191885356301255e-05
4.871435717858929024e+02 4.351644197968471828e-05
4.880440220110054952e+02 4.458504078386750854e-05
4.889444722361180311e+02 4.594035141723824248e-05
4.898449224612305670e+02 4.754652690337785064e-05
4.907453726863431598e+02 4.889716215202474092e-05
4.916458229114556957e+02 4.939890850766757828e-05
4.925462731365682885e+02 4.967759038257470194e-05
4.934467233616808244e+02 4.994480715540554387e-05
4.943471735867933603e+02 4.982592958752604640e-05
4.952476238119059531e+02 4.891529197494830315e-05
4.961480740370184890e+02 4.759903784207740880e-05
4.970485242621310249e+02 4.667616984521785794e-05
4.979489744872436177e+02 4.644851487177477882e-05
4.988494247123561536e+02 4.658333302900217972e-05
4.997498749374686895e+02 4.685241072217554700e-05
5.006503251625812823e+02 4.708570982714010755e-05
5.015507753876938182e+02 4.748588003440716012e-05
5.024512256128063541e+02 4.857614898994169181e-05
5.033516758379189469e+02 5.001858704137385312e-05
5.042521260630314828e+02 5.133055281171508333e-05
5.051525762881440755e+02 5.193686732467654168e-05
5.060530265132566115e+02 5.160238147423074903e-05
5.069534767383691474e+02 5.066782582416517664e-05
5.078539269634817401e+02 4.977542792828276502e-05
5.087543771885942760e+02 4.924070391530849120e-05
5.096548274137068120e+02 4.860932908398923403e-05
5.105552776388194047e+02 4.795097628310786384e-05
5.114557278639319406e+02 4.758308703378173353e-05
5.123561780890445334e+02 4.739453978138299630e-05
5.132566283141570693e+02 4.721407839340238454e-05
5.141570785392696052e+02 4.705654657411754082e-05
5.150575287643821412e+02 4.682544902880179819e-05
5.159579789894946771e+02 4.673365460022869884e-05
5.168584292146073267e+02 4.700949904852831499e-05
5.177588794397198626e+02 4.784285652595795483e-05
5.186593296648323985e+02 4.969378640245624302e-05
5.195597798899449344e+02 5.271100791617408152e-05
5.204602301150574704e+02 5.606983828744362613e-05
5.213606803401700063e+02 5.909124681950902514e-05
5.222611305652826559e+02 6.144974251174169450e-05
5.231615807903951918e+02 6.202956363728254305e-05
5.240620310155077277e+02 6.049493049515670886e-05
5.249624812406202636e+02 5.877480792816251265e-05
5.258629314657327996e+02 5.765649169961632384e-05
5.267633816908454492e+02 5.638964391286063174e-05
5.276638319159579851e+02 5.475967627024217339e-05
5.285642821410705210e+02 5.348071575462200384e-05
5.294647323661830569e+02 5.256571633715243966e-05
5.303651825912955928e+02 5.223145760818292943e-05
5.312656328164081287e+02 5.295189374059771227e-05
5.321660830415207784e+02 5.469789174782007870e-05
5.330665332666333143e+02 5.688865535992342857e-05
5.339669834917458502e+02 5.852108624585373835e-05
5.348674337168583861e+02 5.915703364215299732e-05
5.357678839419709220e+02 5.940733273803633130e-05
5.366683341670835716e+02 6.015663761581466434e-05
5.375687843921961075e+02 6.112588783769502712e-05
5.384692346173086435e+02 6.073738871824762469e-05
5.393696848424211794e+02 5.967559708468888854e-05
5.402701350675337153e+02 5.977895399136670028e-05
5.411705852926462512e+02 6.085161345125652567e-05
5.420710355177589008e+02 6.235928254627743489e-05
5.429714857428714367e+02 6.415110849656186246e-05
5.438719359679839727e+02 6.541044202463587327e-05
5.447723861930965086e+02 6.556463692816241772e-05
5.456728364182090445e+02 6.438248500872417637e-05
5.465732866433215804e+02 6.267238146447749064e-05
5.474737368684342300e+02 6.166701278059875436e-05
5.483741870935467659e+02 6.137178201348333971e-05
5.492746373186593019e+02 6.122263795779484485e-05
5.501750875437718378e+02 6.110715282332010272e-05
5.510755377688843737e+02 6.093082391833788062e-05
5.519759879939970233e+02 6.081259517497532367e-05
5.528764382191095592e+02 6.075896034556965182e-05
5.537768884442220951e+02 6.080743858651670950e-05
5.546773386693346310e+02 6.081720300079492952e-05
5.555777888944471670e+02 6.117371592563873757e-05
5.564782391195597029e+02 6.193460539613898836e-05
5.573786893446723525e+02 6.271691034435872042e-05
5.582791395697848884e+02 6.330652875540945877e-05
5.591795897948974243e+02 6.420892737719084752e-05
5.600800400200099602e+02 6.561639348174998026e-05
5.609804902451224962e+02 6.719758664823620193e-05
5.618809404702351458e+02 6.859540200628942567e-05
5.627813906953476817e+02 6.973003420497350072e-05
5.636818409204602176e+02 7.046689324665204575e-05
5.645822911455727535e+02 6.968515262542699382e-05
5.654827413706852894e+02 6.759373489783654279e-05
5.663831915957978254e+02 6.584284534601120623e-05
5.672836418209104750e+02 6.569873738569852900e-05
5.681840920460230109e+02 6.653014445851732062e-05
5.690845422711355468e+02 6.619486092962289072e-05
5.699849924962480827e+02 6.466934581043745536e-05
5.708854427213606186e+02 6.316947790825804313e-05
5.717858929464731546e+02 6.163034827124477431e-05
5.726863431715858042e+02 5.982103986815000247e-05
5.735867933966983401e+02 5.817179255414013059e-05
5.744872436218108760e+02 5.711094555073703311e-05
5.753876938469234119e+02 5.641617143526990723e-05
5.762881440720359478e+02 5.528275608066724877e-05
5.771885942971485974e+02 5.436342450671966718e-05
5.780890445222611334e+02 5.436758988296612547e-05
5.789894947473736693e+02 5.522570837851439651e-05
5.798899449724862052e+02 5.619501247716270835e-05
5.807903951975987411e+02 5.635414332310926329e-05
5.816908454227112770e+02 5.616842756143864817e-05
5.825912956478239266e+02 5.637000639581525764e-05
5.834917458729364625e+02 5.699250185274452732e-05
5.843921960980489985e+02 5.732797406199366332e-05
5.852926463231615344e+02 5.673295112539254140e-05
5.861930965482740703e+02 5.536970741964350554e-05
5.870935467733867199e+02 5.428821465879179895e-05
5.879939969984992558e+02 5.452204521191050677e-05
5.888944472236117917e+02 5.521294887188021747e-05
5.897948974487243277e+02 5.501664845002695388e-05
5.906953476738368636e+02 5.458743180210953505e-05
5.915957978989493995e+02 5.417756245101093662e-05
5.924962481240620491e+02 5.358264026875850618e-05
5.933966983491745850e+02 5.308564354095519607e-05
5.942971485742871209e+02 5.318335743959250720e-05
5.951975987993996569e+02 5.443627195840644979e-05
5.960980490245121928e+02 5.572690994788680348e-05
5.969984992496247287e+02 5.565486490505186783e-05
5.978989494747373783e+02 5.424417468632834098e-05
5.987993996998499142e+02 5.260693679850354088e-05
5.996998499249624501e+02 5.141344799791680315e-05
6.006003001500749860e+02 5.088317250361139180e-05
6.015007503751875220e+02 5.068078459728932200e-05
6.024012006003001716e+02 5.088146355842327164e-05
6.033016508254127075e+02 5.159661842610722472e-05
6.042021010505252434e+02 5.289178140452166699e-05
6.051025512756377793e+02 5.449287891093513328e-05
6.060030015007503152e+02 5.505652126264603277e-05
6.069034517258628512e+02 5.449837531023190012e-05
6.078039019509755008e+02 5.432776853371244899e-05
6.087043521760880367e+02 5.425501508997958744e-05
6.096048024012005726e+02 5.411804969073807540e-05
6.105052526263131085e+02 5.400808724203856685e-05
6.114057028514256444e+02 5.373695063705610260e-05
6.123061530765382940e+02 5.344832767887271093e-05
6.132066033016508300e+02 5.319259629149807294e-05
6.141070535267633659e+02 5.287540546493735950e-05
6.150075037518759018e+02 5.233064056716268318e-05
6.159079539769884377e+02 5.226777914476553072e-05
6.168084042021009736e+02 5.310623808365439060e-05
6.177088544272136232e+02 5.435683300217379621e-05
6.186093046523261592e+02 5.567743414660293404e-05
6.195097548774386951e+02 5.639902221311905972e-05
6.204102051025512310e+02 5.578912253782794501e-05
6.213106553276637669e+02 5.467626058411422625e-05
6.222111055527763028e+02 5.428438239091496387e-05
6.231115557778889524e+02 5.429817412246618194e-05
6.240120060030014884e+02 5.450285854498804016e-05
6.249124562281140243e+02 5.465818521027757939e-05
6.258129064532265602e+02 5.470926354006822777e-05
6.267133566783390961e+02 5.429805729962149650e-05
6.276138069034517457e+02 5.326382910008034695e-05
6.285142571285642816e+02 5.173747529677955736e-05
6.294147073536768175e+02 5.051759623386669257e-05
6.303151575787893535e+02 5.043846567060378304e-05
6.312156078039018894e+02 5.107803488690547915e-05
6.321160580290144253e+02 5.154809134289437071e-05
6.330165082541270749e+02 5.159869932370509445e-05
6.339169584792396108e+02 5.181739313800226402e-05
6.348174087043521467e+02 5.311626536469163726e-05
6.357178589294646827e+02 5.446722038589592600e-05
6.366183091545772186e+02 5.436494945308953722e-05
6.375187593796898682e+02 5.305728623029160171e-05
6.384192096048024041e+02 5.160143552813915017e-05
6.393196598299149400e+02 5.111730472358193072e-05
6.402201100550274759e+02 5.091533445610327095e-05
6.411205602801400119e+02 4.934622909279734975e-05
6.420210105052525478e+02 4.740383982451567586e-05
6.429214607303651974e+02 4.592403030563404944e-05
6.438219109554777333e+02 4.515757395103320656e-05
6.447223611805902692e+02 4.512528301254030238e-05
6.456228114057028051e+02 4.497945004773767420e-05
6.465232616308153411e+02 4.501512373418670328e-05
6.474237118559278770e+02 4.559857446701037168e-05
6.483241620810405266e+02 4.608733945546436941e-05
6.492246123061530625e+02 4.660140044192031498e-05
6.501250625312655984e+02 4.734983944869503475e-05
6.510255127563781343e+02 4.765516786166813204e-05
6.519259629814906702e+02 4.739862818327941069e-05
6.528264132066033198e+02 4.697687721254489108e-05
6.537268634317158558e+02 4.638750266766943954e-05
6.546273136568283917e+02 4.601947568089917153e-05
6.555277638819409276e+02 4.593036021085654023e-05
6.564282141070534635e+02 4.623116283285196384e-05
6.573286643321659994e+02 4.672810830335833734e-05
6.582291145572786490e+02 4.678611257598958901e-05
6.591295647823911850e+02 4.669602096767596803e-05
6.600300150075037209e+02 4.700667615154064467e-05
6.609304652326162568e+02 4.737927679835141238e-05
6.618309154577287927e+02 4.726841944110832635e-05
6.627313656828414423e+02 4.633665958568094584e-05
6.636318159079539782e+02 4.501070142343480807e-05
6.645322661330665142e+02 4.351158304079428456e-05
6.654327163581790501e+02 4.254601817012003325e-05
6.663331665832915860e+02 4.280969710262169691e-05
6.672336168084041219e+02 4.370535792745314100e-05
6.681340670335167715e+02 4.416905934140728660e-05
6.690345172586293074e+02 4.412976892321251353e-05
6.699349674837418434e+02 4.384285368089563874e-05
6.708354177088543793e+02 4.415987807520513174e-05
6.717358679339669152e+02 4.581089971096082719e-05
6.726363181590794511e+02 4.780121102384375631e-05
6.735367683841921007e+02 4.840286226475427591e-05
6.744372186093046366e+02 4.830413550651000825e-05
6.753376688344171725e+02 4.835338480147273211e-05
6.762381190595297085e+02 4.801590138836377104e-05
6.771385692846422444e+02 4.717008766685935813e-05
6.780390195097548940e+02 4.629197072151664514e-05
6.789394697348674299e+02 4.589115642505937968e-05
6.798399199599799658e+02 4.623837952727002405e-05
6.807403701850925017e+02 4.722570656090331414e-05
6.816408204102050377e+02 4.858681174984943909e-05
6.825412706353175736e+02 4.982695368497645631e-05
6.834417208604302232e+02 5.015005574410116780e-05
6.843421710855427591e+02 4.980540292306520096e-05
6.852426213106552950e+02 5.004023476860749016e-05
6.861430715357678309e+02 5.062539868680054390e-05
6.870435217608803669e+02 5.012193741101157024e-05
6.879439719859930165e+02 4.898774561181319377e-05
6.888444222111055524e+02 4.836230028288197668e-05
6.897448724362180883e+02 4.832581849163869177e-05
6.906453226613306242e+02 4.864791210208710610e-05
6.915457728864431601e+02 4.933558830437802641e-05
6.924462231115556961e+02 5.041041660586186214e-05
6.933466733366683457e+02 5.160834693568768899e-05
6.942471235617808816e+02 5.121999850205036871e-05
6.951475737868934175e+02 4.932753817926499134e-05
6.960480240120059534e+02 4.710132406701319607e-05
6.969484742371184893e+02 4.538899745748639836e-05
6.978489244622311389e+02 4.504056836801844413e-05
6.987493746873436749e+02 4.670023681969567956e-05
6.996498249124562108e+02 4.988535593467579058e-05
7.005502751375687467e+02 5.230285048937928922e-05
7.014507253626812826e+02 5.286472846619136789e-05
7.023511755877938185e+02 5.287731106131194405e-05
7.032516258129064681e+02 5.257922300353408835e-05
7.041520760380190040e+02 5.109044842464040428e-05
7.050525262631315400e+02 4.974645509988663718e-05
7.059529764882440759e+02 4.965452267554249129e-05
7.068534267133566118e+02 5.011981048313438768e-05
7.077538769384691477e+02 4.978776143691466247e-05
7.086543271635817973e+02 4.861569652821243453e-05
7.095547773886943332e+02 4.761179862029794646e-05
7.104552276138068692e+02 4.708598426329390908e-05
7.113556778389194051e+02 4.686455037440624374e-05
7.122561280640319410e+02 4.724913746128724064e-05
7.131565782891445906e+02 4.877363465136344030e-05
7.140570285142571265e+02 5.095946052846398740e-05
7.149574787393696624e+02 5.227645003010505178e-05
7.158579289644821984e+02 5.243859862494666582e-05
7.167583791895947343e+02 5.278045916130994560e-05
7.176588294147072702e+02 5.284789377939429694e-05
7.185592796398199198e+02 5.137510054857343656e-05
7.194597298649324557e+02 4.902491809530751845e-05
7.203601800900449916e+02 4.766211941409995167e-05
7.212606303151575275e+02 4.753992786318626790e-05
7.221610805402700635e+02 4.838106959650988019e-05
7.230615307653827131e+02 5.016859190939997108e-05
7.239619809904952490e+02 5.141628085929239014e-05
7.248624312156077849e+02 5.086338261087916106e-05
7.257628814407203208e+02 5.019256643951358344e-05
7.266633316658328567e+02 5.046746206181901262e-05
7.275637818909453927e+02 5.045707676726257873e-05
7.284642321160580423e+02 5.030867318032784038e-05
7.293646823411705782e+02 5.075326209092671358e-05
7.302651325662831141e+02 5.130992200481865692e-05
7.311655827913956500e+02 5.199345978233281399e-05
7.320660330165081859e+02 5.231719521674903705e-05
7.329664832416207219e+02 5.122438185696430527e-05
7.338669334667333715e+02 4.959017433588178137e-05
7.347673836918459074e+02 4.892589880575156307e-05
7.356678339169584433e+02 4.933717172346643230e-05
7.365682841420709792e+02 5.037453451502381114e-05
7.374687343671835151e+02 5.152395045239333102e-05
7.383691845922961647e+02 5.197592325657889826e-05
7.392696348174087007e+02 5.166578262069004992e-05
7.401700850425212366e+02 5.102478651922110153e-05
7.410705352676337725e+02 5.046719448082752970e-05
7.419709854927463084e+02 4.962329308450725462e-05
7.428714357178588443e+02 4.817234549410482079e-05
7.437718859429714939e+02 4.697238196172997588e-05
7.446723361680840299e+02 4.693527429094792973e-05
7.455727863931965658e+02 4.802078984730718533e-05
7.464732366183091017e+02 4.965344061336233138e-05
7.473736868434216376e+02 5.163494465844371405e-05
7.482741370685342872e+02 5.300704493372653518e-05
7.491745872936468231e+02 5.414805134087732717e-05
7.500750375187593590e+02 5.542322022331967708e-05
7.509754877438718950e+02 5.586994792169077724e-05
7.518759379689844309e+02 5.560914964544551949e-05
7.527763881940969668e+02 5.523903550994931468e-05
7.536768384192096164e+02 5.486861472464174495e-05
7.545772886443221523e+02 5.449123039335852933e-05
7.554777388694346882e+02 5.383458951014663730e-05
7.563781890945472242e+02 5.366443437631054859e-05
7.572786393196597601e+02 5.428317564510529408e-05
7.581790895447722960e+02 5.569702287925310381e-05
7.590795397698849456e+02 5.751836826668593874e-05
7.599799899949974815e+02 5.930563172869504651e-05
7.608804402201100174e+02 6.010421720046103258e-05
7.617808904452225534e+02 5.998282007951579299e-05
7.626813406703350893e+02 5.903982625277442618e-05
7.635817908954477389e+02 5.733887794773364293e-05
7.644822411205602748e+02 5.542333747655891308e-05
7.653826913456728107e+02 5.413516935861924006e-05
7.662831415707853466e+02 5.354158833255676618e-05
7.671835917958978825e+02 5.344318042626055085e-05
7.680840420210104185e+02 5.477244100357988964e-05
7.689844922461230681e+02 5.696194081616762602e-05
7.698849424712356040e+02 5.735849129942073788e-05
7.707853926963481399e+02 5.511843710271278581e-05
7.716858429214606758e+02 5.286853869588765736e-05
7.725862931465732117e+02 5.235026076389871986e-05
7.734867433716858613e+02 5.251071857061124739e-05
7.743871935967983973e+02 5.224822208839804478e-05
7.752876438219109332e+02 5.195196528785435972e-05
7.761880940470234691e+02 5.189430567519056465e-05
7.770885442721360050e+02 5.259567233861378599e-05
7.779889944972485409e+02 5.444952280124102598e-05
7.788894447223611905e+02 5.679734802703149504e-05
7.797898949474737265e+02 5.829762540586979990e-05
7.806903451725862624e+02 5.904796673644375793e-05
7.815907953976987983e+02 6.025612566163683116e-05
7.824912456228113342e+02 6.110463813751928369e-05
7.833916958479238701e+02 6.037677302551354089e-05
7.842921460730365197e+02 5.882335104617748774e-05
7.851925962981490557e+02 5.759884068707832826e-05
7.860930465232615916e+02 5.678754289554401448e-05
7.869934967483741275e+02 5.630601762156897108e-05
7.878939469734866634e+02 5.644444563406544651e-05
7.887943971985993130e+02 5.708945377513450803e-05
7.896948474237118489e+02 5.755550796145078178e-05
7.905952976488243849e+02 5.871369810186368197e-05
7.914957478739369208e+02 6.111763642391610809e-05
7.923961980990494567e+02 6.252067350427267486e-05
7.932966483241619926e+02 6.187168943981902788e-05
7.941970985492746422e+02 6.100590113270573016e-05
7.950975487743871781e+02 6.081254676852010821e-05
7.959979989994997140e+02 6.076202382593000388e-05
7.968984492246122500e+02 6.108341015967492561e-05
7.977988994497247859e+02 6.159323080428024723e-05
7.986993496748374355e+02 6.134004488596819825e-05
7.995997998999499714e+02 6.120267938639009652e-05
8.005002501250625073e+02 6.168760792457997355e-05
8.014007003501750432e+02 6.186037843379789641e-05
8.023011505752875792e+02 6.179842501811196607e-05
8.032016008004001151e+02 6.151133531806652732e-05
8.041020510255127647e+02 6.086930171661150273e-05
8.050025012506253006e+02 6.046749140569811784e-05
8.059029514757378365e+02 6.027294722185241529e-05
8.068034017008503724e+02 6.012257252980100509e-05
8.077038519259629084e+02 6.008115731443231710e-05
8.086043021510754443e+02 5.998788883037707017e-05
8.095047523761880939e+02 6.012894652493099528e-05
8.104052026013006298e+02 6.040578818936245267e-05
8.113056528264131657e+02 6.066058124489481752e-05
8.122061030515257016e+02 6.092363597173883286e-05
8.131065532766382375e+02 6.063022552057176120e-05
8.140070035017508872e+02 5.924763402200538545e-05
8.149074537268634231e+02 5.778901154318850231e-05
8.158079039519759590e+02 5.789884584281441667e-05
8.167083541770884949e+02 6.003729823258506580e-05
8.176088044022010308e+02 6.263910233054252575e-05
8.185092546273135667e+02 6.471173851193790731e-05
8.194097048524262163e+02 6.615168499210813088e-05
8.203101550775387523e+02 6.729592668617626603e-05
8.212106053026512882e+02 6.949068477146465707e-05
8.221110555277638241e+02 7.226523369383465597e-05
8.230115057528763600e+02 7.403078961694587899e-05
8.239119559779890096e+02 7.428575751936079461e-05
8.248124062031015455e+02 7.308804769961867122e-05
8.257128564282140815e+02 7.092012017030973009e-05
8.266133066533266174e+02 6.896353088956693714e-05
8.275137568784391533e+02 6.828889577216933852e-05
8.284142071035516892e+02 6.833241003876782782e-05
8.293146573286643388e+02 6.739659786362474001e-05
8.302151075537768747e+02 6.635227663961481171e-05
8.311155577788894107e+02 6.618131760518502636e-05
8.320160080040019466e+02 6.638706229231957712e-05
8.329164582291144825e+02 6.605099517703239454e-05
8.338169084542270184e+02 6.514701830679068574e-05
8.347173586793396680e+02 6.312321085525519741e-05
8.356178089044522039e+02 6.058673005446467511e-05
8.365182591295647399e+02 5.915616476295048302e-05
8.374187093546772758e+02 5.844389148503171963e-05
8.383191595797898117e+02 5.853784640004289317e-05
8.392196098049024613e+02 5.917974506982291298e-05
8.401200600300149972e+02 5.957450135715407783e-05
8.410205102551275331e+02 5.991479545503794826e-05
8.419209604802400690e+02 5.967835473909824444e-05
8.428214107053526050e+02 5.930400143256052506e-05
8.437218609304651409e+02 5.955823143124027558e-05
8.446223111555777905e+02 6.099967996616078648e-05
8.455227613806903264e+02 6.247982488334467713e-05
8.464232116058028623e+02 6.225397853521592514e-05
8.473236618309153982e+02 6.055088961553362488e-05
8.482241120560279342e+02 5.915473733641096553e-05
8.491245622811405838e+02 5.914608666954670817e-05
8.500250125062531197e+02 5.982858313388841621e-05
8.509254627313656556e+02 6.076180277502003264e-05
8.518259129564781915e+02 6.109448478513045014e-05
8.527263631815907274e+02 6.062035117008513651e-05
8.536268134067032634e+02 6.055824591145026581e-05
8.545272636318159130e+02 6.146324888200845819e-05
8.554277138569284489e+02 6.295500815772927606e-05
8.563281640820409848e+02 6.475388036981000617e-05
8.572286143071535207e+02 6.603676777939037409e-05
8.581290645322660566e+02 6.586779513339692115e-05
8.590295147573785925e+02 6.443311928066056907e-05
8.599299649824912422e+02 6.329569197869043583e-05
8.608304152076037781e+02 6.380682782434389673e-05
8.617308654327163140e+02 6.531858397058418349e-05
8.626313156578288499e+02 6.609890621064488459e-05
8.635317658829413858e+02 6.551763777792830520e-05
8.644322161080540354e+02 6.495356782259247973e-05
8.653326663331665713e+02 6.523219186809912831e-05
8.662331165582791073e+02 6.613573262230249428e-05
8.671335667833916432e+02 6.716778598464996652e-05
8.680340170085041791e+02 6.732554650568645907e-05
8.689344672336167150e+02 6.724105486553889920e-05
8.698349174587293646e+02 6.734463112265860773e-05
8.707353676838419005e+02 6.703364565715108235e-05
8.716358179089544365e+02 6.803997548431103424e-05
8.725362681340669724e+02 7.080926437166555642e-05
8.734367183591795083e+02 7.333128773821116677e-05
8.743371685842921579e+02 7.529820966742465380e-05
8.752376188094046938e+02 7.619695151281229465e-05
8.761380690345172297e+02 7.574724695640006392e-05
8.770385192596297657e+02 7.477303128737722716e-05
8.779389694847423016e+02 7.358643362125947391e-05
8.788394197098548375e+02 7.229950699818344674e-05
8.797398699349674871e+02 7.187018445519364714e-05
8.806403201600800230e+02 7.379954155456897339e-05
8.815407703851925589e+02 7.750859421180738044e-05
8.824412206103050949e+02 8.134839408067044773e-05
8.833416708354176308e+02 8.481462627834644838e-05
8.842421210605301667e+02 8.797902043345797785e-05
8.851425712856428163e+02 9.014740505523820052e-05
8.860430215107553522e+02 8.938469506950998805e-05
8.869434717358678881e+02 8.648051529788738023e-05
8.878439219609804240e+02 8.428524206053147373e-05
8.887443721860929600e+02 8.360791441715258079e-05
8.896448224112056096e+02 8.441782043486323697e-05
8.905452726363181455e+02 8.557529225748923920e-05
8.914457228614306814e+02 8.707904006214808163e-05
8.923461730865432173e+02 8.958501673255776657e-05
8.932466233116557532e+02 9.176849852753302269e-05
8.941470735367682892e+02 9.224329864383404558e-05
8.950475237618809388e+02 9.216795921372167646e-05
8.959479739869934747e+02 9.307823366936905673e-05
8.968484242121060106e+02 9.368359159261783380e-05
8.977488744372185465e+02 9.377592653200701722e-05
8.986493246623310824e+02 9.314308058423649420e-05
8.995497748874437320e+02 9.263025696111114749e-05
9.004502251125562680e+02 9.417400958739272521e-05
9.013506753376688039e+02 9.581156407493891997e-05
9.022511255627813398e+02 9.370191237211956232e-05
9.031515757878938757e+02 8.958180812714447547e-05
9.040520260130064116e+02 8.897707147159144767e-05
9.049524762381190612e+02 9.250488948711943818e-05
9.058529264632315972e+02 9.734317477157690998e-05
9.067533766883441331e+02 1.003680804440754311e-04
9.076538269134566690e+02 1.008837325345904708e-04
9.085542771385692049e+02 1.001222549085831887e-04
9.094547273636817408e+02 9.859146223176766457e-05
9.103551775887943904e+02 9.636682998411006415e-05
9.112556278139069263e+02 9.372285408066477475e-05
9.121560780390194623e+02 9.258660048135384721e-05
9.130565282641319982e+02 9.388751111602002247e-05
9.139569784892445341e+02 9.651635765237811366e-05
9.148574287143571837e+02 9.904903167107573497e-05
9.157578789394697196e+02 9.994577341505418819e-05
9.166583291645822555e+02 1.003690291390741703e-04
9.175587793896947915e+02 1.027811392516674114e-04
9.184592296148073274e+02 1.045730996486131083e-04
9.193596798399198633e+02 1.038439656116511324e-04
9.202601300650325129e+02 1.032026585156997389e-04
9.211605802901450488e+02 1.043480573989340871e-04
9.220610305152575847e+02 1.069869759747023904e-04
9.229614807403701207e+02 1.095915177652331010e-04
9.238619309654826566e+02 1.105731568417576261e-04
9.247623811905953062e+02 1.109234733730112894e-04
9.256628314157078421e+02 1.115943399183131718e-04
9.265632816408203780e+02 1.111776838045469448e-04
9.274637318659329139e+02 1.112105911107566161e-04
9.283641820910454499e+02 1.129534741089781655e-04
9.292646323161579858e+02 1.138948375755183999e-04
9.301650825412706354e+02 1.140821088647630123e-04
9.310655327663831713e+02 1.149526795863323783e-04
9.319659829914957072e+02 1.166997518102620913e-04
9.328664332166082431e+02 1.179739163327602028e-04
9.337668834417207790e+02 1.191084252204231616e-04
9.346673336668334287e+02 1.221997464276503205e-04
9.355677838919459646e+02 1.263789734454531940e-04
9.364682341170585005e+02 1.306287542287596173e-04
9.373686843421710364e+02 1.351498220727179124e-04
9.382691345672835723e+02 1.371437061942248675e-04
9.391695847923961082e+02 1.370298916577590131e-04
9.400700350175087578e+02 1.385586791823421187e-04
9.409704852426212938e+02 1.404239176672005093e-04
9.418709354677338297e+02 1.394787822912488783e-04
9.427713856928463656e+02 1.379637216138728569e-04
9.436718359179589015e+02 1.383185806539211440e-04
9.445722861430714374e+02 1.368028799926710674e-04
9.454727363681840870e+02 1.326537985479914769e-04
9.463731865932966230e+02 1.293666962239874054e-04
9.472736368184091589e+02 1.279942143956642889e-04
9.481740870435216948e+02 1.280005104202411694e-04
9.490745372686342307e+02 1.294009964355253737e-04
9.499749874937468803e+02 1.326522957981122444e-04
9.508754377188594162e+02 1.372353339521928135e-04
9.517758879439719522e+02 1.396077134061145719e-04
9.526763381690844881e+02 1.396523212798907502e-04
9.535767883941970240e+02 1.409647339592220267e-04
9.544772386193095599e+02 1.448171801256475444e-04
9.553776888444222095e+02 1.494286064769150544e-04
9.562781390695347454e+02 1.536661761901163454e-04
9.571785892946472813e+02 1.570375200839433131e-04
9.580790395197598173e+02 1.579215218046638983e-04
9.589794897448723532e+02 1.587071762529988057e-04
9.598799399699850028e+02 1.618066611435879177e-04
9.607803901950975387e+02 1.661868641267926340e-04
9.616808404202100746e+02 1.718745808552195830e-04
9.625812906453226105e+02 1.763386887244394361e-04
9.634817408704351465e+02 1.789632732950884649e-04
9.643821910955476824e+02 1.817931911574515748e-04
9.652826413206603320e+02 1.813768403113392492e-04
9.661830915457728679e+02 1.770460419006228490e-04
9.670835417708854038e+02 1.724925398992734288e-04
9.679839919959979397e+02 1.705842010204904199e-04
9.688844422211104757e+02 1.718163954476688423e-04
9.697848924462230116e+02 1.723510715711069278e-04
9.706853426713356612e+02 1.684355963409629752e-04
9.715857928964481971e+02 1.639916516747291493e-04
9.724862431215607330e+02 1.654092057598034163e-04
9.733866933466732689e+02 1.728968812119765911e-04
9.742871435717858049e+02 1.818268647951454373e-04
9.751875937968984545e+02 1.890678393934377434e-04
9.760880440220109904e+02 1.959197114031387826e-04
9.769884942471235263e+02 2.044048654623780228e-04
9.778889444722360622e+02 2.106493654657959271e-04
9.787893946973485981e+02 2.138660180632901504e-04
9.796898449224611340e+02 2.164398502399170654e-04
9.805902951475737837e+02 2.191306938152723762e-04
9.814907453726863196e+02 2.210799917892322046e-04
9.823911955977988555e+02 2.208030426933252680e-04
9.832916458229113914e+02 2.209083857734029613e-04
9.841920960480239273e+02 2.222701920222170269e-04
9.850925462731365769e+02 2.247279546154891199e-04
9.859929964982491128e+02 2.284031219516450867e-04
9.868934467233616488e+02 2.339120210218261452e-04
9.877938969484741847e+02 2.383232300456146122e-04
9.886943471735867206e+02 2.399683676027084900e-04
9.895947973986992565e+02 2.403915054342993767e-04
9.904952476238119061e+02 2.384230438795704727e-04
9.913956978489244420e+02 2.349032220323478675e-04
9.922961480740369780e+02 2.343268642622943596e-04
9.931965982991495139e+02 2.361610681472295901e-04
9.940970485242620498e+02 2.373003163262443543e-04
9.949974987493745857e+02 2.372056031547846249e-04
9.958979489744872353e+02 2.361997024348201147e-04
9.967983991995997712e+02 2.363583550663680066e-04
9.976988494247123072e+02 2.398360219950877975e-04
9.985992996498248431e+02 2.456132666480038561e-04
9.994997498749373790e+02 2.511797767827775611e-04
1.000400200100050029e+03 2.535278881089106048e-04
1.001300650325162565e+03 2.567011913989983968e-04
1.002201100550275100e+03 2.620038893347489831e-04
1.003101550775387636e+03 2.655562326307424315e-04
1.004002001000500172e+03 2.663576466718982111e-04
1.004902451225612708e+03 2.682461238589153450e-04
1.005802901450725358e+03 2.746648052708909691e-04
1.006703351675837894e+03 2.783595004923728020e-04
1.007603801900950430e+03 2.731638367649838407e-04
1.008504252126062966e+03 2.639070415001102256e-04
1.009404702351175501e+03 2.595666662326956138e-04
1.010305152576288151e+03 2.608273982093024346e-04
1.011205602801400687e+03 2.632580454966578659e-04
1.012106053026513223e+03 2.679744567346330035e-04
1.013006503251625759e+03 2.784213796005332946e-04
1.013906953476738295e+03 2.876644934808854706e-04
1.014807403701850831e+03 2.909266181993608422e-04
1.015707853926963480e+03 2.903684494748818971e-04
1.016608304152076016e+03 2.852206855662028570e-04
1.017508754377188552e+03 2.779644510007266297e-04
1.018409204602301088e+03 2.735764868152911334e-04
1.019309654827413624e+03 2.729168189296148767e-04
1.020210105052526160e+03 2.739870858113002900e-04
1.021110555277638809e+03 2.765735344866092783e-04
1.022011005502751345e+03 2.815139027664307833e-04
1.022911455727863881e+03 2.878885500582180281e-04
1.023811905952976417e+03 2.952730855923280150e-04
1.024712356178089067e+03 3.047366516962460715e-04
1.025612806403201603e+03 3.124949683530278298e-04
1.026513256628314139e+03 3.147865870127595318e-04
1.027413706853426675e+03 3.166275570588512932e-04
1.028314157078539210e+03 3.185326681743246317e-04
1.029214607303651746e+03 3.207136869570339317e-04
1.030115057528764282e+03 3.241480467488575120e-04
1.031015507753876818e+03 3.258852744585926135e-04
1.031915957978989354e+03 3.271970330886860793e-04
1.032816408204101890e+03 3.308472750522458978e-04
1.033716858429214653e+03 3.332385594733007733e-04
1.034617308654327189e+03 3.302473866669069732e-04
1.035517758879439725e+03 3.252189832693617132e-04
1.036418209104552261e+03 3.238895205777550588e-04
1.037318659329664797e+03 3.252407810141785382e-04
1.038219109554777333e+03 3.230677541932942582e-04
1.039119559779889869e+03 3.203264468780659736e-04
1.040020010005002405e+03 3.232448269342709339e-04
1.040920460230114941e+03 3.307944270778341209e-04
1.041820910455227477e+03 3.390131143707021872e-04
1.042721360680340013e+03 3.437422706305131334e-04
1.043621810905452776e+03 3.423478625025708363e-04
1.044522261130565312e+03 3.386575342010245820e-04
1.045422711355677848e+03 3.362074674816384031e-04
1.046323161580790384e+03 3.319789831373126340e-04
1.047223611805902920e+03 3.272775113506252585e-04
1.048124062031015455e+03 3.251569871186887656e-04
1.049024512256127991e+03 3.273793239750168280e-04
1.049924962481240527e+03 3.317204634536936913e-04
1.050825412706353063e+03 3.360996584342472514e-04
1.051725862931465599e+03 3.420232569459284570e-04
1.052626313156578135e+03 3.498803150909260114e-04
1.053526763381690898e+03 3.570512014293569661e-04
1.054427213606803434e+03 3.628673411510923005e-04
1.055327663831915970e+03 3.699459795010670571e-04
1.056228114057028506e+03 3.766001665430578202e-04
1.057128564282141042e+03 3.820747535863277134e-04
1.058029014507253578e+03 3.884391706965921952e-04
1.058929464732366114e+03 3.939129245663085016e-04
1.059829914957478650e+03 3.947041689398927359e-04
1.060730365182591186e+03 3.831017929825633519e-04
1.061630815407703722e+03 3.668596938386421182e-04
1.062531265632816257e+03 3.578064316401823194e-04
1.063431715857929021e+03 3.553025613030691768e-04
1.064332166083041557e+03 3.564586845296034462e-04
1.065232616308154093e+03 3.612199669171375829e-04
1.066133066533266629e+03 3.649194599859736888e-04
1.067033516758379164e+03 3.652506100969651502e-04
1.067933966983491700e+03 3.646580884598308952e-04
1.068834417208604236e+03 3.654432861958136478e-04
1.069734867433716772e+03 3.675278357105343915e-04
1.070635317658829308e+03 3.708684804198622044e-04
1.071535767883941844e+03 3.761127415368718981e-04
1.072436218109054380e+03 3.847499519897945976e-04
1.073336668334167143e+03 3.970120426554674012e-04
1.074237118559279679e+03 3.994542130540597877e-04
1.075137568784392215e+03 3.881420991611789543e-04
1.076038019009504751e+03 3.762317655713125989e-04
1.076938469234617287e+03 3.704299155230118129e-04
1.077838919459729823e+03 3.651617686644734575e-04
1.078739369684842359e+03 3.622418734498368347e-04
1.079639819909954895e+03 3.667441448021473344e-04
1.080540270135067431e+03 3.725096746278100304e-04
1.081440720360179967e+03 3.696711319438498533e-04
1.082341170585292502e+03 3.622896139334066219e-04
1.083241620810405038e+03 3.558531771260264073e-04
1.084142071035517802e+03 3.503763082352420797e-04
1.085042521260630338e+03 3.485618398220140138e-04
1.085942971485742873e+03 3.509243512972795857e-04
1.086843421710855409e+03 3.563397999988389343e-04
1.087743871935967945e+03 3.688053551298026709e-04
1.088644322161080481e+03 3.862866908442343116e-04
1.089544772386193017e+03 4.041951009014687550e-04
1.090445222611305553e+03 4.193811820096540136e-04
1.091345672836418089e+03 4.273265737262408400e-04
1.092246123061530625e+03 4.316090239793418486e-04
1.093146573286643161e+03 4.382058892010699770e-04
1.094047023511755924e+03 4.379226538443702337e-04
1.094947473736868460e+03 4.226182790223970771e-04
1.095847923961980996e+03 4.056750316852770501e-04
1.096748374187093532e+03 4.015873025739865525e-04
1.097648824412206068e+03 4.097156438931598226e-04
1.098549274637318604e+03 4.178374145992897457e-04
1.099449724862431140e+03 4.201097870867320522e-04
1.100350175087543676e+03 4.225487128124449411e-04
1.101250625312656211e+03 4.260808865843341187e-04
1.102151075537768747e+03 4.316924965169140226e-04
1.103051525762881283e+03 4.427875752101399776e-04
1.103951975987994047e+03 4.636243265343900134e-04
1.104852426213106583e+03 4.915376359821670019e-04
1.105752876438219118e+03 5.097412287179445105e-04
1.106653326663331654e+03 5.130952307212264998e-04
1.107553776888444190e+03 5.086658804034643747e-04
1.108454227113556726e+03 5.004586645131808755e-04
1.109354677338669262e+03 4.994480681309096523e-04
1.110255127563781798e+03 5.121897807769289213e-04
1.111155577788894334e+03 5.384176742797752626e-04
1.112056028014006870e+03 5.765991435462169187e-04
1.112956478239119406e+03 6.121826883566036659e-04
1.113856928464232169e+03 6.344999910157761262e-04
1.114757378689344705e+03 6.538870892816137006e-04
1.115657828914457241e+03 6.773945083253089285e-04
1.116558279139569777e+03 7.111533032780408773e-04
1.117458729364682313e+03 7.510203120921922883e-04
1.118359179589794849e+03 7.877068818128304343e-04
1.119259629814907385e+03 8.030039278876625886e-04
1.120160080040019920e+03 8.112322011309619843e-04
1.121060530265132456e+03 8.301913068484592737e-04
1.121960980490244992e+03 8.533633537677864358e-04
1.122861430715357528e+03 8.905096607698258400e-04
1.123761880940470292e+03 9.505981179244425445e-04
1.124662331165582827e+03 1.024753667708699955e-03
1.125562781390695363e+03 1.085903658719450122e-03
1.126463231615807899e+03 1.129768126547842479e-03
1.127363681840920435e+03 1.177235558410393663e-03
1.128264132066032971e+03 1.247385991009670970e-03
1.129164582291145507e+03 1.336442875896805792e-03
1.130065032516258043e+03 1.409103471596817678e-03
1.130965482741370579e+03 1.439998136632386020e-03
1.131865932966483115e+03 1.462850894855525097e-03
1.132766383191595651e+03 1.515350232972534870e-03
1.133666833416708187e+03 1.573155739806510666e-03
1.134567283641820950e+03 1.613069287435730560e-03
1.135467733866933486e+03 1.689541332367280966e-03
1.136368184092046022e+03 1.807703657900840708e-03
1.137268634317158558e+03 1.928110430037977257e-03
1.138169084542271094e+03 2.006997695317771623e-03
1.139069534767383630e+03 2.054571306736759952e-03
1.139969984992496165e+03 2.092329571351465248e-03
1.140870435217608701e+03 2.136449810584771947e-03
1.141770885442721237e+03 2.199404670290513921e-03
1.142671335667833773e+03 2.233073090685089128e-03
1.143571785892946309e+03 2.208394405707446613e-03
1.144472236118059072e+03 2.136019506713127472e-03
1.145372686343171608e+03 2.051413824678713534e-03
1.146273136568284144e+03 1.970646830124477781e-03
1.147173586793396680e+03 1.908725000992640437e-03
1.148074037018509216e+03 1.875531452102270494e-03
1.148974487243621752e+03 1.848974370217216232e-03
1.149874937468734288e+03 1.793800382360694881e-03
1.150775387693846824e+03 1.689950542367475760e-03
1.151675837918959360e+03 1.542080136418064705e-03
1.152576288144071896e+03 1.391419820374384386e-03
1.153476738369184432e+03 1.277840737080899926e-03
1.154377188594297195e+03 1.197363814569002210e-03
1.155277638819409731e+03 1.143554538368908233e-03
1.156178089044522267e+03 1.113308037618355182e-03
1.157078539269634803e+03 1.093715450638672740e-03
1.157978989494747339e+03 1.072575452820808068e-03
1.158879439719859874e+03 1.040321137338655723e-03
1.159779889944972410e+03 1.003399384585675243e-03
1.160680340170084946e+03 9.693663149469341350e-04
1.161580790395197482e+03 9.512812050603834972e-04
1.162481240620310018e+03 9.521240568840266165e-04
1.163381690845422554e+03 9.649611487457605743e-04
1.164282141070535317e+03 9.890827649560241571e-04
1.165182591295647853e+03 1.002597014917379868e-03
1.166083041520760389e+03 9.879869550791162136e-04
1.166983491745872925e+03 9.524156264207173485e-04
1.167883941970985461e+03 9.138567354463643985e-04
1.168784392196097997e+03 8.951117855882854794e-04
1.169684842421210533e+03 8.868399729034338657e-04
1.170585292646323069e+03 8.762946960098293159e-04
1.171485742871435605e+03 8.750147631327719489e-04
1.172386193096548141e+03 8.834628586287118649e-04
1.173286643321660677e+03 8.862711690952693611e-04
1.174187093546773440e+03 8.864891877748431624e-04
1.175087543771885976e+03 8.962432453045261673e-04
1.175987993996998512e+03 9.102482803886251901e-04
1.176888444222111048e+03 9.252626132926666976e-04
1.177788894447223583e+03 9.349399315775380661e-04
1.178689344672336119e+03 9.334443013452811558e-04
1.179589794897448655e+03 9.240805785398926173e-04
1.180490245122561191e+03 9.052770753742349699e-04
1.181390695347673727e+03 8.855747621010831702e-04
1.182291145572786263e+03 8.753564492812939031e-04
1.183191595797898799e+03 8.669897480906438780e-04
1.184092046023011562e+03 8.440034337877886381e-04
1.184992496248124098e+03 8.126445244192026778e-04
1.185892946473236634e+03 7.885763580832807259e-04
1.186793396698349170e+03 7.795541114435036332e-04
1.187693846923461706e+03 7.861229847481467341e-04
1.188594297148574242e+03 8.016195372297795938e-04
1.189494747373686778e+03 8.165852874519416871e-04
1.190395197598799314e+03 8.335960334895041717e-04
1.191295647823911850e+03 8.465764678323587158e-04
1.192196098049024386e+03 8.484933347204558565e-04
1.193096548274136921e+03 8.427579270275445400e-04
1.193996998499249457e+03 8.282616164241502800e-04
1.194897448724362221e+03 8.125669165126222235e-04
1.195797898949474757e+03 8.107900252984427377e-04
1.196698349174587293e+03 8.211900542640267198e-04
1.197598799399699828e+03 8.262474304493813313e-04
1.198499249624812364e+03 8.239143049766119165e-04
1.199399699849924900e+03 8.337662795331912983e-04
1.200300150075037436e+03 8.499246654363450809e-04
1.201200600300149972e+03 8.437289418886266329e-04
1.202101050525262508e+03 8.270303506522826836e-04
1.203001500750375044e+03 8.228822830587219014e-04
1.203901950975487580e+03 8.387648255799203803e-04
1.204802401200600343e+03 8.633948352979577221e-04
1.205702851425712879e+03 8.831847312409172842e-04
1.206603301650825415e+03 8.925474414423902828e-04
1.207503751875937951e+03 8.990807958684369269e-04
1.208404202101050487e+03 9.114399033567579947e-04
1.209304652326163023e+03 9.316451170971695684e-04
1.210205102551275559e+03 9.531792845581918590e-04
1.211105552776388095e+03 9.688318951564656297e-04
1.212006003001500630e+03 9.675129385054691018e-04
1.212906453226613166e+03 9.480425156914630168e-04
1.213806903451725702e+03 9.358706664693628753e-04
1.214707353676838466e+03 9.445463081937246564e-04
1.215607803901951002e+03 9.674325939631065125e-04
1.216508254127063537e+03 9.911028905402366040e-04
1.217408704352176073e+03 1.008777558376433396e-03
1.218309154577288609e+03 1.018829539990647641e-03
1.219209604802401145e+03 1.013803248099272216e-03
1.220110055027513681e+03 1.003077525086012002e-03
1.221010505252626217e+03 9.998253057978934936e-04
1.221910955477738753e+03 9.980120476645410951e-04
1.222811405702851289e+03 9.828058757527461525e-04
1.223711855927963825e+03 9.537297866854372273e-04
1.224612306153076588e+03 9.280898323652206914e-04
1.225512756378189124e+03 9.194476092407773962e-04
1.226413206603301660e+03 9.209564531578827559e-04
1.227313656828414196e+03 9.173590818136424189e-04
1.228214107053526732e+03 9.035127845175087687e-04
1.229114557278639268e+03 8.954265249510279072e-04
1.230015007503751804e+03 9.032475546124740361e-04
1.230915457728864340e+03 9.133007188789110707e-04
1.231815907953976875e+03 9.187403044584499089e-04
1.232716358179089411e+03 9.310626116417441674e-04
1.233616808404201947e+03 9.426884731883079923e-04
1.234517258629314711e+03 9.396828375711891151e-04
1.235417708854427246e+03 9.295529249202295376e-04
1.236318159079539782e+03 9.250618147514085097e-04
1.237218609304652318e+03 9.341744769592344412e-04
1.238119059529764854e+03 9.491200123145046878e-04
1.239019509754877390e+03 9.636317262009251898e-04
1.239919959979989926e+03 9.885941080648025236e-04
1.240820410205102462e+03 1.027852980905175550e-03
1.241720860430214998e+03 1.069618986245888604e-03
1.242621310655327534e+03 1.096816999755054374e-03
1.243521760880440070e+03 1.103408201631974521e-03
1.244422211105552606e+03 1.104897856188442494e-03
1.245322661330665369e+03 1.125747770590036518e-03
1.246223111555777905e+03 1.164692297659299059e-03
1.247123561780890441e+03 1.209160865195482238e-03
1.248024012006002977e+03 1.250946111360722902e-03
1.248924462231115513e+03 1.284277786671002113e-03
1.249824912456228049e+03 1.310405020156281321e-03
1.250725362681340584e+03 1.325382001679364496e-03
1.251625812906453120e+03 1.335717949895473414e-03
1.252526263131565656e+03 1.358324302922883772e-03
1.253426713356678192e+03 1.393638469961217723e-03
1.254327163581790728e+03 1.427796952096495016e-03
1.255227613806903491e+03 1.457689418485185384e-03
1.256128064032016027e+03 1.474406807924439310e-03
1.257028514257128563e+03 1.473294865161784220e-03
1.257928964482241099e+03 1.461780852492320639e-03
1.258829414707353635e+03 1.453168267181426630e-03
1.259729864932466171e+03 1.454687063134347223e-03
1.260630315157578707e+03 1.455201368703901111e-03
1.261530765382691243e+03 1.451992696098410507e-03
1.262431215607803779e+03 1.459153205200227395e-03
1.263331665832916315e+03 1.481085193593334112e-03
1.264232116058028851e+03 1.519991210138717241e-03
1.265132566283141614e+03 1.560990237709547522e-03
1.266033016508254150e+03 1.596340241339307174e-03
1.266933466733366686e+03 1.630871855071698443e-03
1.267833916958479222e+03 1.664511869626323888e-03
1.268734367183591758e+03 1.694068217587608050e-03
1.269634817408704293e+03 1.721872157221232070e-03
1.270535267633816829e+03 1.737954699243840018e-03
1.271435717858929365e+03 1.744241264469175183e-03
1.272336168084041901e+03 1.751629741601134875e-03
1.273236618309154437e+03 1.760951408989831117e-03
1.274137068534266973e+03 1.778159825292074340e-03
1.275037518759379736e+03 1.799608073826484489e-03
1.275937968984492272e+03 1.826228143102824348e-03
1.276838419209604808e+03 1.862964853529956938e-03
1.277738869434717344e+03 1.899854087913955712e-03
1.278639319659829880e+03 1.943143917631815626e-03
1.279539769884942416e+03 2.006051647785435984e-03
1.280440220110054952e+03 2.087060990043089568e-03
1.281340670335167488e+03 2.163506167314882805e-03
1.282241120560280024e+03 2.227286432123617467e-03
1.283141570785392560e+03 2.283558608431619091e-03
1.284042021010505096e+03 2.330951572362520170e-03
1.284942471235617859e+03 2.382311247370165388e-03
1.285842921460730395e+03 2.446207580078651068e-03
1.286743371685842931e+03 2.498508065807263697e-03
1.287643821910955467e+03 2.520663901345562233e-03
1.288544272136068003e+03 2.525083621003081438e-03
1.289444722361180538e+03 2.529270750960811460e-03
1.290345172586293074e+03 2.552012918092068285e-03
1.291245622811405610e+03 2.576226096761495121e-03
1.292146073036518146e+03 2.573583651222071441e-03
1.293046523261630682e+03 2.574308383975727060e-03
1.293946973486743218e+03 2.604649596888037374e-03
1.294847423711855754e+03 2.651346811690242101e-03
1.295747873936968517e+03 2.701172535416143661e-03
1.296648324162081053e+03 2.755772727547789024e-03
1.297548774387193589e+03 2.819427387819891002e-03
1.298449224612306125e+03 2.905109090898352550e-03
1.299349674837418661e+03 2.996024778330995918e-03
1.300250125062531197e+03 3.081854995369487978e-03
1.301150575287643733e+03 3.175198678511683640e-03
1.302051025512756269e+03 3.252615322649019414e-03
1.302951475737868805e+03 3.310835802112089242e-03
1.303851925962981340e+03 3.346278192999703298e-03
1.304752376188093876e+03 3.397761464081984657e-03
1.305652826413206640e+03 3.496757818392431591e-03
1.306553276638319176e+03 3.631313666678767909e-03
1.307453726863431712e+03 3.777842794076425280e-03
1.308354177088544247e+03 3.907588560956692589e-03
1.309254627313656783e+03 4.030265147229427324e-03
1.310155077538769319e+03 4.146061924699590701e-03
1.311055527763881855e+03 4.284357198660036260e-03
1.311955977988994391e+03 4.477142364322114071e-03
1.312856428214106927e+03 4.705137888394813304e-03
1.313756878439219463e+03 4.944959414469042060e-03
1.314657328664331999e+03 5.130630431441801295e-03
1.315557778889444762e+03 5.216749571873193457e-03
1.316458229114557298e+03 5.255921081206666595e-03
1.317358679339669834e+03 5.302706747009370072e-03
1.318259129564782370e+03 5.401269453262652447e-03
1.319159579789894906e+03 5.548230102816404177e-03
1.320060030015007442e+03 5.736942607142613178e-03
1.320960480240119978e+03 5.985831590201314521e-03
1.321860930465232514e+03 6.234429210629521302e-03
1.322761380690345050e+03 6.447435407047758839e-03
1.323661830915457585e+03 6.672959738170749361e-03
1.324562281140570121e+03 6.915801550826934478e-03
1.325462731365682885e+03 7.101553715014535459e-03
1.326363181590795421e+03 7.235636523980310680e-03
1.327263631815907956e+03 7.357008745070415037e-03
1.328164082041020492e+03 7.472825451181763605e-03
1.329064532266133028e+03 7.597548542055556665e-03
1.329964982491245564e+03 7.760159731227789237e-03
1.330865432716358100e+03 8.006663435339211529e-03
1.331765882941470636e+03 8.294726053638606239e-03
1.332666333166583172e+03 8.587736171634694632e-03
1.333566783391695708e+03 8.938570172241706857e-03
1.334467233616808244e+03 9.316033359814783477e-03
1.335367683841921007e+03 9.643692567433716917e-03
1.336268134067033543e+03 9.904483424831463795e-03
1.337168584292146079e+03 1.021584816074298449e-02
1.338069034517258615e+03 1.057559548877801472e-02
1.338969484742371151e+03 1.090590633558412119e-02
1.339869934967483687e+03 1.113958959475323113e-02
1.340770385192596223e+03 1.121167729173773095e-02
1.341670835417708759e+03 1.122021720304965976e-02
1.342571285642821294e+03 1.133927268490581702e-02
1.343471735867933830e+03 1.156770541208065189e-02
1.344372186093046366e+03 1.184983795310441332e-02
1.345272636318158902e+03 1.220533916111637279e-02
1.346173086543271666e+03 1.256503002354591655e-02
1.347073536768384201e+03 1.293238477454971072e-02
1.347973986993496737e+03 1.338199906404028208e-02
1.348874437218609273e+03 1.384384114600038275e-02
1.349774887443721809e+03 1.430080617971521070e-02
1.350675337668834345e+03 1.470698358744921587e-02
1.351575787893946881e+03 1.498918544324876964e-02
1.352476238119059417e+03 1.536972924990261113e-02
1.353376688344171953e+03 1.618065185708662465e-02
1.354277138569284489e+03 1.723308563072182414e-02
1.355177588794397025e+03 1.818456700656294334e-02
1.356078039019509788e+03 1.896788819902485781e-02
1.356978489244622324e+03 1.935756795419753262e-02
1.357878939469734860e+03 1.928121064138895932e-02
1.358779389694847396e+03 1.909658768176009450e-02
1.359679839919959932e+03 1.898730328641235268e-02
1.360580290145072468e+03 1.918392858400728637e-02
1.361480740370185003e+03 1.969505483655475953e-02
1.362381190595297539e+03 2.023519045738831484e-02
1.363281640820410075e+03 2.046375513638319307e-02
1.364182091045522611e+03 2.034747382918223116e-02
1.365082541270635147e+03 2.010311654933166423e-02
1.365982991495747910e+03 1.983271520029007001e-02
1.366883441720860446e+03 1.971940293226966123e-02
1.367783891945972982e+03 1.974704909781616405e-02
1.368684342171085518e+03 1.968590458630795417e-02
1.369584792396198054e+03 1.951858221455534878e-02
1.370485242621310590e+03 1.937571881892788048e-02
1.371385692846423126e+03 1.934670592453425347e-02
1.372286143071535662e+03 1.960922903816684007e-02
1.373186593296648198e+03 2.016036013321661352e-02
1.374087043521760734e+03 2.074111916646568035e-02
1.374987493746873270e+03 2.134127016576942842e-02
1.375887943971986033e+03 2.181194460894314915e-02
1.376788394197098569e+03 2.170898714190331105e-02
1.377688844422211105e+03 2.102502999006439915e-02
1.378589294647323641e+03 2.012299550909847287e-02
1.379489744872436177e+03 1.921247748945459355e-02
1.380390195097548713e+03 1.839419523607755541e-02
1.381290645322661248e+03 1.794851656256778866e-02
1.382191095547773784e+03 1.784704832000642491e-02
1.383091545772886320e+03 1.784927679356975230e-02
1.383991995997998856e+03 1.773206530694097435e-02
1.384892446223111392e+03 1.741003409322664300e-02
1.385792896448224155e+03 1.686800587087445083e-02
1.386693346673336691e+03 1.624009683444933155e-02
1.387593796898449227e+03 1.563446886575998659e-02
1.388494247123561763e+03 1.506484245302960705e-02
1.389394697348674299e+03 1.452157901686415564e-02
1.390295147573786835e+03 1.399072619610737013e-02
1.391195597798899371e+03 1.353341698774264065e-02
1.392096048024011907e+03 1.319039234454663125e-02
1.392996498249124443e+03 1.297989115573112452e-02
1.393896948474236979e+03 1.285660818475935566e-02
1.394797398699349515e+03 1.274344017668966982e-02
1.395697848924462278e+03 1.263175051465202821e-02
1.396598299149574814e+03 1.247622097384123475e-02
1.397498749374687350e+03 1.226745671617988399e-02
1.398399199599799886e+03 1.213906148063694825e-02
1.399299649824912422e+03 1.209877124351644434e-02
1.400200100050024957e+03 1.195008425865343345e-02
1.401100550275137493e+03 1.156387322718533880e-02
1.402001000500250029e+03 1.098740669942756785e-02
1.402901450725362565e+03 1.042717566117521213e-02
1.403801900950475101e+03 1.002676755010484429e-02
1.404702351175587637e+03 9.765122211282360742e-03
1.405602801400700173e+03 9.507804164265044183e-03
1.406503251625812936e+03 9.247649350322351136e-03
1.407403701850925472e+03 8.940669431915465246e-03
1.408304152076038008e+03 8.545400738652422085e-03
1.409204602301150544e+03 8.187894909965683782e-03
1.410105052526263080e+03 7.924750625637098922e-03
1.411005502751375616e+03 7.734387565093946149e-03
1.411905952976488152e+03 7.636790376550853937e-03
1.412806403201600688e+03 7.464342645547793718e-03
1.413706853426713224e+03 7.217478557444132782e-03
1.414607303651825760e+03 7.062577236881342237e-03
1.415507753876938295e+03 6.947715805959406993e-03
1.416408204102051059e+03 6.799668582131055197e-03
1.417308654327163595e+03 6.558106936946016610e-03
1.418209104552276131e+03 6.241659079750739962e-03
1.419109554777388666e+03 5.923370374281976790e-03
1.420010005002501202e+03 5.649821605962534674e-03
1.420910455227613738e+03 5.438445884528070665e-03
1.421810905452726274e+03 5.311684311389048771e-03
1.422711355677838810e+03 5.287570539041767936e-03
1.423611805902951346e+03 5.342808525071494202e-03
1.424512256128063882e+03 5.414495596412857541e-03
1.425412706353176418e+03 5.365075051358488174e-03
1.426313156578289181e+03 5.125073568872270426e-03
1.427213606803401717e+03 4.874087279130098413e-03
1.428114057028514253e+03 4.753732902066036548e-03
1.429014507253626789e+03 4.713609547302298648e-03
1.429914957478739325e+03 4.634354280014072944e-03
1.430815407703851861e+03 4.495405255641550524e-03
1.431715857928964397e+03 4.365866202081175075e-03
1.432616308154076933e+03 4.243123729477248259e-03
1.433516758379189469e+03 4.099114661833757126e-03
1.434417208604302004e+03 3.986838982765074542e-03
1.435317658829414540e+03 3.888226699706558154e-03
1.436218109054527304e+03 3.731659386810348526e-03
1.437118559279639840e+03 3.551424235530270274e-03
1.438019009504752376e+03 3.403199435298300424e-03
1.438919459729864911e+03 3.252619961103400421e-03
1.439819909954977447e+03 3.089712794471665205e-03
1.440720360180089983e+03 2.960074202125048941e-03
1.441620810405202519e+03 2.871336051313106048e-03
1.442521260630315055e+03 2.809411143685409864e-03
1.443421710855427591e+03 2.760795790869303556e-03
1.444322161080540127e+03 2.730215080439963530e-03
1.445222611305652663e+03 2.717977573717523469e-03
1.446123061530765426e+03 2.690540951638438136e-03
1.447023511755877962e+03 2.633080840749289515e-03
1.447923961980990498e+03 2.571317584040990964e-03
1.448824412206103034e+03 2.498800903355065904e-03
1.449724862431215570e+03 2.406981831470206799e-03
1.450625312656328106e+03 2.329459480413943739e-03
1.451525762881440642e+03 2.277044653645245772e-03
1.452426213106553178e+03 2.235693314819743160e-03
1.453326663331665713e+03 2.205116070963077882e-03
1.454227113556778249e+03 2.193501990176538897e-03
1.455127563781890785e+03 2.169440423483798720e-03
1.456028014007003321e+03 2.111441033429110534e-03
1.456928464232116085e+03 2.057662980611136595e-03
1.457828914457228620e+03 2.020768930043343164e-03
1.458729364682341156e+03 1.999581019965898567e-03
1.459629814907453692e+03 1.977628910535228750e-03
1.460530265132566228e+03 1.944496458703570772e-03
1.461430715357678764e+03 1.910493595916708210e-03
1.462331165582791300e+03 1.867528963323775160e-03
1.463231615807903836e+03 1.830727683761374219e-03
1.464132066033016372e+03 1.824033124421579020e-03
1.465032516258128908e+03 1.816597424321899322e-03
1.465932966483241444e+03 1.786837918956479376e-03
1.466833416708354207e+03 1.751154139571016628e-03
1.467733866933466743e+03 1.710550835116473939e-03
1.468634317158579279e+03 1.680260747892618322e-03
1.469534767383691815e+03 1.655692680078255053e-03
1.470435217608804351e+03 1.628815095253365779e-03
1.471335667833916887e+03 1.602064308099102920e-03
1.472236118059029423e+03 1.594486289864444290e-03
1.473136568284141958e+03 1.603510137985944117e-03
1.474037018509254494e+03 1.607047520191137681e-03
1.474937468734367030e+03 1.601821871301194406e-03
1.475837918959479566e+03 1.609923881747935383e-03
1.476738369184592329e+03 1.645839516990629412e-03
1.477638819409704865e+03 1.687234711254936154e-03
1.478539269634817401e+03 1.698611994029354966e-03
1.479439719859929937e+03 1.696848393945412899e-03
1.480340170085042473e+03 1.694879516945513353e-03
1.481240620310155009e+03 1.681099859984693402e-03
1.482141070535267545e+03 1.661056704300210331e-03
1.483041520760380081e+03 1.643891188678491856e-03
1.483941970985492617e+03 1.623565957295985745e-03
1.484842421210605153e+03 1.597519582509856258e-03
1.485742871435717689e+03 1.563959248177255621e-03
1.486643321660830452e+03 1.518934988534878083e-03
1.487543771885942988e+03 1.462419199584932524e-03
1.488444222111055524e+03 1.408564150745511513e-03
1.489344672336168060e+03 1.382641754334848266e-03
1.490245122561280596e+03 1.387159309061390200e-03
1.491145572786393132e+03 1.398061538511601986e-03
1.492046023011505667e+03 1.396108386837720781e-03
1.492946473236618203e+03 1.376847143331600331e-03
1.493846923461730739e+03 1.346566608817140144e-03
1.494747373686843275e+03 1.317963711195495411e-03
1.495647823911955811e+03 1.304162780540859363e-03
1.496548274137068574e+03 1.281440814838206250e-03
1.497448724362181110e+03 1.228703108352597771e-03
1.498349174587293646e+03 1.171382281373541329e-03
1.499249624812406182e+03 1.145627631930109126e-03
1.500150075037518718e+03 1.144242986323462316e-03
1.501050525262631254e+03 1.144889467184100930e-03
1.501950975487743790e+03 1.136400250197271188e-03
1.502851425712856326e+03 1.114831844447349007e-03
1.503751875937968862e+03 1.087273890561591631e-03
1.504652326163081398e+03 1.057067798564920429e-03
1.505552776388193934e+03 1.042982374451955577e-03
1.506453226613306470e+03 1.047215482143551641e-03
1.507353676838419233e+03 1.055695278886160634e-03
1.508254127063531769e+03 1.061376397166093576e-03
1.509154577288644305e+03 1.054051188109278014e-03
1.510055027513756841e+03 1.026567917634253453e-03
1.510955477738869376e+03 9.698485938279879101e-04
1.511855927963981912e+03 9.129076494042617220e-04
1.512756378189094448e+03 8.773678346032585647e-04
1.513656828414206984e+03 8.551331460138438109e-04
1.514557278639319520e+03 8.503260771299570335e-04
1.515457728864432056e+03 8.619596062292813254e-04
1.516358179089544592e+03 8.692080710494159198e-04
1.517258629314657355e+03 8.714412182537420448e-04
1.518159079539769891e+03 8.700941303437660212e-04
1.519059529764882427e+03 8.528935436655684776e-04
1.519959979989994963e+03 8.237397335987324152e-04
1.520860430215107499e+03 7.983501419141534683e-04
1.521760880440220035e+03 7.906564486697580715e-04
1.522661330665332571e+03 7.979426699830960727e-04
1.523561780890445107e+03 7.993974853009129305e-04
1.524462231115557643e+03 8.030971903024201018e-04
1.525362681340670179e+03 8.035554538337756408e-04
1.526263131565782714e+03 7.891072545740073201e-04
1.527163581790895478e+03 7.748850194101476480e-04
1.528064032016008014e+03 7.702259577533316455e-04
1.528964482241120550e+03 7.652406304312683177e-04
1.529864932466233086e+03 7.531036496924206061e-04
1.530765382691345621e+03 7.365955055916430325e-04
1.531665832916458157e+03 7.239882495196471937e-04
1.532566283141570693e+03 7.133573664568557127e-04
1.533466733366683229e+03 6.796877223060902645e-04
1.534367183591795765e+03 6.198344401407562950e-04
1.535267633816908301e+03 5.588485102609606816e-04
1.536168084042020837e+03 5.169509207090276434e-04
1.537068534267133600e+03 4.795670256558544732e-04
1.537968984492246136e+03 4.318652809272753926e-04
1.538869434717358672e+03 3.811885901591819639e-04
1.539769884942471208e+03 3.402735013264450241e-04
1.540670335167583744e+03 3.058802267158104780e-04
1.541570785392696280e+03 2.675241375393704588e-04
1.542471235617808816e+03 2.373214039421111512e-04
1.543371685842921352e+03 2.236616173064644348e-04
1.544272136068033888e+03 2.124246566102457056e-04
1.545172586293146423e+03 1.916335761305569714e-04
1.546073036518258959e+03 1.708153412713783953e-04
1.546973486743371723e+03 1.611405704327718380e-04
1.547873936968484259e+03 1.612063609718573324e-04
1.548774387193596795e+03 1.605197753353258892e-04
1.549674837418709330e+03 1.522896873528076787e-04
1.550575287643821866e+03 1.376019495842367897e-04
1.551475737868934402e+03 1.188181281339957231e-04
1.552376188094046938e+03 1.039859938743586547e-04
1.553276638319159474e+03 9.543843529852925412e-05
1.554177088544272010e+03 9.201763464163665739e-05
1.555077538769384546e+03 9.098241856588008011e-05
1.555977988994497082e+03 8.678213884174418302e-05
1.556878439219609618e+03 7.941671240723873751e-05
1.557778889444722381e+03 7.332671475319464151e-05
1.558679339669834917e+03 6.899661154162682857e-05
1.559579789894947453e+03 6.516048983761646559e-05
1.560480240120059989e+03 6.179617892001999704e-05
1.561380690345172525e+03 5.921064682329132294e-05
1.562281140570285061e+03 5.731918867870948139e-05
1.563181590795397597e+03 5.603295760178027594e-05
1.564082041020510133e+03 5.533946202960358165e-05
1.564982491245622668e+03 5.495511703265609988e-05
1.565882941470735204e+03 5.388205966354731312e-05
1.566783391695847740e+03 5.203920354957833019e-05
1.567683841920960504e+03 5.043667194688400841e-05
1.568584292146073039e+03 4.938619209445886763e-05
1.569484742371185575e+03 4.880690243822001761e-05
1.570385192596298111e+03 4.864397147394781696e-05
1.571285642821410647e+03 4.865769985845615957e-05
1.572186093046523183e+03 4.857895904808305659e-05
1.573086543271635719e+03 4.900005901454414507e-05
1.573986993496748255e+03 4.982358854185000094e-05
1.574887443721860791e+03 4.959928216458920345e-05
1.575787893946973327e+03 4.881561033689367485e-05
1.576688344172085863e+03 4.863630072336232245e-05
1.577588794397198626e+03 4.792390258304266346e-05
1.578489244622311162e+03 4.627863563013219397e-05
1.579389694847423698e+03 4.467638257248917466e-05
1.580290145072536234e+03 4.270231435142432487e-05
1.581190595297648770e+03 4.056666904428193475e-05
1.582091045522761306e+03 3.890655305179555913e-05
1.582991495747873842e+03 3.771557880799172321e-05
1.583891945972986377e+03 3.683235270186811409e-05
1.584792396198098913e+03 3.615203759350438180e-05
1.585692846423211449e+03 3.562688909494954662e-05
1.586593296648323985e+03 3.525059067190037127e-05
1.587493746873436749e+03 3.505561586874187107e-05
1.588394197098549284e+03 3.511192923412634174e-05
1.589294647323661820e+03 3.544637822965278340e-05
1.590195097548774356e+03 3.581563884421168418e-05
1.591095547773886892e+03 3.612781597547634334e-05
1.591995997998999428e+03 3.663285484187535725e-05
1.592896448224111964e+03 3.635203166656763630e-05
1.593796898449224500e+03 3.472462662733159528e-05
1.594697348674337036e+03 3.303381196450806749e-05
1.595597798899449572e+03 3.182559953125243694e-05
1.596498249124562108e+03 3.098827562453673929e-05
1.597398699349674871e+03 3.037534271363200578e-05
1.598299149574787407e+03 2.990289382761939811e-05
1.599199599799899943e+03 2.953080036698612008e-05
1.600100050025012479e+03 2.924559942913323440e-05
1.601000500250125015e+03 2.905427192046782520e-05
1.601900950475237551e+03 2.898732221026894583e-05
1.602801400700350086e+03 2.911264514355144356e-05
1.603701850925462622e+03 2.956312665499207827e-05
1.604602301150575158e+03 3.055000527099550385e-05
1.605502751375687694e+03 3.210608976262286556e-05
1.606403201600800230e+03 3.302149987074425171e-05
1.607303651825912766e+03 3.169554383676661586e-05
1.608204102051025529e+03 2.954550849971470256e-05
1.609104552276138065e+03 2.792493526864049382e-05
1.610005002501250601e+03 2.685330119241931108e-05
1.610905452726363137e+03 2.611342517484848284e-05
1.611805902951475673e+03 2.556119770885469764e-05
1.612706353176588209e+03 2.511846676412785652e-05
1.613606803401700745e+03 2.474314192424746696e-05
1.614507253626813281e+03 2.441169670906636526e-05
1.615407703851925817e+03 2.411036018711837297e-05
1.616308154077038353e+03 2.383069910573168992e-05
1.617208604302150889e+03 2.356732988558728813e-05
1.618109054527263652e+03 2.331668447622310838e-05
1.619009504752376188e+03 2.307631692260499816e-05
1.619909954977488724e+03 2.284449856259270628e-05
1.620810405202601260e+03 2.261997333187429828e-05
1.621710855427713796e+03 2.240180511631708159e-05
1.622611305652826331e+03 2.218927978304168877e-05
1.623511755877938867e+03 2.198184067220864996e-05
1.624412206103051403e+03 2.177904512487403803e-05
1.625312656328163939e+03 2.158053456366699314e-05
1.626213106553276475e+03 2.138601350186442640e-05
1.627113556778389011e+03 2.119523455520905625e-05
1.628014007003501774e+03 2.100798756534629329e-05
1.628914457228614310e+03 2.082409158811514968e-05
1.629814907453726846e+03 2.064338890969963302e-05
1.630715357678839382e+03 2.046574051925521411e-05
1.631615807903951918e+03 2.029102264185747397e-05
1.632516258129064454e+03 2.011912405314995967e-05
1.633416708354176990e+03 1.994994397708892825e-05
1.634317158579289526e+03 1.978339042344948382e-05
1.635217608804402062e+03 1.961937886043772515e-05
1.636118059029514598e+03 1.945783114515364762e-05
1.637018509254627133e+03 1.929867465429060784e-05
1.637918959479739897e+03 1.914184157168992144e-05
1.638819409704852433e+03 1.898726829978612850e-05
1.639719859929964969e+03 1.883489496967602519e-05
1.640620310155077505e+03 1.868466503029107568e-05
1.641520760380190040e+03 1.853652490147003035e-05
1.642421210605302576e+03 1.839042367900714235e-05
1.643321660830415112e+03 1.824631288225586159e-05
1.644222111055527648e+03 1.810414623679424800e-05
1.645122561280640184e+03 1.796387948615892581e-05
1.646023011505752720e+03 1.782547022781488333e-05
1.646923461730865256e+03 1.768887776945300962e-05
1.647823911955978019e+03 1.755406300242538464e-05
1.648724362181090555e+03 1.742098828971075204e-05
1.649624812406203091e+03 1.728961736625776242e-05
1.650525262631315627e+03 1.715991524993055840e-05
1.651425712856428163e+03 1.703184816157310655e-05
1.652326163081540699e+03 1.690538345296000900e-05
1.653226613306653235e+03 1.678048954159186656e-05
1.654127063531765771e+03 1.665713585146388762e-05
1.655027513756878307e+03 1.653529275906303491e-05
1.655927963981990843e+03 1.641493154396505929e-05
1.656828414207103378e+03 1.629602434349329698e-05
1.657728864432216142e+03 1.617854411097613380e-05
1.658629314657328678e+03 1.606246457720756171e-05
1.659529764882441214e+03 1.594776021476644782e-05
1.660430215107553749e+03 1.583440620489701765e-05
1.661330665332666285e+03 1.572237840669236329e-05
1.662231115557778821e+03 1.561165332835384300e-05
1.663131565782891357e+03 1.550220810032872559e-05
1.664032016008003893e+03 1.539402045015166525e-05
1.664932466233116429e+03 1.528706867883625341e-05
1.665832916458228965e+03 1.518133163868181368e-05
1.666733366683341501e+03 1.507678871237233190e-05
1.667633816908454037e+03 1.497341979326340923e-05
1.668534267133566800e+03 1.487120526675856233e-05
1.669434717358679336e+03 1.477012599269124294e-05
1.670335167583791872e+03 1.467016328863356241e-05
1.671235617808904408e+03 1.457129891406491557e-05
1.672136068034016944e+03 1.447351505533574997e-05
1.673036518259129480e+03 1.437679431137071196e-05
1.673936968484242016e+03 1.428111968006144861e-05
1.674837418709354552e+03 1.418647454529953618e-05
1.675737868934467087e+03 1.409284266461008030e-05
1.676638319159579623e+03 1.400020815734509484e-05
1.677538769384692159e+03 1.390855549340291868e-05
1.678439219609804923e+03 1.381786948243993316e-05
1.679339669834917459e+03 1.372813526354605548e-05
1.680240120060029994e+03 1.363933829535467356e-05
1.681140570285142530e+03 1.355146434656454897e-05
1.682041020510255066e+03 1.346449948684761109e-05
1.682941470735367602e+03 1.337843007812316255e-05
1.683841920960480138e+03 1.329324276617668299e-05
1.684742371185592674e+03 1.320892447260673617e-05
1.685642821410705210e+03 1.312546238708039696e-05
1.686543271635817746e+03 1.304284395988394388e-05
1.687443721860930282e+03 1.296105689475109037e-05
1.688344172086043045e+03 1.288008914195612744e-05
1.689244622311155581e+03 1.279992889165997327e-05
1.690145072536268117e+03 1.272056456749465594e-05
1.691045522761380653e+03 1.264198482037632894e-05
1.691945972986493189e+03 1.256417852253594372e-05
1.692846423211605725e+03 1.248713476175750966e-05
1.693746873436718261e+03 1.241084283581373809e-05
1.694647323661830796e+03 1.233529224709075939e-05
1.695547773886943332e+03 1.226047269739408137e-05
1.696448224112055868e+03 1.218637408292701543e-05
1.697348674337168404e+03 1.211298648943389804e-05
1.698249124562281168e+03 1.204030018750239016e-05
1.699149574787393703e+03 1.196830562801698885e-05
1.700050025012506239e+03 1.189699343775707677e-05
1.700950475237618775e+03 1.182635441513583983e-05
1.701850925462731311e+03 1.175637952607170330e-05
1.702751375687843847e+03 1.168705989998776641e-05
1.703651825912956383e+03 1.161838682593578799e-05
1.704552276138068919e+03 1.155035174883719833e-05
1.705452726363181455e+03 1.148294626583813508e-05
1.706353176588293991e+03 1.141616212277504752e-05
1.707253626813406527e+03 1.134999121074342202e-05
1.708154077038519290e+03 1.128442556276959813e-05
1.709054527263631826e+03 1.121945735057900587e-05
1.709954977488744362e+03 1.115507888145904366e-05
1.710855427713856898e+03 1.109128259521137927e-05
1.711755877938969434e+03 1.102806106119257423e-05
1.712656328164081970e+03 1.096540697543776830e-05
1.713556778389194506e+03 1.090331315786634662e-05
1.714457228614307041e+03 1.084177254956478670e-05
1.715357678839419577e+03 1.078077821014550133e-05
1.716258129064532113e+03 1.072032331517870919e-05
1.717158579289644649e+03 1.066040115369435005e-05
1.718059029514757185e+03 1.060100512575180154e-05
1.718959479739869948e+03 1.054212874007558319e-05
1.719859929964982484e+03 1.048376561175427964e-05
1.720760380190095020e+03 1.042590946000075175e-05
1.721660830415207556e+03 1.036855410597196352e-05
1.722561280640320092e+03 1.031169347064558916e-05
1.723461730865432628e+03 1.025532157275277660e-05
1.724362181090545164e+03 1.019943252676445884e-05
1.725262631315657700e+03 1.014402054092856851e-05
1.726163081540770236e+03 1.008907991535979395e-05
1.727063531765882772e+03 1.003460504017576113e-05
1.727963981990995308e+03 9.980590393681853880e-06
1.728864432216108071e+03 9.927030540601431747e-06
1.729764882441220607e+03 9.873920130350010522e-06
1.730665332666333143e+03 9.821253895353080214e-06
1.731565782891445679e+03 9.769026649404690725e-06
1.732466233116558215e+03 9.717233286067294805e-06
1.733366683341670750e+03 9.665868777110335987e-06
1.734267133566783286e+03 9.614928170986802234e-06
1.735167583791895822e+03 9.564406591346672951e-06
1.736068034017008358e+03 9.514299235586434354e-06
1.736968484242120894e+03 9.464601373432804810e-06
1.737868934467233430e+03 9.415308345560659975e-06
1.738769384692346193e+03 9.366415562243585638e-06
1.739669834917458729e+03 9.317918502035721668e-06
1.740570285142571265e+03 9.269812710485566195e-06
1.741470735367683801e+03 9.222093798878419675e-06
1.742371185592796337e+03 9.174757443009227276e-06
1.743271635817908873e+03 9.127799381982851571e-06
1.744172086043021409e+03 9.081215417042546356e-06
1.745072536268133945e+03 9.035001410424366608e-06
1.745972986493246481e+03 8.989153284239057893e-06
1.746873436718359017e+03 8.943667019377301853e-06
1.747773886943471553e+03 8.898538654441297648e-06
1.748674337168584316e+03 8.853764284699458924e-06
1.749574787393696852e+03 8.809340061064334731e-06
1.750475237618809388e+03 8.765262189093717121e-06
1.751375687843921924e+03 8.721526928013437872e-06
1.752276138069034459e+03 8.678130589761684927e-06
1.753176588294146995e+03 8.635069538054303238e-06
1.754077038519259531e+03 8.592340187470360010e-06
1.754977488744372067e+03 8.549939002557757539e-06
1.755877938969484603e+03 8.507862496957751806e-06
1.756778389194597139e+03 8.466107232548697047e-06
1.757678839419709675e+03 8.424669818607786361e-06
1.758579289644822438e+03 8.383546910990910374e-06
1.759479739869934974e+03 8.342735211329502286e-06
1.760380190095047510e+03 8.302231466244711531e-06
1.761280640320160046e+03 8.262032466578279218e-06
1.762181090545272582e+03 8.222135046638340004e-06
1.763081540770385118e+03 8.182536083462757531e-06
1.763981990995497654e+03 8.143232496096115743e-06
1.764882441220610190e+03 8.104221244882524300e-06
1.765782891445722726e+03 8.065499330772645678e-06
1.766683341670835262e+03 8.027063794645055756e-06
1.767583791895947797e+03 7.988911716641424604e-06
1.768484242121060333e+03 7.951040215514885558e-06
1.769384692346173097e+03 7.913446447992456586e-06
1.770285142571285633e+03 7.876127608149116819e-06
1.771185592796398169e+03 7.839080926795366153e-06
1.772086043021510704e+03 7.802303670876526426e-06
1.772986493246623240e+03 7.765793142884493979e-06
1.773886943471735776e+03 7.729546680280505329e-06
1.774787393696848312e+03 7.693561654929663066e-06
1.775687843921960848e+03 7.657835472546820443e-06
1.776588294147073384e+03 7.622365572152780298e-06
1.777488744372185920e+03 7.587149425541661257e-06
1.778389194597298456e+03 7.552184536758009893e-06
1.779289644822411219e+03 7.517468441584632091e-06
1.780190095047523755e+03 7.482998707040084821e-06
1.781090545272636291e+03 7.448772930885657229e-06
1.781990995497748827e+03 7.414788741141906246e-06
1.782891445722861363e+03 7.381043795614674742e-06
1.783791895947973899e+03 7.347535781429668100e-06
1.784692346173086435e+03 7.314262414576132996e-06
1.785592796398198971e+03 7.281221439459198801e-06
1.786493246623311506e+03 7.248410628460259004e-06
1.787393696848424042e+03 7.215827781506169412e-06
1.788294147073536578e+03 7.183470725645951056e-06
1.789194597298649342e+03 7.151337314635699156e-06
1.790095047523761878e+03 7.119425428530846021e-06
1.790995497748874413e+03 7.087732973286513121e-06
1.791895947973986949e+03 7.056257880364594521e-06
1.792796398199099485e+03 7.024998106348524608e-06
1.793696848424212021e+03 6.993951632564689086e-06
1.794597298649324557e+03 6.963116464711106912e-06
1.795497748874437093e+03 6.932490632492637767e-06
1.796398199099549629e+03 6.902072189262646464e-06
1.797298649324662165e+03 6.871859211671634198e-06
1.798199099549774701e+03 6.841849799321434805e-06
1.799099549774887464e+03 6.812042074426430383e-06
1.800000000000000000e+03 6.782434181480032065e-06
