0.000000000000000000e+00 8.077040392580438818e-04
9.004502251125562351e-01 1.177952300500864549e-03
1.800900450225112470e+00 1.795247390545955416e-03
2.701350675337668594e+00 2.736061010710585766e-03
3.601800900450224940e+00 3.654481761750402995e-03
4.502251125562780842e+00 3.820845359694474089e-03
5.402701350675337189e+00 3.320268450049927798e-03
6.303151575787893535e+00 2.426306283485667268e-03
7.203601800900449881e+00 1.606627738079348952e-03
8.104052026013006227e+00 1.073325248721457466e-03
9.004502251125561685e+00 7.486636958167185857e-04
9.904952476238118919e+00 5.439026827128657033e-04
1.080540270135067438e+01 4.099542250698335645e-04
1.170585292646323161e+01 3.191338535123845570e-04
1.260630315157578707e+01 2.552051838020833558e-04
1.350675337668834430e+01 2.086652027200898147e-04
1.440720360180089976e+01 1.738112000198365023e-04
1.530765382691345522e+01 1.470986119781811775e-04
1.620810405202601245e+01 1.262673841202851697e-04
1.710855427713856969e+01 1.098451780633153974e-04
1.800900450225112337e+01 9.678880161361512263e-05
1.890945472736368060e+01 8.599717585729621050e-05
1.980990495247623784e+01 7.639562066938362158e-05
2.071035517758879507e+01 6.795230574228929032e-05
2.161080540270134875e+01 6.083743994827872225e-05
2.251125562781390599e+01 5.486378194293830299e-05
2.341170585292646322e+01 4.978926212027137764e-05
2.431215607803901690e+01 4.542727967528719209e-05
2.521260630315157414e+01 4.164181627730434535e-05
2.611305652826413137e+01 3.833341442621392755e-05
2.701350675337668861e+01 3.542772369527444771e-05
2.791395697848924229e+01 3.286833681051843113e-05
2.881440720360179952e+01 3.061407415559531513e-05
2.971485742871435676e+01 2.863374895093765687e-05
3.061530765382691044e+01 2.688030646510187520e-05
3.151575787893946767e+01 2.526712650745248034e-05
3.241620810405202491e+01 2.373804746788132583e-05
3.331665832916458214e+01 2.232380770890826416e-05
3.421710855427713938e+01 2.107212238053465873e-05
3.511755877938969661e+01 2.000370648604952054e-05
3.601800900450224674e+01 1.912421564746544917e-05
3.691845922961480397e+01 1.837866977602928823e-05
3.781890945472736121e+01 1.754230926272338359e-05
3.871935967983991844e+01 1.653734453043683141e-05
3.961980990495247568e+01 1.558265464933751725e-05
4.052026013006503291e+01 1.476415094049745434e-05
4.142071035517759015e+01 1.406035152991862409e-05
4.232116058029014027e+01 1.344525513074730447e-05
4.322161080540269751e+01 1.290522220073176000e-05
4.412206103051525474e+01 1.243737653851322059e-05
4.502251125562781198e+01 1.204960399222157438e-05
4.592296148074036921e+01 1.176489453100477003e-05
4.682341170585292645e+01 1.163026215549945244e-05
4.772386193096548368e+01 1.171331933366279045e-05
4.862431215607803381e+01 1.198969915672514794e-05
4.952476238119059104e+01 1.205396796627093891e-05
5.042521260630314828e+01 1.142876204568017934e-05
5.132566283141570551e+01 1.052124937179533832e-05
5.222611305652826275e+01 9.824775208453782869e-06
5.312656328164081998e+01 9.373667802354382936e-06
5.402701350675337721e+01 9.099353209481538717e-06
5.492746373186592734e+01 8.965356807282026690e-06
5.582791395697848458e+01 8.811790747038265200e-06
5.672836418209104181e+01 8.446589998380280609e-06
5.762881440720359905e+01 8.033871496409772736e-06
5.852926463231615628e+01 7.748924727200482595e-06
5.942971485742871351e+01 7.620420514612743216e-06
6.033016508254127075e+01 7.634091387624623786e-06
6.123061530765382088e+01 7.672350336474642387e-06
6.213106553276637811e+01 7.546393202601980367e-06
6.303151575787893535e+01 7.329056021054643236e-06
6.393196598299149258e+01 7.226982456807159190e-06
6.483241620810404982e+01 7.231569617064823156e-06
6.573286643321659994e+01 7.296243881075209705e-06
6.663331665832916428e+01 7.414139035052574616e-06
6.753376688344171441e+01 7.231192374205683294e-06
6.843421710855427875e+01 6.673727634012399105e-06
6.933466733366682888e+01 6.147801149996812584e-06
7.023511755877939322e+01 5.797916549436105714e-06
7.113556778389194335e+01 5.591836980170561386e-06
7.203601800900449348e+01 5.498361578205289356e-06
7.293646823411705782e+01 5.499943320806818444e-06
7.383691845922960795e+01 5.527719017005537355e-06
7.473736868434217229e+01 5.451546764428220937e-06
7.563781890945472242e+01 5.297993365895418328e-06
7.653826913456728676e+01 5.217264820438653668e-06
7.743871935967983688e+01 5.279796485830443487e-06
7.833916958479238701e+01 5.521353147244730436e-06
7.923961980990495135e+01 5.932451307529083914e-06
8.014007003501750148e+01 6.367072666361709479e-06
8.104052026013006582e+01 6.638346377402365665e-06
8.194097048524261595e+01 6.529392774692833936e-06
8.284142071035518029e+01 6.077220810293450243e-06
8.374187093546773042e+01 5.723308216947406413e-06
8.464232116058028055e+01 5.581024072363022741e-06
8.554277138569284489e+01 5.396603022414494177e-06
8.644322161080539502e+01 5.029530512004291509e-06
8.734367183591795936e+01 4.695079130390843500e-06
8.824412206103050949e+01 4.526241100679439409e-06
8.914457228614307382e+01 4.530914151151649690e-06
9.004502251125562395e+01 4.718765662977441069e-06
9.094547273636817408e+01 5.063874438809451518e-06
9.184592296148073842e+01 5.337272802493155222e-06
9.274637318659328855e+01 5.246034063519213244e-06
9.364682341170585289e+01 4.937939549067078209e-06
9.454727363681840302e+01 4.768889036100640881e-06
9.544772386193096736e+01 4.817685090922367600e-06
9.634817408704351749e+01 4.944070634596388073e-06
9.724862431215606762e+01 5.094024525074505633e-06
9.814907453726863196e+01 5.263964174527438709e-06
9.904952476238118209e+01 5.272946452788830241e-06
9.994997498749374643e+01 4.990658434344149612e-06
1.008504252126062966e+02 4.656473866508272364e-06
1.017508754377188609e+02 4.494950980325844053e-06
1.026513256628314110e+02 4.463648620231571714e-06
1.035517758879439612e+02 4.395077287115979084e-06
1.044522261130565255e+02 4.273157488997694661e-06
1.053526763381690756e+02 4.215633722862618418e-06
1.062531265632816400e+02 4.210972523303215309e-06
1.071535767883941901e+02 4.292100532435943906e-06
1.080540270135067544e+02 4.515802674075687677e-06
1.089544772386193046e+02 4.877430787306288030e-06
1.098549274637318547e+02 5.246719798050244428e-06
1.107553776888444190e+02 5.391516159729415464e-06
1.116558279139569692e+02 5.337306618517887584e-06
1.125562781390695335e+02 5.370279226164686804e-06
1.134567283641820836e+02 5.485102339947984368e-06
1.143571785892946480e+02 5.503132395924957196e-06
1.152576288144071981e+02 5.488867956413376952e-06
1.161580790395197482e+02 5.522985651046896018e-06
1.170585292646323126e+02 5.360446839718856251e-06
1.179589794897448627e+02 4.934991070666651542e-06
1.188594297148574270e+02 4.646541159678880196e-06
1.197598799399699772e+02 4.675302854833478223e-06
1.206603301650825415e+02 4.914423900927425475e-06
1.215607803901950916e+02 5.073628535881230073e-06
1.224612306153076418e+02 4.890861947136037062e-06
1.233616808404202061e+02 4.484058866722697459e-06
1.242621310655327562e+02 4.154367187337949274e-06
1.251625812906453206e+02 4.005487978186573651e-06
1.260630315157578707e+02 4.054677738009837270e-06
1.269634817408704350e+02 4.276317570198539473e-06
1.278639319659829852e+02 4.530466511509589671e-06
1.287643821910955353e+02 4.703994817801110554e-06
1.296648324162080996e+02 4.841021248699442434e-06
1.305652826413206640e+02 5.046696791487924230e-06
1.314657328664331999e+02 5.271739734725624535e-06
1.323661830915457642e+02 5.391426748336476003e-06
1.332666333166583286e+02 5.440675920817049842e-06
1.341670835417708929e+02 5.402802050164183563e-06
1.350675337668834288e+02 5.196886463445185142e-06
1.359679839919959932e+02 5.103203443129449086e-06
1.368684342171085575e+02 5.403306262015588432e-06
1.377688844422210934e+02 5.931276147275813671e-06
1.386693346673336578e+02 6.291979854597193847e-06
1.395697848924462221e+02 6.217702963411317974e-06
1.404702351175587864e+02 5.717260184353070301e-06
1.413706853426713224e+02 5.131902758723451682e-06
1.422711355677838867e+02 4.790427020300529922e-06
1.431715857928964510e+02 4.757688288689111349e-06
1.440720360180089870e+02 4.887863282900079903e-06
1.449724862431215513e+02 5.110787465677982114e-06
1.458729364682341156e+02 5.480461802919968003e-06
1.467733866933466800e+02 5.958822280865523627e-06
1.476738369184592159e+02 6.345635354548252231e-06
1.485742871435717802e+02 6.477640244387023236e-06
1.494747373686843446e+02 6.491450598874070413e-06
1.503751875937968805e+02 6.499268612275310097e-06
1.512756378189094448e+02 6.336353411605915380e-06
1.521760880440220092e+02 6.070286820556003625e-06
1.530765382691345735e+02 5.820841502200049930e-06
1.539769884942471094e+02 5.747121867112786901e-06
1.548774387193596738e+02 6.000721081731022169e-06
1.557778889444722381e+02 6.400819727843331275e-06
1.566783391695847740e+02 6.836795141351544479e-06
1.575787893946973384e+02 7.396473557933392128e-06
1.584792396198099027e+02 7.982510052015230346e-06
1.593796898449224670e+02 8.260706243634731175e-06
1.602801400700350030e+02 8.083226189607866405e-06
1.611805902951475673e+02 7.722645652313133238e-06
1.620810405202601316e+02 7.482162224461939893e-06
1.629814907453726676e+02 7.252862927700599936e-06
1.638819409704852319e+02 6.980361300515473675e-06
1.647823911955977962e+02 6.857481033124238671e-06
1.656828414207103606e+02 6.873099338816057194e-06
1.665832916458228965e+02 6.907590401745482122e-06
1.674837418709354608e+02 7.031739457358041920e-06
1.683841920960480252e+02 7.192869321276977423e-06
1.692846423211605611e+02 7.102628954276632680e-06
1.701850925462731254e+02 6.808069223747985933e-06
1.710855427713856898e+02 6.618657281681892213e-06
1.719859929964982541e+02 6.621664266267285726e-06
1.728864432216107900e+02 6.695609212822966901e-06
1.737868934467233544e+02 6.803538113789144847e-06
1.746873436718359187e+02 6.962425023332905403e-06
1.755877938969484546e+02 7.077434242038216124e-06
1.764882441220610190e+02 7.136074711372319702e-06
1.773886943471735833e+02 7.093071520052709095e-06
1.782891445722861476e+02 7.070623337556690344e-06
1.791895947973986836e+02 7.231563634303071292e-06
1.800900450225112479e+02 7.525531480330909558e-06
1.809904952476238122e+02 7.654586437372504107e-06
1.818909454727363482e+02 7.456564696648857462e-06
1.827913956978489125e+02 7.306468610695589073e-06
1.836918459229614768e+02 7.362597066473874041e-06
1.845922961480740412e+02 7.473691163476605468e-06
1.854927463731865771e+02 7.573093619642919399e-06
1.863931965982991414e+02 7.757711946751702134e-06
1.872936468234117058e+02 8.068282398801608475e-06
1.881940970485242417e+02 8.143291929527207997e-06
1.890945472736368060e+02 7.917423492595973951e-06
1.899949974987493704e+02 7.623065490528874540e-06
1.908954477238619347e+02 7.445867825713748720e-06
1.917958979489744706e+02 7.421962362480497115e-06
1.926963481740870350e+02 7.463250287936569364e-06
1.935967983991995993e+02 7.572283174381394862e-06
1.944972486243121352e+02 7.860636748150118451e-06
1.953976988494246996e+02 8.195603936265960534e-06
1.962981490745372639e+02 8.380329409895393764e-06
1.971985992996498283e+02 8.501107729992373843e-06
1.980990495247623642e+02 8.483716969037447133e-06
1.989994997498749285e+02 8.133057208637048285e-06
1.998999499749874929e+02 7.532301275410545371e-06
2.008004002001000288e+02 6.955670368782946684e-06
2.017008504252125931e+02 6.553623566995773166e-06
2.026013006503251574e+02 6.441341067520146474e-06
2.035017508754377218e+02 6.453741410051546836e-06
2.044022011005502577e+02 6.356490817672898303e-06
2.053026513256628220e+02 6.303742911163585577e-06
2.062031015507753864e+02 6.501664869217675907e-06
2.071035517758879223e+02 6.929903505926780925e-06
2.080040020010004866e+02 7.444430091956057341e-06
2.089044522261130510e+02 7.881842434581703321e-06
2.098049024512256153e+02 8.231210462792194453e-06
2.107053526763381512e+02 8.604308918229403936e-06
2.116058029014507156e+02 8.860784426458201605e-06
2.125062531265632799e+02 8.927219553125243922e-06
2.134067033516758158e+02 8.764375488453079107e-06
2.143071535767883802e+02 8.529752444925590087e-06
2.152076038019009445e+02 8.272859904363368929e-06
2.161080540270135089e+02 7.948793632382460583e-06
2.170085042521260448e+02 7.701437295896912966e-06
2.179089544772386091e+02 7.596665662253050031e-06
2.188094047023511735e+02 7.402818968181508010e-06
2.197098549274637094e+02 7.180340907038583986e-06
2.206103051525762737e+02 7.157715899741223563e-06
2.215107553776888381e+02 7.389546780634318421e-06
2.224112056028014024e+02 7.556975125085975645e-06
2.233116558279139383e+02 7.486214702919847891e-06
2.242121060530265027e+02 7.387010118553630291e-06
2.251125562781390670e+02 7.450864258440125774e-06
2.260130065032516029e+02 7.880283893065692996e-06
2.269134567283641672e+02 8.559870536337896521e-06
2.278139069534767316e+02 9.125708764582633054e-06
2.287143571785892959e+02 9.414730822683267639e-06
2.296148074037018318e+02 9.634727758532373286e-06
2.305152576288143962e+02 9.936441503027463934e-06
2.314157078539269605e+02 1.019651862838795542e-05
2.323161580790394964e+02 1.023277174690988903e-05
2.332166083041520608e+02 1.000729082557169298e-05
2.341170585292646251e+02 9.668942117699249494e-06
2.350175087543771895e+02 9.302234361662531470e-06
2.359179589794897254e+02 8.935816786959782106e-06
2.368184092046022897e+02 8.505145904544018524e-06
2.377188594297148541e+02 8.115920520083312874e-06
2.386193096548273900e+02 7.866196017731096602e-06
2.395197598799399543e+02 7.808100783996523912e-06
2.404202101050525187e+02 8.027115979794329103e-06
2.413206603301650830e+02 8.434550531260591287e-06
2.422211105552776189e+02 8.828213471881487577e-06
2.431215607803901833e+02 9.110399902483034846e-06
2.440220110055027476e+02 9.389779640691308608e-06
2.449224612306152835e+02 9.671252776096452336e-06
2.458229114557278479e+02 9.813742413233111263e-06
2.467233616808404122e+02 9.808687552784088606e-06
2.476238119059529765e+02 9.884473779391419687e-06
2.485242621310655124e+02 1.008004940456420707e-05
2.494247123561780768e+02 9.984644603369174432e-06
2.503251625812906411e+02 9.428897418728532406e-06
2.512256128064031770e+02 8.766477123940098965e-06
2.521260630315157414e+02 8.315813589336234094e-06
2.530265132566283057e+02 8.196845263313756670e-06
2.539269634817408701e+02 8.269424734104278347e-06
2.548274137068534060e+02 8.496390912036803312e-06
2.557278639319659703e+02 8.943469439729170644e-06
2.566283141570785347e+02 9.534429112316987972e-06
2.575287643821910706e+02 9.920393675765566964e-06
2.584292146073036633e+02 1.001098416848270598e-05
2.593296648324161993e+02 1.016137990745718930e-05
2.602301150575287352e+02 1.045406952171341209e-05
2.611305652826413279e+02 1.045822032813171800e-05
2.620310155077538639e+02 1.008316776635091097e-05
2.629314657328663998e+02 9.774673236035542022e-06
2.638319159579789925e+02 9.710600097726512515e-06
2.647323661830915285e+02 9.673669779334217157e-06
2.656328164082040644e+02 9.615232968454960898e-06
2.665332666333166571e+02 9.597688719730424332e-06
2.674337168584291931e+02 9.546483594291818505e-06
2.683341670835417858e+02 9.475480792048907627e-06
2.692346173086543217e+02 9.418682956992652873e-06
2.701350675337668577e+02 9.374918787193823461e-06
2.710355177588794504e+02 9.407813251617776546e-06
2.719359679839919863e+02 9.304515647088631124e-06
2.728364182091045222e+02 9.066014948107876964e-06
2.737368684342171150e+02 9.103076042917086224e-06
2.746373186593296509e+02 9.492452911582271763e-06
2.755377688844421868e+02 9.996293863729644117e-06
2.764382191095547796e+02 1.054063013155516621e-05
2.773386693346673155e+02 1.104341882515983343e-05
2.782391195597798514e+02 1.117801906818093353e-05
2.791395697848924442e+02 1.116541267714525768e-05
2.800400200100049801e+02 1.123775867453469888e-05
2.809404702351175729e+02 1.125007174961758357e-05
2.818409204602301088e+02 1.123960514779511667e-05
2.827413706853426447e+02 1.117575308937384496e-05
2.836418209104552375e+02 1.108427343172229272e-05
2.845422711355677734e+02 1.098817901039812240e-05
2.854427213606803093e+02 1.087639502256542298e-05
2.863431715857929021e+02 1.086310346818715923e-05
2.872436218109054380e+02 1.110462743047295284e-05
2.881440720360179739e+02 1.148401723127381866e-05
2.890445222611305667e+02 1.160050104335817107e-05
2.899449724862431026e+02 1.153647305326714231e-05
2.908454227113556385e+02 1.158650582979205947e-05
2.917458729364682313e+02 1.163864278723743110e-05
2.926463231615807672e+02 1.154361683260351010e-05
2.935467733866933600e+02 1.144121269839135965e-05
2.944472236118058959e+02 1.147112009567821494e-05
2.953476738369184318e+02 1.151597173864457526e-05
2.962481240620310246e+02 1.148106379010758611e-05
2.971485742871435605e+02 1.128863420283846689e-05
2.980490245122560964e+02 1.103200347717643465e-05
2.989494747373686891e+02 1.073646962382834916e-05
2.998499249624812251e+02 1.043404101843038072e-05
3.007503751875937610e+02 1.040226292393275246e-05
3.016508254127063537e+02 1.091236588343108972e-05
3.025512756378188897e+02 1.189623934890071761e-05
3.034517258629314256e+02 1.304853471387732000e-05
3.043521760880440183e+02 1.392733300839024749e-05
3.052526263131565543e+02 1.449473727962432398e-05
3.061530765382691470e+02 1.520327138214603900e-05
3.070535267633816829e+02 1.596036611718041920e-05
3.079539769884942189e+02 1.658842479454094088e-05
3.088544272136068116e+02 1.682759018479207958e-05
3.097548774387193475e+02 1.622227627666100462e-05
3.106553276638318835e+02 1.516662856089306244e-05
3.115557778889444762e+02 1.444392254770215013e-05
3.124562281140570121e+02 1.424701033496155237e-05
3.133566783391695481e+02 1.429130412628741247e-05
3.142571285642821408e+02 1.452939486312462043e-05
3.151575787893946767e+02 1.502415834796921985e-05
3.160580290145072127e+02 1.587509471746018967e-05
3.169584792396198054e+02 1.704442120003460601e-05
3.178589294647323413e+02 1.795296764355663822e-05
3.187593796898449341e+02 1.808860554153875997e-05
3.196598299149574700e+02 1.730279196534761568e-05
3.205602801400700059e+02 1.631739943182296449e-05
3.214607303651825987e+02 1.568097910287876543e-05
3.223611805902951346e+02 1.554842255514750978e-05
3.232616308154076705e+02 1.582916002984067740e-05
3.241620810405202633e+02 1.621907921419040162e-05
3.250625312656327992e+02 1.618452766640697053e-05
3.259629814907453351e+02 1.591498366804822723e-05
3.268634317158579279e+02 1.601899584544185678e-05
3.277638819409704638e+02 1.658434542899324927e-05
3.286643321660829997e+02 1.716133895334749662e-05
3.295647823911955925e+02 1.766030088151586619e-05
3.304652326163081284e+02 1.784021259674121508e-05
3.313656828414207212e+02 1.768770878930706774e-05
3.322661330665332571e+02 1.751657963198346925e-05
3.331665832916457930e+02 1.763944309344569813e-05
3.340670335167583858e+02 1.830013842447193877e-05
3.349674837418709217e+02 1.917908230681753405e-05
3.358679339669834576e+02 1.961796596557158475e-05
3.367683841920960504e+02 1.987781308262391716e-05
3.376688344172085863e+02 2.024582763831157332e-05
3.385692846423211222e+02 2.030318757454350874e-05
3.394697348674337150e+02 1.993453262392942021e-05
3.403701850925462509e+02 1.977246215332170167e-05
3.412706353176587868e+02 1.992754679967122643e-05
3.421710855427713796e+02 1.994540677197392925e-05
3.430715357678839155e+02 2.000573991624053036e-05
3.439719859929965082e+02 2.038340499484159209e-05
3.448724362181090441e+02 2.047423778212628206e-05
3.457728864432215801e+02 2.011604835432405621e-05
3.466733366683341728e+02 1.957393249495057705e-05
3.475737868934467087e+02 1.908515470398141763e-05
3.484742371185592447e+02 1.878975308971189440e-05
3.493746873436718374e+02 1.865320456162483366e-05
3.502751375687843733e+02 1.892636200534112716e-05
3.511755877938969093e+02 1.949866517239972041e-05
3.520760380190095020e+02 2.003860245911922032e-05
3.529764882441220379e+02 2.051032876742216610e-05
3.538769384692345739e+02 2.082287759709400973e-05
3.547773886943471666e+02 2.070219234716962772e-05
3.556778389194597025e+02 2.024834238889932007e-05
3.565782891445722953e+02 1.995937491961745317e-05
3.574787393696848312e+02 2.008575569232233567e-05
3.583791895947973671e+02 2.030976640238930716e-05
3.592796398199099599e+02 2.043355250284925999e-05
3.601800900450224958e+02 2.010371130581038536e-05
3.610805402701350317e+02 1.927528310628936196e-05
3.619809904952476245e+02 1.844043501407894754e-05
3.628814407203601604e+02 1.800760752958771875e-05
3.637818909454726963e+02 1.796060003769058306e-05
3.646823411705852891e+02 1.811061886906891082e-05
3.655827913956978250e+02 1.820122919845992168e-05
3.664832416208103609e+02 1.822412424436639595e-05
3.673836918459229537e+02 1.816183597158917118e-05
3.682841420710354896e+02 1.788139405029290805e-05
3.691845922961480824e+02 1.737841568791252656e-05
3.700850425212606183e+02 1.697639935147620920e-05
3.709854927463731542e+02 1.682601462941142926e-05
3.718859429714857470e+02 1.681969215796752710e-05
3.727863931965982829e+02 1.694689406720740457e-05
3.736868434217108188e+02 1.673792740941707996e-05
3.745872936468234116e+02 1.599634218831738896e-05
3.754877438719359475e+02 1.544171944182818774e-05
3.763881940970484834e+02 1.530040751497626817e-05
3.772886443221610762e+02 1.540622098521013636e-05
3.781890945472736121e+02 1.558783370974584412e-05
3.790895447723861480e+02 1.560915794856634138e-05
3.799899949974987408e+02 1.560664887134086696e-05
3.808904452226112767e+02 1.579703279634118876e-05
3.817908954477238694e+02 1.605549676759420089e-05
3.826913456728364054e+02 1.619302976203735328e-05
3.835917958979489413e+02 1.631469440880482433e-05
3.844922461230615340e+02 1.620984176030599327e-05
3.853926963481740700e+02 1.572489458781070704e-05
3.862931465732866059e+02 1.510973337520060026e-05
3.871935967983991986e+02 1.477860616981210902e-05
3.880940470235117346e+02 1.476749746694885942e-05
3.889944972486242705e+02 1.496417342376035571e-05
3.898949474737368632e+02 1.535178618267123653e-05
3.907953976988493991e+02 1.587897639319877846e-05
3.916958479239619351e+02 1.636758017630762869e-05
3.925962981490745278e+02 1.676199728577471156e-05
3.934967483741870637e+02 1.693360182798892528e-05
3.943971985992996565e+02 1.682497335200378429e-05
3.952976488244121924e+02 1.662412974405066962e-05
3.961980990495247283e+02 1.665563062201203692e-05
3.970985492746373211e+02 1.690244009067906345e-05
3.979989994997498570e+02 1.686110760324335931e-05
3.988994497248623929e+02 1.647121169764779336e-05
3.997998999499749857e+02 1.617724900612738781e-05
4.007003501750875216e+02 1.617870783716540367e-05
4.016008004002000575e+02 1.629322460139293933e-05
4.025012506253126503e+02 1.646750385855052113e-05
4.034017008504251862e+02 1.668335880597483642e-05
4.043021510755377221e+02 1.662407524006234816e-05
4.052026013006503149e+02 1.648183394623773971e-05
4.061030515257628508e+02 1.625502234381317329e-05
4.070035017508754436e+02 1.579121316814166543e-05
4.079039519759879795e+02 1.529532437757988609e-05
4.088044022011005154e+02 1.496446208833703203e-05
4.097048524262131082e+02 1.477903102567931330e-05
4.106053026513256441e+02 1.460367912981777689e-05
4.115057528764381800e+02 1.442860151413410692e-05
4.124062031015507728e+02 1.447748206948000420e-05
4.133066533266633087e+02 1.495287054133941562e-05
4.142071035517758446e+02 1.542663439464020091e-05
4.151075537768884374e+02 1.549671169469814453e-05
4.160080040020009733e+02 1.535304512032384906e-05
4.169084542271135092e+02 1.521975536283451975e-05
4.178089044522261020e+02 1.528840192025137672e-05
4.187093546773386379e+02 1.534380401640413267e-05
4.196098049024512306e+02 1.518955102641338620e-05
4.205102551275637666e+02 1.510589548135915774e-05
4.214107053526763025e+02 1.519419024092079035e-05
4.223111555777888952e+02 1.552918928245294853e-05
4.232116058029014312e+02 1.613147461136096644e-05
4.241120560280139671e+02 1.672758399273684338e-05
4.250125062531265598e+02 1.709556764053490617e-05
4.259129564782390958e+02 1.692728140049038887e-05
4.268134067033516317e+02 1.626624343655396190e-05
4.277138569284642244e+02 1.560319419195748325e-05
4.286143071535767604e+02 1.542424234667886444e-05
4.295147573786892963e+02 1.565078761184832742e-05
4.304152076038018890e+02 1.551982608013463398e-05
4.313156578289144250e+02 1.500142435487588892e-05
4.322161080540270177e+02 1.455376181252080442e-05
4.331165582791395536e+02 1.423613222833031105e-05
4.340170085042520896e+02 1.404156590328083805e-05
4.349174587293646823e+02 1.388255749560283880e-05
4.358179089544772182e+02 1.381385909222886178e-05
4.367183591795897541e+02 1.418798571915088019e-05
4.376188094047023469e+02 1.478550922163785015e-05
4.385192596298148828e+02 1.498405607311031634e-05
4.394197098549274187e+02 1.472932645753838801e-05
4.403201600800400115e+02 1.444655107869546030e-05
4.412206103051525474e+02 1.442240817259327773e-05
4.421210605302650833e+02 1.464324419355100716e-05
4.430215107553776761e+02 1.507716017155509614e-05
4.439219609804902120e+02 1.560433840133135220e-05
4.448224112056028048e+02 1.605889604758706864e-05
4.457228614307153407e+02 1.647290439859893651e-05
4.466233116558278766e+02 1.675904895792607171e-05
4.475237618809404694e+02 1.662898245007859367e-05
4.484242121060530053e+02 1.609807116377351703e-05
4.493246623311655412e+02 1.567810210407547051e-05
4.502251125562781340e+02 1.560922621579600969e-05
4.511255627813906699e+02 1.567199940663464516e-05
4.520260130065032058e+02 1.566744488445563077e-05
4.529264632316157986e+02 1.552750414789370859e-05
4.538269134567283345e+02 1.542604938911344958e-05
4.547273636818408704e+02 1.553615165327361310e-05
4.556278139069534632e+02 1.580904476907482080e-05
4.565282641320659991e+02 1.593694750952133111e-05
4.574287143571785919e+02 1.588785969131651288e-05
4.583291645822911278e+02 1.577466280421348967e-05
4.592296148074036637e+02 1.563013990301839425e-05
4.601300650325162565e+02 1.556016321289436819e-05
4.610305152576287924e+02 1.562180990341072639e-05
4.619309654827413283e+02 1.599679893620904375e-05
4.628314157078539210e+02 1.634841883809067485e-05
4.637318659329664570e+02 1.617633961636980543e-05
4.646323161580789929e+02 1.583304588089068929e-05
4.655327663831915856e+02 1.558086535522118569e-05
4.664332166083041216e+02 1.542734295206698976e-05
4.673336668334167143e+02 1.551458011215536229e-05
4.682341170585292502e+02 1.582124903889991791e-05
4.691345672836417862e+02 1.612638370074189587e-05
4.700350175087543789e+02 1.628653483762483069e-05
4.709354677338669148e+02 1.617137582167039623e-05
4.718359179589794508e+02 1.596313675682951337e-05
4.727363681840920435e+02 1.596220793237576902e-05
4.736368184092045794e+02 1.614081882994628246e-05
4.745372686343171154e+02 1.625949206635751370e-05
4.754377188594297081e+02 1.621787973913062483e-05
4.763381690845422440e+02 1.621644471643653989e-05
4.772386193096547800e+02 1.633650698665073807e-05
4.781390695347673727e+02 1.659045528080224375e-05
4.790395197598799086e+02 1.686248196561354284e-05
4.799399699849925014e+02 1.709054647292929352e-05
4.808404202101050373e+02 1.729629286843629806e-05
4.817408704352175732e+02 1.727485939299602737e-05
4.826413206603301660e+02 1.722671595284990694e-05
4.835417708854427019e+02 1.739847901451130959e-05
4.844422211105552378e+02 1.756313465371649909e-05
4.853426713356678306e+02 1.754655625368519066e-05
4.862431215607803665e+02 1.757151601477143789e-05
4.871435717858929024e+02 1.747850266781078509e-05
4.880440220110054952e+02 1.720283334343689557e-05
4.889444722361180311e+02 1.726917374847269503e-05
4.898449224612305670e+02 1.779778054585473600e-05
4.907453726863431598e+02 1.854471045484678190e-05
4.916458229114556957e+02 1.900515705157656592e-05
4.925462731365682885e+02 1.872549348756568957e-05
4.934467233616808244e+02 1.830363091114366905e-05
4.943471735867933603e+02 1.832411768553249840e-05
4.952476238119059531e+02 1.880015707236163408e-05
4.961480740370184890e+02 1.945563792339577460e-05
4.970485242621310249e+02 2.004646834503995295e-05
4.979489744872436177e+02 2.053605458800734695e-05
4.988494247123561536e+02 2.079746593921857827e-05
4.997498749374686895e+02 2.092046169867461223e-05
5.006503251625812823e+02 2.103544780620517362e-05
5.015507753876938182e+02 2.095562129929798113e-05
5.024512256128063541e+02 2.085172408134517628e-05
5.033516758379189469e+02 2.104183528706737180e-05
5.042521260630314828e+02 2.133903609752945925e-05
5.051525762881440755e+02 2.105578406338593062e-05
5.060530265132566115e+02 2.032640655116487629e-05
5.069534767383691474e+02 1.965385551876290795e-05
5.078539269634817401e+02 1.927105037564344446e-05
5.087543771885942760e+02 1.924156544917906452e-05
5.096548274137068120e+02 1.951014488618591544e-05
5.105552776388194047e+02 1.999625500742067323e-05
5.114557278639319406e+02 2.051035670968261342e-05
5.123561780890445334e+02 2.102859648846223657e-05
5.132566283141570693e+02 2.137629306091041179e-05
5.141570785392696052e+02 2.144988864104422784e-05
5.150575287643821412e+02 2.150744633708518352e-05
5.159579789894946771e+02 2.164811608826031547e-05
5.168584292146073267e+02 2.183717869358293528e-05
5.177588794397198626e+02 2.210290605036338083e-05
5.186593296648323985e+02 2.244978999580350985e-05
5.195597798899449344e+02 2.277970553179615299e-05
5.204602301150574704e+02 2.315755610697389457e-05
5.213606803401700063e+02 2.385042612802807689e-05
5.222611305652826559e+02 2.453984913094757258e-05
5.231615807903951918e+02 2.464805834226606855e-05
5.240620310155077277e+02 2.424075816616555866e-05
5.249624812406202636e+02 2.391930275855809127e-05
5.258629314657327996e+02 2.388628882471382814e-05
5.267633816908454492e+02 2.396436249788191743e-05
5.276638319159579851e+02 2.419884101479739957e-05
5.285642821410705210e+02 2.450065304143723345e-05
5.294647323661830569e+02 2.472408070312513741e-05
5.303651825912955928e+02 2.506475426418323211e-05
5.312656328164081287e+02 2.568469185707476031e-05
5.321660830415207784e+02 2.621850813479936263e-05
5.330665332666333143e+02 2.651937153777504121e-05
5.339669834917458502e+02 2.675706664807480333e-05
5.348674337168583861e+02 2.698095418371714217e-05
5.357678839419709220e+02 2.726101838323427136e-05
5.366683341670835716e+02 2.771663096420468888e-05
5.375687843921961075e+02 2.820683199762659326e-05
5.384692346173086435e+02 2.854681468557967273e-05
5.393696848424211794e+02 2.851500553599440314e-05
5.402701350675337153e+02 2.831232294712313432e-05
5.411705852926462512e+02 2.849139846055837047e-05
5.420710355177589008e+02 2.884668340617651619e-05
5.429714857428714367e+02 2.894874064415155026e-05
5.438719359679839727e+02 2.886154681498570698e-05
5.447723861930965086e+02 2.894207720094952281e-05
5.456728364182090445e+02 2.924744780022178910e-05
5.465732866433215804e+02 2.961176522224522051e-05
5.474737368684342300e+02 3.017018050121668955e-05
5.483741870935467659e+02 3.057445255896898721e-05
5.492746373186593019e+02 3.084815741152811434e-05
5.501750875437718378e+02 3.101972826590950757e-05
5.510755377688843737e+02 3.093453106615249882e-05
5.519759879939970233e+02 3.087145992982864785e-05
5.528764382191095592e+02 3.113856310663671732e-05
5.537768884442220951e+02 3.150799613750619662e-05
5.546773386693346310e+02 3.185466906578059935e-05
5.555777888944471670e+02 3.211884315190408930e-05
5.564782391195597029e+02 3.206112622875358174e-05
5.573786893446723525e+02 3.172809550594820049e-05
5.582791395697848884e+02 3.152219913812042307e-05
5.591795897948974243e+02 3.154191732665762948e-05
5.600800400200099602e+02 3.184517103798371391e-05
5.609804902451224962e+02 3.219947035619357691e-05
5.618809404702351458e+02 3.210093768428277380e-05
5.627813906953476817e+02 3.159238041906460185e-05
5.636818409204602176e+02 3.115809575218545928e-05
5.645822911455727535e+02 3.060935805815917662e-05
5.654827413706852894e+02 2.981150521569243494e-05
5.663831915957978254e+02 2.935162865718576067e-05
5.672836418209104750e+02 2.929872737329630191e-05
5.681840920460230109e+02 2.925005489846583189e-05
5.690845422711355468e+02 2.930079018398421117e-05
5.699849924962480827e+02 2.955161979044526669e-05
5.708854427213606186e+02 2.974908743053770652e-05
5.717858929464731546e+02 2.960851658476161259e-05
5.726863431715858042e+02 2.904544498231341457e-05
5.735867933966983401e+02 2.832653247419272501e-05
5.744872436218108760e+02 2.759964494773828290e-05
5.753876938469234119e+02 2.708583680454731884e-05
5.762881440720359478e+02 2.694961144878056319e-05
5.771885942971485974e+02 2.699265782599439268e-05
5.780890445222611334e+02 2.679105462971088223e-05
5.789894947473736693e+02 2.647137016990283551e-05
5.798899449724862052e+02 2.636485829054134795e-05
5.807903951975987411e+02 2.640638767080255491e-05
5.816908454227112770e+02 2.635613437841462849e-05
5.825912956478239266e+02 2.610927816388042185e-05
5.834917458729364625e+02 2.615471049511992898e-05
5.843921960980489985e+02 2.646110076790458601e-05
5.852926463231615344e+02 2.635354869651608257e-05
5.861930965482740703e+02 2.571991115561625705e-05
5.870935467733867199e+02 2.493684865633146448e-05
5.879939969984992558e+02 2.452888344815409562e-05
5.888944472236117917e+02 2.459181593704302702e-05
5.897948974487243277e+02 2.482857585363919069e-05
5.906953476738368636e+02 2.510977839298345109e-05
5.915957978989493995e+02 2.534437541346180536e-05
5.924962481240620491e+02 2.539158916843488260e-05
5.933966983491745850e+02 2.529648313641769968e-05
5.942971485742871209e+02 2.518523013114499934e-05
5.951975987993996569e+02 2.502246103364377566e-05
5.960980490245121928e+02 2.493392533167868168e-05
5.969984992496247287e+02 2.446084960098171627e-05
5.978989494747373783e+02 2.341159971014373771e-05
5.987993996998499142e+02 2.253196720216525342e-05
5.996998499249624501e+02 2.193942917473562409e-05
6.006003001500749860e+02 2.166524303774912595e-05
6.015007503751875220e+02 2.176256194231422045e-05
6.024012006003001716e+02 2.182759075538008619e-05
6.033016508254127075e+02 2.156453992596956033e-05
6.042021010505252434e+02 2.126561594779842563e-05
6.051025512756377793e+02 2.116471896229949471e-05
6.060030015007503152e+02 2.086288874668727514e-05
6.069034517258628512e+02 2.056751611000810548e-05
6.078039019509755008e+02 2.059041002400071170e-05
6.087043521760880367e+02 2.071390243588593341e-05
6.096048024012005726e+02 2.071932325174892170e-05
6.105052526263131085e+02 2.059240895869432399e-05
6.114057028514256444e+02 2.030713663895205917e-05
6.123061530765382940e+02 2.027174398862615484e-05
6.132066033016508300e+02 2.078407848691587288e-05
6.141070535267633659e+02 2.130913197931677327e-05
6.150075037518759018e+02 2.152689438444946665e-05
6.159079539769884377e+02 2.149547484763178937e-05
6.168084042021009736e+02 2.124789829626165701e-05
6.177088544272136232e+02 2.096459508391876821e-05
6.186093046523261592e+02 2.096805302539735946e-05
6.195097548774386951e+02 2.120882183052860860e-05
6.204102051025512310e+02 2.121988911566598083e-05
6.213106553276637669e+02 2.077409568381367381e-05
6.222111055527763028e+02 2.030178155136938922e-05
6.231115557778889524e+02 1.992609003545321267e-05
6.240120060030014884e+02 1.953367203680978769e-05
6.249124562281140243e+02 1.925901870665275626e-05
6.258129064532265602e+02 1.911938812293911662e-05
6.267133566783390961e+02 1.895797491556544718e-05
6.276138069034517457e+02 1.868786978807369053e-05
6.285142571285642816e+02 1.842126958264295403e-05
6.294147073536768175e+02 1.843674294860155640e-05
6.303151575787893535e+02 1.873179399113929274e-05
6.312156078039018894e+02 1.900215227909864477e-05
6.321160580290144253e+02 1.908518985798672454e-05
6.330165082541270749e+02 1.927142279521754309e-05
6.339169584792396108e+02 1.958830365385616200e-05
6.348174087043521467e+02 1.967261267018448708e-05
6.357178589294646827e+02 1.957076228028613139e-05
6.366183091545772186e+02 1.933279372619508112e-05
6.375187593796898682e+02 1.895342101771904964e-05
6.384192096048024041e+02 1.864015536908337350e-05
6.393196598299149400e+02 1.849560176766078200e-05
6.402201100550274759e+02 1.848366797268849974e-05
6.411205602801400119e+02 1.848345769226549865e-05
6.420210105052525478e+02 1.865306391148431928e-05
6.429214607303651974e+02 1.894150981879878391e-05
6.438219109554777333e+02 1.919749020307698909e-05
6.447223611805902692e+02 1.927465773433091340e-05
6.456228114057028051e+02 1.934181328587738453e-05
6.465232616308153411e+02 1.932769888557450065e-05
6.474237118559278770e+02 1.908740891058038604e-05
6.483241620810405266e+02 1.885342314626652451e-05
6.492246123061530625e+02 1.856146682976519001e-05
6.501250625312655984e+02 1.826990063339532664e-05
6.510255127563781343e+02 1.836052209823441734e-05
6.519259629814906702e+02 1.885412182363002703e-05
6.528264132066033198e+02 1.927346563989894990e-05
6.537268634317158558e+02 1.940106177660951632e-05
6.546273136568283917e+02 1.943350264500419674e-05
6.555277638819409276e+02 1.913535257039966603e-05
6.564282141070534635e+02 1.872362902231000835e-05
6.573286643321659994e+02 1.878371623268633878e-05
6.582291145572786490e+02 1.913440594644404548e-05
6.591295647823911850e+02 1.917455563366536606e-05
6.600300150075037209e+02 1.905409213125833887e-05
6.609304652326162568e+02 1.889335774030035178e-05
6.618309154577287927e+02 1.861004257542253358e-05
6.627313656828414423e+02 1.818039266900871344e-05
6.636318159079539782e+02 1.790356784184970080e-05
6.645322661330665142e+02 1.782124618100926428e-05
6.654327163581790501e+02 1.767685789062539199e-05
6.663331665832915860e+02 1.718098728878619816e-05
6.672336168084041219e+02 1.662816913379823881e-05
6.681340670335167715e+02 1.637427212161870173e-05
6.690345172586293074e+02 1.632521146245145190e-05
6.699349674837418434e+02 1.641839472893843007e-05
6.708354177088543793e+02 1.672904264660419300e-05
6.717358679339669152e+02 1.702212705316376347e-05
6.726363181590794511e+02 1.696901085223543075e-05
6.735367683841921007e+02 1.680158586143537118e-05
6.744372186093046366e+02 1.672853576520031487e-05
6.753376688344171725e+02 1.701901129265130048e-05
6.762381190595297085e+02 1.775239625455339609e-05
6.771385692846422444e+02 1.845237678057216120e-05
6.780390195097548940e+02 1.862559400868312476e-05
6.789394697348674299e+02 1.821304733964403201e-05
6.798399199599799658e+02 1.755345043244930389e-05
6.807403701850925017e+02 1.710537564405079731e-05
6.816408204102050377e+02 1.703319986502712080e-05
6.825412706353175736e+02 1.712643593443996263e-05
6.834417208604302232e+02 1.703546016064527743e-05
6.843421710855427591e+02 1.697923461962988113e-05
6.852426213106552950e+02 1.727329904428448511e-05
6.861430715357678309e+02 1.789892620997248483e-05
6.870435217608803669e+02 1.843982652102272928e-05
6.879439719859930165e+02 1.851725566927070300e-05
6.888444222111055524e+02 1.842491124428007409e-05
6.897448724362180883e+02 1.843456061931336582e-05
6.906453226613306242e+02 1.842750743911855809e-05
6.915457728864431601e+02 1.835477988008315478e-05
6.924462231115556961e+02 1.836242084891770426e-05
6.933466733366683457e+02 1.846080243677308472e-05
6.942471235617808816e+02 1.861558981632750658e-05
6.951475737868934175e+02 1.867447545346271069e-05
6.960480240120059534e+02 1.870354225447588335e-05
6.969484742371184893e+02 1.861973348036612079e-05
6.978489244622311389e+02 1.824311116741432218e-05
6.987493746873436749e+02 1.770021520252903840e-05
6.996498249124562108e+02 1.726130450733660555e-05
7.005502751375687467e+02 1.717298457108416775e-05
7.014507253626812826e+02 1.743563629374567426e-05
7.023511755877938185e+02 1.781022987837969896e-05
7.032516258129064681e+02 1.807739047944625571e-05
7.041520760380190040e+02 1.823257146805076182e-05
7.050525262631315400e+02 1.822959304284970945e-05
7.059529764882440759e+02 1.807084427973500951e-05
7.068534267133566118e+02 1.772562108663527450e-05
7.077538769384691477e+02 1.737682504689025431e-05
7.086543271635817973e+02 1.730416135661990812e-05
7.095547773886943332e+02 1.750539620607067064e-05
7.104552276138068692e+02 1.782534496153953391e-05
7.113556778389194051e+02 1.809263329831791315e-05
7.122561280640319410e+02 1.827794003361113068e-05
7.131565782891445906e+02 1.868936559168496374e-05
7.140570285142571265e+02 1.917406227994069870e-05
7.149574787393696624e+02 1.955816546567527815e-05
7.158579289644821984e+02 1.977545903818990190e-05
7.167583791895947343e+02 1.967853362183468789e-05
7.176588294147072702e+02 1.931820201238626742e-05
7.185592796398199198e+02 1.917064240126700920e-05
7.194597298649324557e+02 1.960348030415485216e-05
7.203601800900449916e+02 2.031027896386092618e-05
7.212606303151575275e+02 2.088775113044000027e-05
7.221610805402700635e+02 2.114318603485550689e-05
7.230615307653827131e+02 2.101243495978186060e-05
7.239619809904952490e+02 2.065400101322384637e-05
7.248624312156077849e+02 2.025385365038270596e-05
7.257628814407203208e+02 2.001339756470051038e-05
7.266633316658328567e+02 1.983881560635877581e-05
7.275637818909453927e+02 1.971523249077484504e-05
7.284642321160580423e+02 1.980156363249850480e-05
7.293646823411705782e+02 1.990033223041750603e-05
7.302651325662831141e+02 1.971945351690868444e-05
7.311655827913956500e+02 1.940316197042782015e-05
7.320660330165081859e+02 1.926806632829919919e-05
7.329664832416207219e+02 1.927099798213439819e-05
7.338669334667333715e+02 1.924955053217851814e-05
7.347673836918459074e+02 1.922755929589241674e-05
7.356678339169584433e+02 1.913240414278800743e-05
7.365682841420709792e+02 1.908090236324807131e-05
7.374687343671835151e+02 1.925502652240704057e-05
7.383691845922961647e+02 1.950584357728322630e-05
7.392696348174087007e+02 1.962174069208823745e-05
7.401700850425212366e+02 1.961240031876328779e-05
7.410705352676337725e+02 1.960897047415359676e-05
7.419709854927463084e+02 1.955140855497353988e-05
7.428714357178588443e+02 1.951275116628970122e-05
7.437718859429714939e+02 1.980350585637093803e-05
7.446723361680840299e+02 2.006411594254973996e-05
7.455727863931965658e+02 2.003555616477642077e-05
7.464732366183091017e+02 1.997445371799067752e-05
7.473736868434216376e+02 2.012427028252125746e-05
7.482741370685342872e+02 2.028713606468314867e-05
7.491745872936468231e+02 2.028841168332482669e-05
7.500750375187593590e+02 2.048247993918757899e-05
7.509754877438718950e+02 2.083440322502646904e-05
7.518759379689844309e+02 2.107653392053797936e-05
7.527763881940969668e+02 2.123805260817272021e-05
7.536768384192096164e+02 2.138666098532805075e-05
7.545772886443221523e+02 2.149642373036567770e-05
7.554777388694346882e+02 2.158388653823244639e-05
7.563781890945472242e+02 2.153800462106629897e-05
7.572786393196597601e+02 2.112670451961185645e-05
7.581790895447722960e+02 2.063975973675665686e-05
7.590795397698849456e+02 2.048069219431547373e-05
7.599799899949974815e+02 2.049721576360784411e-05
7.608804402201100174e+02 2.048862814603043055e-05
7.617808904452225534e+02 2.041388101199502247e-05
7.626813406703350893e+02 2.033596911494253863e-05
7.635817908954477389e+02 2.032734204318210140e-05
7.644822411205602748e+02 2.037216487731667843e-05
7.653826913456728107e+02 2.052250128363705106e-05
7.662831415707853466e+02 2.047411998817202420e-05
7.671835917958978825e+02 1.984887194130102915e-05
7.680840420210104185e+02 1.898166570341508139e-05
7.689844922461230681e+02 1.823884957613065486e-05
7.698849424712356040e+02 1.792107286191168777e-05
7.707853926963481399e+02 1.809972381764693328e-05
7.716858429214606758e+02 1.861777599991081510e-05
7.725862931465732117e+02 1.940361364523046186e-05
7.734867433716858613e+02 2.018418685485060804e-05
7.743871935967983973e+02 2.059065768439571122e-05
7.752876438219109332e+02 2.057182038668146698e-05
7.761880940470234691e+02 2.027571826924070029e-05
7.770885442721360050e+02 2.005756555378612611e-05
7.779889944972485409e+02 2.002537388451780339e-05
7.788894447223611905e+02 2.006934231866418548e-05
7.797898949474737265e+02 2.012767822684651626e-05
7.806903451725862624e+02 2.018123177893471089e-05
7.815907953976987983e+02 2.044963135780007257e-05
7.824912456228113342e+02 2.093711561173564878e-05
7.833916958479238701e+02 2.137828306135408456e-05
7.842921460730365197e+02 2.153001421674024117e-05
7.851925962981490557e+02 2.147473472420271675e-05
7.860930465232615916e+02 2.144469813112211923e-05
7.869934967483741275e+02 2.154575301309051579e-05
7.878939469734866634e+02 2.154698440726598570e-05
7.887943971985993130e+02 2.152729500456222045e-05
7.896948474237118489e+02 2.165088410075768539e-05
7.905952976488243849e+02 2.175762831506029791e-05
7.914957478739369208e+02 2.164231406742090483e-05
7.923961980990494567e+02 2.122328805637495314e-05
7.932966483241619926e+02 2.090117704152001294e-05
7.941970985492746422e+02 2.063244336060556479e-05
7.950975487743871781e+02 2.024548003720748736e-05
7.959979989994997140e+02 2.000818332014186508e-05
7.968984492246122500e+02 2.000849672409885332e-05
7.977988994497247859e+02 2.019606609400201392e-05
7.986993496748374355e+02 2.043464096020632909e-05
7.995997998999499714e+02 2.040178987939852168e-05
8.005002501250625073e+02 2.018646187667773559e-05
8.014007003501750432e+02 2.016944326620535001e-05
8.023011505752875792e+02 2.023477154062057308e-05
8.032016008004001151e+02 2.014510714764768907e-05
8.041020510255127647e+02 1.988730355173255900e-05
8.050025012506253006e+02 1.948059589340246910e-05
8.059029514757378365e+02 1.902631448074901542e-05
8.068034017008503724e+02 1.883396183380535845e-05
8.077038519259629084e+02 1.894302547446951335e-05
8.086043021510754443e+02 1.913798854483532476e-05
8.095047523761880939e+02 1.921267274228782973e-05
8.104052026013006298e+02 1.924920105792251988e-05
8.113056528264131657e+02 1.946892512265219115e-05
8.122061030515257016e+02 1.986073673329720143e-05
8.131065532766382375e+02 2.012702036462527837e-05
8.140070035017508872e+02 2.016694412135620811e-05
8.149074537268634231e+02 2.013356599358557210e-05
8.158079039519759590e+02 2.015795739863542442e-05
8.167083541770884949e+02 2.018858403614866046e-05
8.176088044022010308e+02 2.003801298703776585e-05
8.185092546273135667e+02 1.948573160889914490e-05
8.194097048524262163e+02 1.899394907126994027e-05
8.203101550775387523e+02 1.900264489302184591e-05
8.212106053026512882e+02 1.942815958911822083e-05
8.221110555277638241e+02 2.004761702877242932e-05
8.230115057528763600e+02 2.065248620168761570e-05
8.239119559779890096e+02 2.119292024176545270e-05
8.248124062031015455e+02 2.158359496528786559e-05
8.257128564282140815e+02 2.161155119877188768e-05
8.266133066533266174e+02 2.131768271213461049e-05
8.275137568784391533e+02 2.087341506258748143e-05
8.284142071035516892e+02 2.060042826511721293e-05
8.293146573286643388e+02 2.032357974922696992e-05
8.302151075537768747e+02 1.984765434156269585e-05
8.311155577788894107e+02 1.948306731589393399e-05
8.320160080040019466e+02 1.932807332780287033e-05
8.329164582291144825e+02 1.911740508233779052e-05
8.338169084542270184e+02 1.906032942007393228e-05
8.347173586793396680e+02 1.944666648917335331e-05
8.356178089044522039e+02 1.993580730253724357e-05
8.365182591295647399e+02 2.038039413778818697e-05
8.374187093546772758e+02 2.061559788365171782e-05
8.383191595797898117e+02 2.032634601209068519e-05
8.392196098049024613e+02 1.973620387982827140e-05
8.401200600300149972e+02 1.931733376514741177e-05
8.410205102551275331e+02 1.930414640789064991e-05
8.419209604802400690e+02 1.969797819756465135e-05
8.428214107053526050e+02 2.026500818853867018e-05
8.437218609304651409e+02 2.070061569347798379e-05
8.446223111555777905e+02 2.089820856495535091e-05
8.455227613806903264e+02 2.103873603352225807e-05
8.464232116058028623e+02 2.109263530682458428e-05
8.473236618309153982e+02 2.097180041160328525e-05
8.482241120560279342e+02 2.063573084453381216e-05
8.491245622811405838e+02 2.013692630905317238e-05
8.500250125062531197e+02 1.974550447259976646e-05
8.509254627313656556e+02 1.952448254106184112e-05
8.518259129564781915e+02 1.945978737870889222e-05
8.527263631815907274e+02 1.937365368989070569e-05
8.536268134067032634e+02 1.911626780263012997e-05
8.545272636318159130e+02 1.904414263045233610e-05
8.554277138569284489e+02 1.908748974083891863e-05
8.563281640820409848e+02 1.902399453398380999e-05
8.572286143071535207e+02 1.902360346917440922e-05
8.581290645322660566e+02 1.936856666673876894e-05
8.590295147573785925e+02 1.980001721109173369e-05
8.599299649824912422e+02 2.000088021519878182e-05
8.608304152076037781e+02 1.997791448160263439e-05
8.617308654327163140e+02 1.980544321307258065e-05
8.626313156578288499e+02 1.961451831366618954e-05
8.635317658829413858e+02 1.958714138611813234e-05
8.644322161080540354e+02 1.938134898892320543e-05
8.653326663331665713e+02 1.914385801841817229e-05
8.662331165582791073e+02 1.931822856217756693e-05
8.671335667833916432e+02 1.984045692247657656e-05
8.680340170085041791e+02 2.026952940306852126e-05
8.689344672336167150e+02 2.021528106585152355e-05
8.698349174587293646e+02 1.983993091254032559e-05
8.707353676838419005e+02 1.978374739031652283e-05
8.716358179089544365e+02 2.003311455971223747e-05
8.725362681340669724e+02 2.012650031710415933e-05
8.734367183591795083e+02 1.999138370374909773e-05
8.743371685842921579e+02 1.995092196025837205e-05
8.752376188094046938e+02 1.994625706393484118e-05
8.761380690345172297e+02 1.970038093040116619e-05
8.770385192596297657e+02 1.916564487723871336e-05
8.779389694847423016e+02 1.861440974652120268e-05
8.788394197098548375e+02 1.838916658561848849e-05
8.797398699349674871e+02 1.876925260100301070e-05
8.806403201600800230e+02 1.963714246276830258e-05
8.815407703851925589e+02 2.035459833945668789e-05
8.824412206103050949e+02 2.039808810815189170e-05
8.833416708354176308e+02 2.015545028721446976e-05
8.842421210605301667e+02 2.002343376574141894e-05
8.851425712856428163e+02 1.995305198724043032e-05
8.860430215107553522e+02 1.984240891918633774e-05
8.869434717358678881e+02 1.981826674048937551e-05
8.878439219609804240e+02 2.009726344289492080e-05
8.887443721860929600e+02 2.060612292402157021e-05
8.896448224112056096e+02 2.133213124993244651e-05
8.905452726363181455e+02 2.224290696835513632e-05
8.914457228614306814e+02 2.294501687954232432e-05
8.923461730865432173e+02 2.325650760972970024e-05
8.932466233116557532e+02 2.335797270937813903e-05
8.941470735367682892e+02 2.337450664476740968e-05
8.950475237618809388e+02 2.309493714407949045e-05
8.959479739869934747e+02 2.260083150398851384e-05
8.968484242121060106e+02 2.247514792291631109e-05
8.977488744372185465e+02 2.282046138425360588e-05
8.986493246623310824e+02 2.338615759480862840e-05
8.995497748874437320e+02 2.403683412217713988e-05
9.004502251125562680e+02 2.474788048968681889e-05
9.013506753376688039e+02 2.529521991594726999e-05
9.022511255627813398e+02 2.538158605515103628e-05
9.031515757878938757e+02 2.532059565032718636e-05
9.040520260130064116e+02 2.563262586277468619e-05
9.049524762381190612e+02 2.598750380889296082e-05
9.058529264632315972e+02 2.584915446681671042e-05
9.067533766883441331e+02 2.546097531262329010e-05
9.076538269134566690e+02 2.542028209166565344e-05
9.085542771385692049e+02 2.593976775712730995e-05
9.094547273636817408e+02 2.648004899204886236e-05
9.103551775887943904e+02 2.667399637208044344e-05
9.112556278139069263e+02 2.681595824810243566e-05
9.121560780390194623e+02 2.722936165973811008e-05
9.130565282641319982e+02 2.769855576740297293e-05
9.139569784892445341e+02 2.807008398250733684e-05
9.148574287143571837e+02 2.859506553861829780e-05
9.157578789394697196e+02 2.935780136382365433e-05
9.166583291645822555e+02 3.027697852818385529e-05
9.175587793896947915e+02 3.096751112984372147e-05
9.184592296148073274e+02 3.173025065017964427e-05
9.193596798399198633e+02 3.264045902585040350e-05
9.202601300650325129e+02 3.329352463549866049e-05
9.211605802901450488e+02 3.373226382814225688e-05
9.220610305152575847e+02 3.387139846578916076e-05
9.229614807403701207e+02 3.371383044191054393e-05
9.238619309654826566e+02 3.349207817923084067e-05
9.247623811905953062e+02 3.390993877400504895e-05
9.256628314157078421e+02 3.507949415218480915e-05
9.265632816408203780e+02 3.598394964719816305e-05
9.274637318659329139e+02 3.587648812382436011e-05
9.283641820910454499e+02 3.559684830352729986e-05
9.292646323161579858e+02 3.592308504704554546e-05
9.301650825412706354e+02 3.662172191367599471e-05
9.310655327663831713e+02 3.678169525171465817e-05
9.319659829914957072e+02 3.690927648693245836e-05
9.328664332166082431e+02 3.756983995189391244e-05
9.337668834417207790e+02 3.825263051220655156e-05
9.346673336668334287e+02 3.837831101258202550e-05
9.355677838919459646e+02 3.831129467385569631e-05
9.364682341170585005e+02 3.911246941658687391e-05
9.373686843421710364e+02 4.117946144581590448e-05
9.382691345672835723e+02 4.394846598788264627e-05
9.391695847923961082e+02 4.542474546073684493e-05
9.400700350175087578e+02 4.439985659410955416e-05
9.409704852426212938e+02 4.203549222049097616e-05
9.418709354677338297e+02 3.926138724572209737e-05
9.427713856928463656e+02 3.743918421408989677e-05
9.436718359179589015e+02 3.759293792764915052e-05
9.445722861430714374e+02 3.915642424603870612e-05
9.454727363681840870e+02 4.060571886668701096e-05
9.463731865932966230e+02 4.165069962360619610e-05
9.472736368184091589e+02 4.316502440001764843e-05
9.481740870435216948e+02 4.502389163023416956e-05
9.490745372686342307e+02 4.627711308149729539e-05
9.499749874937468803e+02 4.694695390891407869e-05
9.508754377188594162e+02 4.766655682394504659e-05
9.517758879439719522e+02 4.836722880584980888e-05
9.526763381690844881e+02 4.880576308367415474e-05
9.535767883941970240e+02 4.891838314037584562e-05
9.544772386193095599e+02 4.958019044752214906e-05
9.553776888444222095e+02 5.135483935015477220e-05
9.562781390695347454e+02 5.381382747640257169e-05
9.571785892946472813e+02 5.615461441361149834e-05
9.580790395197598173e+02 5.786748227455044117e-05
9.589794897448723532e+02 5.875465043445552972e-05
9.598799399699850028e+02 5.866458332777196979e-05
9.607803901950975387e+02 5.873285801386840250e-05
9.616808404202100746e+02 5.964364391008347466e-05
9.625812906453226105e+02 6.032268211261477360e-05
9.634817408704351465e+02 6.057903135660964132e-05
9.643821910955476824e+02 6.131395167998568549e-05
9.652826413206603320e+02 6.233528328629709498e-05
9.661830915457728679e+02 6.381745699226903457e-05
9.670835417708854038e+02 6.550613465000805491e-05
9.679839919959979397e+02 6.748525064447493738e-05
9.688844422211104757e+02 6.972531756621717935e-05
9.697848924462230116e+02 7.191653484292401212e-05
9.706853426713356612e+02 7.291290703774216551e-05
9.715857928964481971e+02 7.332035177858462426e-05
9.724862431215607330e+02 7.405671430982003079e-05
9.733866933466732689e+02 7.423990832383910925e-05
9.742871435717858049e+02 7.359190886160611299e-05
9.751875937968984545e+02 7.327708145461300283e-05
9.760880440220109904e+02 7.334323927814991192e-05
9.769884942471235263e+02 7.363142214683384714e-05
9.778889444722360622e+02 7.380918905204968800e-05
9.787893946973485981e+02 7.343219288696411617e-05
9.796898449224611340e+02 7.249000133064631922e-05
9.805902951475737837e+02 7.200121254071713999e-05
9.814907453726863196e+02 7.241896954040534073e-05
9.823911955977988555e+02 7.295835156146692445e-05
9.832916458229113914e+02 7.369493496123442639e-05
9.841920960480239273e+02 7.525759666040124992e-05
9.850925462731365769e+02 7.739354038048200217e-05
9.859929964982491128e+02 8.014994442595818180e-05
9.868934467233616488e+02 8.239600462209196346e-05
9.877938969484741847e+02 8.250111891667762706e-05
9.886943471735867206e+02 8.110252080465199206e-05
9.895947973986992565e+02 7.923612823671379436e-05
9.904952476238119061e+02 7.762174012927166656e-05
9.913956978489244420e+02 7.725590951216346365e-05
9.922961480740369780e+02 7.853734418712500563e-05
9.931965982991495139e+02 8.053849818780986014e-05
9.940970485242620498e+02 8.333146264812703546e-05
9.949974987493745857e+02 8.560083783675286409e-05
9.958979489744872353e+02 8.599549620744125812e-05
9.967983991995997712e+02 8.660448664989571445e-05
9.976988494247123072e+02 8.827390542824386848e-05
9.985992996498248431e+02 8.953538636084405018e-05
9.994997498749373790e+02 9.036641156236962862e-05
1.000400200100050029e+03 9.144076369782387116e-05
1.001300650325162565e+03 9.225028040755289631e-05
1.002201100550275100e+03 9.493053228288127871e-05
1.003101550775387636e+03 1.010617046020974389e-04
1.004002001000500172e+03 1.086575608305641858e-04
1.004902451225612708e+03 1.157777465890753247e-04
1.005802901450725358e+03 1.204784706022215196e-04
1.006703351675837894e+03 1.214117551907248761e-04
1.007603801900950430e+03 1.195934020118722150e-04
1.008504252126062966e+03 1.164903217042771407e-04
1.009404702351175501e+03 1.131112332013975322e-04
1.010305152576288151e+03 1.102528209190487224e-04
1.011205602801400687e+03 1.087184493014161794e-04
1.012106053026513223e+03 1.087316153161870403e-04
1.013006503251625759e+03 1.091912678541779572e-04
1.013906953476738295e+03 1.091582173240765414e-04
1.014807403701850831e+03 1.089613126623421863e-04
1.015707853926963480e+03 1.106170272459014323e-04
1.016608304152076016e+03 1.146033620676664981e-04
1.017508754377188552e+03 1.203988049037256833e-04
1.018409204602301088e+03 1.243088154636070978e-04
1.019309654827413624e+03 1.236350124888878040e-04
1.020210105052526160e+03 1.228389484865184439e-04
1.021110555277638809e+03 1.239393320756309029e-04
1.022011005502751345e+03 1.240066660826386351e-04
1.022911455727863881e+03 1.219492251082216080e-04
1.023811905952976417e+03 1.195948997828317730e-04
1.024712356178089067e+03 1.175965071480905349e-04
1.025612806403201603e+03 1.163044823937175852e-04
1.026513256628314139e+03 1.159570208337824137e-04
1.027413706853426675e+03 1.151619915127405407e-04
1.028314157078539210e+03 1.139329152582940600e-04
1.029214607303651746e+03 1.130709708051165122e-04
1.030115057528764282e+03 1.128868170041490566e-04
1.031015507753876818e+03 1.142613789481594687e-04
1.031915957978989354e+03 1.173997692721547714e-04
1.032816408204101890e+03 1.199635526859886802e-04
1.033716858429214653e+03 1.210192570243597910e-04
1.034617308654327189e+03 1.224398348935718504e-04
1.035517758879439725e+03 1.248207432222764074e-04
1.036418209104552261e+03 1.275053944629635748e-04
1.037318659329664797e+03 1.287991687786973962e-04
1.038219109554777333e+03 1.282450976816638672e-04
1.039119559779889869e+03 1.283514677858472943e-04
1.040020010005002405e+03 1.297419042650924418e-04
1.040920460230114941e+03 1.312565818214412911e-04
1.041820910455227477e+03 1.333880035713623264e-04
1.042721360680340013e+03 1.353539027194300263e-04
1.043621810905452776e+03 1.359807455914981914e-04
1.044522261130565312e+03 1.368963143627985812e-04
1.045422711355677848e+03 1.383217877240302976e-04
1.046323161580790384e+03 1.398021404793221996e-04
1.047223611805902920e+03 1.403206198670190266e-04
1.048124062031015455e+03 1.388347984156263165e-04
1.049024512256127991e+03 1.370421649479901965e-04
1.049924962481240527e+03 1.372090141268714463e-04
1.050825412706353063e+03 1.381361354696513050e-04
1.051725862931465599e+03 1.376329233900456866e-04
1.052626313156578135e+03 1.359377419884286620e-04
1.053526763381690898e+03 1.342169484948223333e-04
1.054427213606803434e+03 1.327444076923323286e-04
1.055327663831915970e+03 1.317326755314054368e-04
1.056228114057028506e+03 1.322469686385095787e-04
1.057128564282141042e+03 1.331673068237536133e-04
1.058029014507253578e+03 1.329061130169807475e-04
1.058929464732366114e+03 1.315300939711043179e-04
1.059829914957478650e+03 1.302818096983746955e-04
1.060730365182591186e+03 1.300064790062923964e-04
1.061630815407703722e+03 1.299769748604779501e-04
1.062531265632816257e+03 1.301817413512785355e-04
1.063431715857929021e+03 1.319234031284701033e-04
1.064332166083041557e+03 1.346291649200454356e-04
1.065232616308154093e+03 1.365358165505772825e-04
1.066133066533266629e+03 1.373973032098991501e-04
1.067033516758379164e+03 1.378434114822328508e-04
1.067933966983491700e+03 1.380737879856895882e-04
1.068834417208604236e+03 1.365755504753436928e-04
1.069734867433716772e+03 1.333024903228704865e-04
1.070635317658829308e+03 1.308250524433538539e-04
1.071535767883941844e+03 1.321764985054858766e-04
1.072436218109054380e+03 1.358439215341958697e-04
1.073336668334167143e+03 1.373275890207628777e-04
1.074237118559279679e+03 1.377535198145421664e-04
1.075137568784392215e+03 1.401642108052763604e-04
1.076038019009504751e+03 1.431857170458053193e-04
1.076938469234617287e+03 1.441300115849122464e-04
1.077838919459729823e+03 1.417624674042173292e-04
1.078739369684842359e+03 1.367994302702155098e-04
1.079639819909954895e+03 1.317817652719460231e-04
1.080540270135067431e+03 1.299550517042412964e-04
1.081440720360179967e+03 1.306186864480656689e-04
1.082341170585292502e+03 1.313902690379571692e-04
1.083241620810405038e+03 1.334472861909947561e-04
1.084142071035517802e+03 1.372739239024465304e-04
1.085042521260630338e+03 1.415817492318483277e-04
1.085942971485742873e+03 1.455990048441229594e-04
1.086843421710855409e+03 1.484011872318885669e-04
1.087743871935967945e+03 1.500168503287538022e-04
1.088644322161080481e+03 1.524708518765232159e-04
1.089544772386193017e+03 1.555907127961001044e-04
1.090445222611305553e+03 1.585422684060201618e-04
1.091345672836418089e+03 1.604971130896325801e-04
1.092246123061530625e+03 1.617854487947073810e-04
1.093146573286643161e+03 1.637261148972507822e-04
1.094047023511755924e+03 1.648502937100179450e-04
1.094947473736868460e+03 1.637731450075099657e-04
1.095847923961980996e+03 1.626042465078801657e-04
1.096748374187093532e+03 1.621598939347832294e-04
1.097648824412206068e+03 1.633292639603126811e-04
1.098549274637318604e+03 1.665887637980422678e-04
1.099449724862431140e+03 1.705990304368903510e-04
1.100350175087543676e+03 1.744744395501524709e-04
1.101250625312656211e+03 1.792033933992089728e-04
1.102151075537768747e+03 1.838953586694496095e-04
1.103051525762881283e+03 1.881692820914716488e-04
1.103951975987994047e+03 1.951908247736995118e-04
1.104852426213106583e+03 2.041506580580955117e-04
1.105752876438219118e+03 2.089769540349647569e-04
1.106653326663331654e+03 2.105821341125393357e-04
1.107553776888444190e+03 2.099216083544480735e-04
1.108454227113556726e+03 2.080451579338265980e-04
1.109354677338669262e+03 2.076393862511091628e-04
1.110255127563781798e+03 2.087978918652809142e-04
1.111155577788894334e+03 2.110810402622568876e-04
1.112056028014006870e+03 2.136837355028623842e-04
1.112956478239119406e+03 2.177053541617530422e-04
1.113856928464232169e+03 2.252287158038122255e-04
1.114757378689344705e+03 2.361943820150360957e-04
1.115657828914457241e+03 2.502218137134774195e-04
1.116558279139569777e+03 2.652445509943129843e-04
1.117458729364682313e+03 2.754033017309240653e-04
1.118359179589794849e+03 2.799500053680157121e-04
1.119259629814907385e+03 2.846866978344977928e-04
1.120160080040019920e+03 2.931543499510140278e-04
1.121060530265132456e+03 3.072554655511036746e-04
1.121960980490244992e+03 3.285975771524676618e-04
1.122861430715357528e+03 3.632940781965689116e-04
1.123761880940470292e+03 4.110906111751564600e-04
1.124662331165582827e+03 4.647740169342758597e-04
1.125562781390695363e+03 5.263159519798161221e-04
1.126463231615807899e+03 5.931562262453633294e-04
1.127363681840920435e+03 6.626287280415707817e-04
1.128264132066032971e+03 7.398115878464702269e-04
1.129164582291145507e+03 8.216883208491432581e-04
1.130065032516258043e+03 9.039118078517084610e-04
1.130965482741370579e+03 9.629465641643437197e-04
1.131865932966483115e+03 1.005544006357180333e-03
1.132766383191595651e+03 1.058275900620045135e-03
1.133666833416708187e+03 1.103007330136028573e-03
1.134567283641820950e+03 1.127359806124413619e-03
1.135467733866933486e+03 1.150775600046018230e-03
1.136368184092046022e+03 1.187722407392184003e-03
1.137268634317158558e+03 1.242001244551320556e-03
1.138169084542271094e+03 1.334128326759508086e-03
1.139069534767383630e+03 1.453723387057114305e-03
1.139969984992496165e+03 1.566318216177589855e-03
1.140870435217608701e+03 1.636726623185595815e-03
1.141770885442721237e+03 1.667923842613266245e-03
1.142671335667833773e+03 1.663115615756734830e-03
1.143571785892946309e+03 1.639451490550156805e-03
1.144472236118059072e+03 1.612627276755262528e-03
1.145372686343171608e+03 1.574232452127943870e-03
1.146273136568284144e+03 1.494397898364422089e-03
1.147173586793396680e+03 1.381061374625048698e-03
1.148074037018509216e+03 1.246351043002816295e-03
1.148974487243621752e+03 1.102524426970884989e-03
1.149874937468734288e+03 9.772308580677565443e-04
1.150775387693846824e+03 8.768561392724379512e-04
1.151675837918959360e+03 7.972722312292204695e-04
1.152576288144071896e+03 7.328607211137679826e-04
1.153476738369184432e+03 6.726262250989813998e-04
1.154377188594297195e+03 6.191130334871986027e-04
1.155277638819409731e+03 5.744331340563282743e-04
1.156178089044522267e+03 5.378143366654668375e-04
1.157078539269634803e+03 5.142511361547533449e-04
1.157978989494747339e+03 5.038809452945392127e-04
1.158879439719859874e+03 5.016547761465402992e-04
1.159779889944972410e+03 5.054069183864111012e-04
1.160680340170084946e+03 5.070311034794944141e-04
1.161580790395197482e+03 4.898750352361109801e-04
1.162481240620310018e+03 4.558848276632825698e-04
1.163381690845422554e+03 4.318414402351997226e-04
1.164282141070535317e+03 4.284338984398648048e-04
1.165182591295647853e+03 4.382209323155262289e-04
1.166083041520760389e+03 4.510883855195713869e-04
1.166983491745872925e+03 4.601919084058703137e-04
1.167883941970985461e+03 4.588635469316496018e-04
1.168784392196097997e+03 4.482033748402043313e-04
1.169684842421210533e+03 4.255397643748181128e-04
1.170585292646323069e+03 3.990131170679890745e-04
1.171485742871435605e+03 3.826561088544358177e-04
1.172386193096548141e+03 3.798172087937711850e-04
1.173286643321660677e+03 3.787106373603620632e-04
1.174187093546773440e+03 3.704558339674970057e-04
1.175087543771885976e+03 3.562465352119437243e-04
1.175987993996998512e+03 3.463230755031478938e-04
1.176888444222111048e+03 3.502809848420956385e-04
1.177788894447223583e+03 3.633612416181931514e-04
1.178689344672336119e+03 3.766442587900846115e-04
1.179589794897448655e+03 3.847631267080583680e-04
1.180490245122561191e+03 3.787785794789023876e-04
1.181390695347673727e+03 3.630132172887464326e-04
1.182291145572786263e+03 3.488801281352122731e-04
1.183191595797898799e+03 3.398291406191710265e-04
1.184092046023011562e+03 3.287393243251228946e-04
1.184992496248124098e+03 3.148411782462766286e-04
1.185892946473236634e+03 3.026671476947272784e-04
1.186793396698349170e+03 2.960697012827664368e-04
1.187693846923461706e+03 2.912144291062043256e-04
1.188594297148574242e+03 2.819256979630698086e-04
1.189494747373686778e+03 2.740336371311369356e-04
1.190395197598799314e+03 2.752038742117352433e-04
1.191295647823911850e+03 2.847081914131130063e-04
1.192196098049024386e+03 2.942132094272489093e-04
1.193096548274136921e+03 2.969429972968815968e-04
1.193996998499249457e+03 2.945536931407572714e-04
1.194897448724362221e+03 2.937348873098637983e-04
1.195797898949474757e+03 2.981087828887604924e-04
1.196698349174587293e+03 3.081012551785504059e-04
1.197598799399699828e+03 3.240859238277163639e-04
1.198499249624812364e+03 3.488652511475587650e-04
1.199399699849924900e+03 3.734134553641464660e-04
1.200300150075037436e+03 3.850065079258829055e-04
1.201200600300149972e+03 3.839224690831180261e-04
1.202101050525262508e+03 3.813885766632002928e-04
1.203001500750375044e+03 3.879011083231852859e-04
1.203901950975487580e+03 4.049813730296005941e-04
1.204802401200600343e+03 4.264367962850127889e-04
1.205702851425712879e+03 4.421613752251484213e-04
1.206603301650825415e+03 4.499014395613495595e-04
1.207503751875937951e+03 4.598132444784216078e-04
1.208404202101050487e+03 4.737423465337272017e-04
1.209304652326163023e+03 4.772674311663189801e-04
1.210205102551275559e+03 4.645402607067605901e-04
1.211105552776388095e+03 4.510545449229303415e-04
1.212006003001500630e+03 4.480945021249030272e-04
1.212906453226613166e+03 4.498020704467366204e-04
1.213806903451725702e+03 4.495396273031704477e-04
1.214707353676838466e+03 4.485081987627310149e-04
1.215607803901951002e+03 4.470822393110362785e-04
1.216508254127063537e+03 4.382717415800401113e-04
1.217408704352176073e+03 4.229495983111200411e-04
1.218309154577288609e+03 4.072926088720413978e-04
1.219209604802401145e+03 3.990194994003879283e-04
1.220110055027513681e+03 4.004631310254105642e-04
1.221010505252626217e+03 4.032721208411163940e-04
1.221910955477738753e+03 4.051984088930943024e-04
1.222811405702851289e+03 4.070432167430494512e-04
1.223711855927963825e+03 4.074171391239073603e-04
1.224612306153076588e+03 4.078055832495597766e-04
1.225512756378189124e+03 4.102643726319259404e-04
1.226413206603301660e+03 4.119928481662070495e-04
1.227313656828414196e+03 4.112808572264344009e-04
1.228214107053526732e+03 4.094471938296477109e-04
1.229114557278639268e+03 4.043505873294996945e-04
1.230015007503751804e+03 3.992949650943381206e-04
1.230915457728864340e+03 4.034040409024351953e-04
1.231815907953976875e+03 4.166744652169677749e-04
1.232716358179089411e+03 4.343344075607042396e-04
1.233616808404201947e+03 4.521043157754295067e-04
1.234517258629314711e+03 4.688930765666162858e-04
1.235417708854427246e+03 4.855070331042551620e-04
1.236318159079539782e+03 5.007387963935964982e-04
1.237218609304652318e+03 5.165405487338130654e-04
1.238119059529764854e+03 5.358869677627283107e-04
1.239019509754877390e+03 5.583531157417056471e-04
1.239919959979989926e+03 5.794776646574560349e-04
1.240820410205102462e+03 5.979042494953838932e-04
1.241720860430214998e+03 6.127179170207713117e-04
1.242621310655327534e+03 6.226540338124289227e-04
1.243521760880440070e+03 6.290072348151654709e-04
1.244422211105552606e+03 6.332749683839635890e-04
1.245322661330665369e+03 6.353346130450911308e-04
1.246223111555777905e+03 6.356984509834540022e-04
1.247123561780890441e+03 6.375953899872442363e-04
1.248024012006002977e+03 6.462243239209969434e-04
1.248924462231115513e+03 6.619866677006976162e-04
1.249824912456228049e+03 6.788138884922085246e-04
1.250725362681340584e+03 6.969502411495956265e-04
1.251625812906453120e+03 7.196232462193022893e-04
1.252526263131565656e+03 7.424834045209169255e-04
1.253426713356678192e+03 7.557094976337851155e-04
1.254327163581790728e+03 7.587517304373718290e-04
1.255227613806903491e+03 7.588856478559222792e-04
1.256128064032016027e+03 7.619262120590152140e-04
1.257028514257128563e+03 7.681222190015811815e-04
1.257928964482241099e+03 7.738576578887214471e-04
1.258829414707353635e+03 7.773248796991422257e-04
1.259729864932466171e+03 7.820363737153529938e-04
1.260630315157578707e+03 7.913911533008130290e-04
1.261530765382691243e+03 8.060364880532481981e-04
1.262431215607803779e+03 8.202641408172219430e-04
1.263331665832916315e+03 8.284036634265003847e-04
1.264232116058028851e+03 8.336455296926713896e-04
1.265132566283141614e+03 8.418784686673679409e-04
1.266033016508254150e+03 8.481656697282108316e-04
1.266933466733366686e+03 8.481681184314762700e-04
1.267833916958479222e+03 8.473621071707779446e-04
1.268734367183591758e+03 8.524428143513062455e-04
1.269634817408704293e+03 8.644414281780748912e-04
1.270535267633816829e+03 8.770312907705072941e-04
1.271435717858929365e+03 8.895649040098481224e-04
1.272336168084041901e+03 9.081440152698928240e-04
1.273236618309154437e+03 9.315163351283304314e-04
1.274137068534266973e+03 9.559602539224038844e-04
1.275037518759379736e+03 9.779399051772256438e-04
1.275937968984492272e+03 9.927590680456623799e-04
1.276838419209604808e+03 1.000330919566223527e-03
1.277738869434717344e+03 1.006407589972815137e-03
1.278639319659829880e+03 1.017897936973865278e-03
1.279539769884942416e+03 1.033925362922702299e-03
1.280440220110054952e+03 1.043124463763154923e-03
1.281340670335167488e+03 1.043655740745773417e-03
1.282241120560280024e+03 1.045828548602135890e-03
1.283141570785392560e+03 1.055779543048284688e-03
1.284042021010505096e+03 1.071570232888059519e-03
1.284942471235617859e+03 1.093447046800757275e-03
1.285842921460730395e+03 1.121368807863315714e-03
1.286743371685842931e+03 1.152743595032237802e-03
1.287643821910955467e+03 1.188884116330405456e-03
1.288544272136068003e+03 1.218818088903568519e-03
1.289444722361180538e+03 1.235076733689311227e-03
1.290345172586293074e+03 1.245950719446414345e-03
1.291245622811405610e+03 1.265564801103373580e-03
1.292146073036518146e+03 1.299649276989240298e-03
1.293046523261630682e+03 1.340821838115881671e-03
1.293946973486743218e+03 1.378081706947130143e-03
1.294847423711855754e+03 1.406167421905639816e-03
1.295747873936968517e+03 1.431376757058408196e-03
1.296648324162081053e+03 1.460284933358305419e-03
1.297548774387193589e+03 1.498433355279842408e-03
1.298449224612306125e+03 1.545291718252821220e-03
1.299349674837418661e+03 1.596107819632424252e-03
1.300250125062531197e+03 1.650072838582961141e-03
1.301150575287643733e+03 1.710019525084162037e-03
1.302051025512756269e+03 1.783552684368473014e-03
1.302951475737868805e+03 1.872646359993954731e-03
1.303851925962981340e+03 1.956034876056408130e-03
1.304752376188093876e+03 2.018550673688006888e-03
1.305652826413206640e+03 2.083845544212964158e-03
1.306553276638319176e+03 2.172379754938744655e-03
1.307453726863431712e+03 2.264603504424261490e-03
1.308354177088544247e+03 2.345786034038442949e-03
1.309254627313656783e+03 2.419958877816152064e-03
1.310155077538769319e+03 2.482734396108993592e-03
1.311055527763881855e+03 2.536143423844505317e-03
1.311955977988994391e+03 2.608174270770133307e-03
1.312856428214106927e+03 2.701051911900471253e-03
1.313756878439219463e+03 2.792003447215675015e-03
1.314657328664331999e+03 2.880573373006771291e-03
1.315557778889444762e+03 2.968826807451996688e-03
1.316458229114557298e+03 3.070332142659421872e-03
1.317358679339669834e+03 3.210538413799650988e-03
1.318259129564782370e+03 3.381758435228874975e-03
1.319159579789894906e+03 3.564696909972396490e-03
1.320060030015007442e+03 3.727246975764422852e-03
1.320960480240119978e+03 3.846471473929525143e-03
1.321860930465232514e+03 3.947202614130904466e-03
1.322761380690345050e+03 4.051020421045110030e-03
1.323661830915457585e+03 4.181384784636005270e-03
1.324562281140570121e+03 4.344370968032101703e-03
1.325462731365682885e+03 4.494197434482114471e-03
1.326363181590795421e+03 4.612811192554975952e-03
1.327263631815907956e+03 4.737918826681075841e-03
1.328164082041020492e+03 4.897750561063592481e-03
1.329064532266133028e+03 5.113549280280790116e-03
1.329964982491245564e+03 5.386134826954131795e-03
1.330865432716358100e+03 5.658075484701707847e-03
1.331765882941470636e+03 5.896969140687881653e-03
1.332666333166583172e+03 6.151687389645789893e-03
1.333566783391695708e+03 6.459567833668301319e-03
1.334467233616808244e+03 6.771443025728275666e-03
1.335367683841921007e+03 7.010509533485607958e-03
1.336268134067033543e+03 7.186042934355709247e-03
1.337168584292146079e+03 7.374281296448449013e-03
1.338069034517258615e+03 7.628911417405716267e-03
1.338969484742371151e+03 7.952863161794165858e-03
1.339869934967483687e+03 8.279005796622204705e-03
1.340770385192596223e+03 8.606309173383676694e-03
1.341670835417708759e+03 8.944309192339678152e-03
1.342571285642821294e+03 9.244646408641326099e-03
1.343471735867933830e+03 9.582502837583845717e-03
1.344372186093046366e+03 9.946806931613918698e-03
1.345272636318158902e+03 1.024710672104049182e-02
1.346173086543271666e+03 1.059322932350658872e-02
1.347073536768384201e+03 1.103916948059772626e-02
1.347973986993496737e+03 1.154123039148504011e-02
1.348874437218609273e+03 1.209963311504681262e-02
1.349774887443721809e+03 1.276382315755809037e-02
1.350675337668834345e+03 1.352561055315543680e-02
1.351575787893946881e+03 1.421507171764693593e-02
1.352476238119059417e+03 1.473868261385000329e-02
1.353376688344171953e+03 1.519145653708548621e-02
1.354277138569284489e+03 1.559370478569937352e-02
1.355177588794397025e+03 1.589358901917970260e-02
1.356078039019509788e+03 1.617295614653581348e-02
1.356978489244622324e+03 1.672433017314343962e-02
1.357878939469734860e+03 1.780893830715161302e-02
1.358779389694847396e+03 1.934555181688468392e-02
1.359679839919959932e+03 2.113024133393092557e-02
1.360580290145072468e+03 2.289058107552103746e-02
1.361480740370185003e+03 2.455509044108334510e-02
1.362381190595297539e+03 2.635453770771918267e-02
1.363281640820410075e+03 2.833855725826295649e-02
1.364182091045522611e+03 3.047068977727170752e-02
1.365082541270635147e+03 3.287679299898722124e-02
1.365982991495747910e+03 3.545082023648756658e-02
1.366883441720860446e+03 3.827655159705260768e-02
1.367783891945972982e+03 4.143454986194966549e-02
1.368684342171085518e+03 4.413033199413159136e-02
1.369584792396198054e+03 4.589188677280615913e-02
1.370485242621310590e+03 4.678657394160616600e-02
1.371385692846423126e+03 4.674355581075079202e-02
1.372286143071535662e+03 4.541438209863957881e-02
1.373186593296648198e+03 4.315902440557264907e-02
1.374087043521760734e+03 4.079036558922013306e-02
1.374987493746873270e+03 3.854321948919083030e-02
1.375887943971986033e+03 3.647486141226820994e-02
1.376788394197098569e+03 3.438633163268511872e-02
1.377688844422211105e+03 3.264193969554878699e-02
1.378589294647323641e+03 3.139976018699105337e-02
1.379489744872436177e+03 3.009408090609239431e-02
1.380390195097548713e+03 2.845492544162566903e-02
1.381290645322661248e+03 2.706543599061540101e-02
1.382191095547773784e+03 2.624694856235374948e-02
1.383091545772886320e+03 2.566751115108592204e-02
1.383991995997998856e+03 2.513668284578752035e-02
1.384892446223111392e+03 2.463711327158084330e-02
1.385792896448224155e+03 2.387447926221739417e-02
1.386693346673336691e+03 2.292866285663033160e-02
1.387593796898449227e+03 2.202369215613029022e-02
1.388494247123561763e+03 2.118574255654064042e-02
1.389394697348674299e+03 2.026914147791127399e-02
1.390295147573786835e+03 1.916557155857661482e-02
1.391195597798899371e+03 1.792848098008755636e-02
1.392096048024011907e+03 1.677810351336607442e-02
1.392996498249124443e+03 1.581218349875087095e-02
1.393896948474236979e+03 1.492775076739787272e-02
1.394797398699349515e+03 1.408356453175417002e-02
1.395697848924462278e+03 1.318330449909609937e-02
1.396598299149574814e+03 1.227466989476699161e-02
1.397498749374687350e+03 1.146436931432671773e-02
1.398399199599799886e+03 1.071537530184780637e-02
1.399299649824912422e+03 9.997358222021716576e-03
1.400200100050024957e+03 9.378230315089233771e-03
1.401100550275137493e+03 8.902648202153671392e-03
1.402001000500250029e+03 8.503318572754537535e-03
1.402901450725362565e+03 8.112934612765741391e-03
1.403801900950475101e+03 7.702899637725657035e-03
1.404702351175587637e+03 7.278662280290523409e-03
1.405602801400700173e+03 6.927906927157211417e-03
1.406503251625812936e+03 6.715543866410309849e-03
1.407403701850925472e+03 6.479367292600857371e-03
1.408304152076038008e+03 6.155268446202847438e-03
1.409204602301150544e+03 5.874573286577858787e-03
1.410105052526263080e+03 5.688503395551857029e-03
1.411005502751375616e+03 5.557443538817252553e-03
1.411905952976488152e+03 5.421063936670648432e-03
1.412806403201600688e+03 5.246678696677715796e-03
1.413706853426713224e+03 5.073535474297898376e-03
1.414607303651825760e+03 4.909077436761133742e-03
1.415507753876938295e+03 4.720351332290780196e-03
1.416408204102051059e+03 4.520609483447084534e-03
1.417308654327163595e+03 4.360156395354581986e-03
1.418209104552276131e+03 4.256297772370984910e-03
1.419109554777388666e+03 4.169175025887628637e-03
1.420010005002501202e+03 4.050911818561288985e-03
1.420910455227613738e+03 3.857344318350799245e-03
1.421810905452726274e+03 3.667951490942651573e-03
1.422711355677838810e+03 3.531011640122613034e-03
1.423611805902951346e+03 3.425979859557835069e-03
1.424512256128063882e+03 3.324475542950099290e-03
1.425412706353176418e+03 3.211113937736954308e-03
1.426313156578289181e+03 3.110889329701750205e-03
1.427213606803401717e+03 3.031927106873243561e-03
1.428114057028514253e+03 2.949099217573966387e-03
1.429014507253626789e+03 2.863586898050095655e-03
1.429914957478739325e+03 2.781943922319384324e-03
1.430815407703851861e+03 2.699180516272968195e-03
1.431715857928964397e+03 2.629093342283789735e-03
1.432616308154076933e+03 2.581362749179938812e-03
1.433516758379189469e+03 2.526272347676833917e-03
1.434417208604302004e+03 2.444561844236511905e-03
1.435317658829414540e+03 2.367763603996914275e-03
1.436218109054527304e+03 2.320857424371034362e-03
1.437118559279639840e+03 2.287586253775651408e-03
1.438019009504752376e+03 2.246027173316028462e-03
1.438919459729864911e+03 2.176418798714697522e-03
1.439819909954977447e+03 2.085481643529245657e-03
1.440720360180089983e+03 2.003747599680175042e-03
1.441620810405202519e+03 1.946942346863676353e-03
1.442521260630315055e+03 1.900776111583681168e-03
1.443421710855427591e+03 1.831110620842663463e-03
1.444322161080540127e+03 1.739899968451724026e-03
1.445222611305652663e+03 1.655380680796395519e-03
1.446123061530765426e+03 1.590327510072381788e-03
1.447023511755877962e+03 1.528436966412847738e-03
1.447923961980990498e+03 1.458005833521540048e-03
1.448824412206103034e+03 1.387230060631916518e-03
1.449724862431215570e+03 1.328671149307738717e-03
1.450625312656328106e+03 1.286225006135500309e-03
1.451525762881440642e+03 1.251396427213618536e-03
1.452426213106553178e+03 1.223150935679802841e-03
1.453326663331665713e+03 1.206437526870286422e-03
1.454227113556778249e+03 1.196878865388963358e-03
1.455127563781890785e+03 1.179906049357401293e-03
1.456028014007003321e+03 1.150191820303349179e-03
1.456928464232116085e+03 1.111643175885493069e-03
1.457828914457228620e+03 1.078691914877398343e-03
1.458729364682341156e+03 1.056352595622033668e-03
1.459629814907453692e+03 1.031253543206687518e-03
1.460530265132566228e+03 1.008653141798587175e-03
1.461430715357678764e+03 9.991893380675112048e-04
1.462331165582791300e+03 9.969667701890826041e-04
1.463231615807903836e+03 9.994029552558782344e-04
1.464132066033016372e+03 1.004222558478157093e-03
1.465032516258128908e+03 1.003849254001213526e-03
1.465932966483241444e+03 9.985632836466606845e-04
1.466833416708354207e+03 9.879039296900708495e-04
1.467733866933466743e+03 9.724102422257926417e-04
1.468634317158579279e+03 9.585766442474300810e-04
1.469534767383691815e+03 9.473084847641010438e-04
1.470435217608804351e+03 9.379918044501270617e-04
1.471335667833916887e+03 9.237305611660197877e-04
1.472236118059029423e+03 9.040139055183258558e-04
1.473136568284141958e+03 8.861163395605390269e-04
1.474037018509254494e+03 8.691067436391386805e-04
1.474937468734367030e+03 8.517590001501012869e-04
1.475837918959479566e+03 8.364103543643761638e-04
1.476738369184592329e+03 8.215267191004639027e-04
1.477638819409704865e+03 8.069048487160193368e-04
1.478539269634817401e+03 7.856578536100626694e-04
1.479439719859929937e+03 7.685533301330712153e-04
1.480340170085042473e+03 7.654031158198331113e-04
1.481240620310155009e+03 7.715442025765223812e-04
1.482141070535267545e+03 7.758925099117391661e-04
1.483041520760380081e+03 7.688141156065461885e-04
1.483941970985492617e+03 7.571466034247091711e-04
1.484842421210605153e+03 7.442981107365478693e-04
1.485742871435717689e+03 7.307131467873930267e-04
1.486643321660830452e+03 7.190341980882298612e-04
1.487543771885942988e+03 7.108563220899732351e-04
1.488444222111055524e+03 7.066374356447467078e-04
1.489344672336168060e+03 7.065922275181133177e-04
1.490245122561280596e+03 7.081667413130702648e-04
1.491145572786393132e+03 7.088523204741701460e-04
1.492046023011505667e+03 7.103227147584981497e-04
1.492946473236618203e+03 7.155478943133246469e-04
1.493846923461730739e+03 7.315123721154865623e-04
1.494747373686843275e+03 7.617612622728360582e-04
1.495647823911955811e+03 8.024054470073865766e-04
1.496548274137068574e+03 8.304929852246531116e-04
1.497448724362181110e+03 8.288517591268014821e-04
1.498349174587293646e+03 8.082521690597414387e-04
1.499249624812406182e+03 7.956861166659443593e-04
1.500150075037518718e+03 7.970737057411134748e-04
1.501050525262631254e+03 8.017720652803916274e-04
1.501950975487743790e+03 7.995247747556366233e-04
1.502851425712856326e+03 7.890975259915150976e-04
1.503751875937968862e+03 7.685499357710158953e-04
1.504652326163081398e+03 7.420687045216284522e-04
1.505552776388193934e+03 7.231074676974524494e-04
1.506453226613306470e+03 7.181359241703374335e-04
1.507353676838419233e+03 7.217860513358141574e-04
1.508254127063531769e+03 7.319342097855696151e-04
1.509154577288644305e+03 7.412450139842562125e-04
1.510055027513756841e+03 7.483289874808791119e-04
1.510955477738869376e+03 7.554744271454222337e-04
1.511855927963981912e+03 7.571788543947692964e-04
1.512756378189094448e+03 7.523908453865138556e-04
1.513656828414206984e+03 7.456369758095975553e-04
1.514557278639319520e+03 7.402129396443057983e-04
1.515457728864432056e+03 7.383172744870062027e-04
1.516358179089544592e+03 7.426139272803162659e-04
1.517258629314657355e+03 7.491955970449165701e-04
1.518159079539769891e+03 7.513709489857308289e-04
1.519059529764882427e+03 7.427772631711016850e-04
1.519959979989994963e+03 7.259852228434628216e-04
1.520860430215107499e+03 7.111824265075891022e-04
1.521760880440220035e+03 7.006553777458072963e-04
1.522661330665332571e+03 6.928743126940361445e-04
1.523561780890445107e+03 6.866009085822033899e-04
1.524462231115557643e+03 6.854701215391466752e-04
1.525362681340670179e+03 6.948820501324392889e-04
1.526263131565782714e+03 7.077916348797083082e-04
1.527163581790895478e+03 7.118760447785749037e-04
1.528064032016008014e+03 7.058148424554824656e-04
1.528964482241120550e+03 6.844618464331670782e-04
1.529864932466233086e+03 6.613087138097254033e-04
1.530765382691345621e+03 6.543706399547499298e-04
1.531665832916458157e+03 6.613642649651227650e-04
1.532566283141570693e+03 6.758212636565412131e-04
1.533466733366683229e+03 7.013999028455752223e-04
1.534367183591795765e+03 7.244651931387741627e-04
1.535267633816908301e+03 7.383087692545978664e-04
1.536168084042020837e+03 7.651924051429891864e-04
1.537068534267133600e+03 8.082142112177936053e-04
1.537968984492246136e+03 8.711160776074173585e-04
1.538869434717358672e+03 9.460088809064094760e-04
1.539769884942471208e+03 1.009464814711018765e-03
1.540670335167583744e+03 1.028588129656972643e-03
1.541570785392696280e+03 9.833809185865374086e-04
1.542471235617808816e+03 9.170831845122151462e-04
1.543371685842921352e+03 8.303025651743679110e-04
1.544272136068033888e+03 6.830795621994759483e-04
1.545172586293146423e+03 5.100309843270129859e-04
1.546073036518258959e+03 3.725724779056179621e-04
1.546973486743371723e+03 2.837500738477700610e-04
1.547873936968484259e+03 2.294154772362886664e-04
1.548774387193596795e+03 1.969153074738203381e-04
1.549674837418709330e+03 1.771897041695301000e-04
1.550575287643821866e+03 1.592451616409115635e-04
1.551475737868934402e+03 1.387802004311430057e-04
1.552376188094046938e+03 1.213165241326708200e-04
1.553276638319159474e+03 1.084100084244640755e-04
1.554177088544272010e+03 9.885151667711358867e-05
1.555077538769384546e+03 9.152684154616003230e-05
1.555977988994497082e+03 8.575152177335091113e-05
1.556878439219609618e+03 8.112797625145503982e-05
1.557778889444722381e+03 7.743531248479504500e-05
1.558679339669834917e+03 7.457983280852818601e-05
1.559579789894947453e+03 7.259215425863940318e-05
1.560480240120059989e+03 7.167177430332146435e-05
1.561380690345172525e+03 7.228264364452709092e-05
1.562281140570285061e+03 7.515119033781088721e-05
1.563181590795397597e+03 8.008333374048407286e-05
1.564082041020510133e+03 8.239186179515045096e-05
1.564982491245622668e+03 7.762115951684490423e-05
1.565882941470735204e+03 7.123468890627302689e-05
1.566783391695847740e+03 6.783434987341744357e-05
1.567683841920960504e+03 6.667949517612424223e-05
1.568584292146073039e+03 6.389908579095262219e-05
1.569484742371185575e+03 5.880775003499139812e-05
1.570385192596298111e+03 5.429281877699069397e-05
1.571285642821410647e+03 5.107284022700232204e-05
1.572186093046523183e+03 4.875207508434892522e-05
1.573086543271635719e+03 4.697214002809985709e-05
1.573986993496748255e+03 4.552496758874275735e-05
1.574887443721860791e+03 4.429494548595103311e-05
1.575787893946973327e+03 4.321555373161238708e-05
1.576688344172085863e+03 4.224647200842626297e-05
1.577588794397198626e+03 4.136194021740372895e-05
1.578489244622311162e+03 4.054468484542229835e-05
1.579389694847423698e+03 3.978261395534424602e-05
1.580290145072536234e+03 3.906693752321260880e-05
1.581190595297648770e+03 3.839105250950535544e-05
1.582091045522761306e+03 3.774985547374213192e-05
1.582991495747873842e+03 3.713930364488730130e-05
1.583891945972986377e+03 3.655612559825565278e-05
1.584792396198098913e+03 3.599762498186433082e-05
1.585692846423211449e+03 3.546154384589313586e-05
1.586593296648323985e+03 3.494596518928592223e-05
1.587493746873436749e+03 3.444924195023530019e-05
1.588394197098549284e+03 3.396994423247347972e-05
1.589294647323661820e+03 3.350681936925340961e-05
1.590195097548774356e+03 3.305876119837261850e-05
1.591095547773886892e+03 3.262478606330075908e-05
1.591995997998999428e+03 3.220401380641826043e-05
1.592896448224111964e+03 3.179565252371678488e-05
1.593796898449224500e+03 3.139898619366371277e-05
1.594697348674337036e+03 3.101336453099247115e-05
1.595597798899449572e+03 3.063819458378397510e-05
1.596498249124562108e+03 3.027293371190996864e-05
1.597398699349674871e+03 2.991708367153888320e-05
1.598299149574787407e+03 2.957018559392861573e-05
1.599199599799899943e+03 2.923181569382978426e-05
1.600100050025012479e+03 2.890158157817779419e-05
1.601000500250125015e+03 2.857911905254091923e-05
1.601900950475237551e+03 2.826408934331846505e-05
1.602801400700350086e+03 2.795617666954976256e-05
1.603701850925462622e+03 2.765508611056819853e-05
1.604602301150575158e+03 2.736054172548313878e-05
1.605502751375687694e+03 2.707228488818552245e-05
1.606403201600800230e+03 2.679007280776078264e-05
1.607303651825912766e+03 2.651367720915003638e-05
1.608204102051025529e+03 2.624288315294406290e-05
1.609104552276138065e+03 2.597748797646773784e-05
1.610005002501250601e+03 2.571730034102666089e-05
1.610905452726363137e+03 2.546213937240573790e-05
1.611805902951475673e+03 2.521183388356414845e-05
1.612706353176588209e+03 2.496622167002020764e-05
1.613606803401700745e+03 2.472514886970746304e-05
1.614507253626813281e+03 2.448846938018503576e-05
1.615407703851925817e+03 2.425604432700369635e-05
1.616308154077038353e+03 2.402774157781971940e-05
1.617208604302150889e+03 2.380343529751741458e-05
1.618109054527263652e+03 2.358300554018095542e-05
1.619009504752376188e+03 2.336633787424356027e-05
1.619909954977488724e+03 2.315332303758206952e-05
1.620810405202601260e+03 2.294385661967737321e-05
1.621710855427713796e+03 2.273783876830359126e-05
1.622611305652826331e+03 2.253517391846915829e-05
1.623511755877938867e+03 2.233577054159235667e-05
1.624412206103051403e+03 2.213954091310032431e-05
1.625312656328163939e+03 2.194640089683201709e-05
1.626213106553276475e+03 2.175626974479168179e-05
1.627113556778389011e+03 2.156906991094302147e-05
1.628014007003501774e+03 2.138472687786982531e-05
1.628914457228614310e+03 2.120316899523658053e-05
1.629814907453726846e+03 2.102432732908856487e-05
1.630715357678839382e+03 2.084813552112329573e-05
1.631615807903951918e+03 2.067452965714297949e-05
1.632516258129064454e+03 2.050344814397170000e-05
1.633416708354176990e+03 2.033483159418474100e-05
1.634317158579289526e+03 2.016862271805919992e-05
1.635217608804402062e+03 2.000476622220269748e-05
1.636118059029514598e+03 1.984320871436657984e-05
1.637018509254627133e+03 1.968389861399264941e-05
1.637918959479739897e+03 1.952678606807799547e-05
1.638819409704852433e+03 1.937182287198308870e-05
1.639719859929964969e+03 1.921896239482987956e-05
1.640620310155077505e+03 1.906815950917605771e-05
1.641520760380190040e+03 1.891937052466947862e-05
1.642421210605302576e+03 1.877255312541046682e-05
1.643321660830415112e+03 1.862766631077865658e-05
1.644222111055527648e+03 1.848467033948886115e-05
1.645122561280640184e+03 1.834352667666885745e-05
1.646023011505752720e+03 1.820419794375920661e-05
1.646923461730865256e+03 1.806664787105722350e-05
1.647823911955978019e+03 1.793084125273752477e-05
1.648724362181090555e+03 1.779674390418930363e-05
1.649624812406203091e+03 1.766432262153308464e-05
1.650525262631315627e+03 1.753354514317840789e-05
1.651425712856428163e+03 1.740438011329987670e-05
1.652326163081540699e+03 1.727679704711719579e-05
1.653226613306653235e+03 1.715076629786960066e-05
1.654127063531765771e+03 1.702625902538782828e-05
1.655027513756878307e+03 1.690324716616790776e-05
1.655927963981990843e+03 1.678170340486166443e-05
1.656828414207103378e+03 1.666160114710150408e-05
1.657728864432216142e+03 1.654291449358664612e-05
1.658629314657328678e+03 1.642561821535626335e-05
1.659529764882441214e+03 1.630968773018823704e-05
1.660430215107553749e+03 1.619509908005708601e-05
1.661330665332666285e+03 1.608182890959685294e-05
1.662231115557778821e+03 1.596985444551319270e-05
1.663131565782891357e+03 1.585915347689466747e-05
1.664032016008003893e+03 1.574970433637453744e-05
1.664932466233116429e+03 1.564148588210024837e-05
1.665832916458228965e+03 1.553447748046658697e-05
1.666733366683341501e+03 1.542865898957544154e-05
1.667633816908454037e+03 1.532401074338340084e-05
1.668534267133566800e+03 1.522051353650223398e-05
1.669434717358679336e+03 1.511814860962237162e-05
1.670335167583791872e+03 1.501689763552386040e-05
1.671235617808904408e+03 1.491674270565075853e-05
1.672136068034016944e+03 1.481766631721720733e-05
1.673036518259129480e+03 1.471965136082305390e-05
1.673936968484242016e+03 1.462268110855186596e-05
1.674837418709354552e+03 1.452673920252991385e-05
1.675737868934467087e+03 1.443180964392410191e-05
1.676638319159579623e+03 1.433787678235801397e-05
1.677538769384692159e+03 1.424492530572691984e-05
1.678439219609804923e+03 1.415294023039399746e-05
1.679339669834917459e+03 1.406190689174902923e-05
1.680240120060029994e+03 1.397181093511418530e-05
1.681140570285142530e+03 1.388263830698135936e-05
1.682041020510255066e+03 1.379437524656664705e-05
1.682941470735367602e+03 1.370700827766593441e-05
1.683841920960480138e+03 1.362052420080130162e-05
1.684742371185592674e+03 1.353491008564378130e-05
1.685642821410705210e+03 1.345015326370084858e-05
1.686543271635817746e+03 1.336624132125797860e-05
1.687443721860930282e+03 1.328316209256250639e-05
1.688344172086043045e+03 1.320090365324079507e-05
1.689244622311155581e+03 1.311945431393775197e-05
1.690145072536268117e+03 1.303880261417054580e-05
1.691045522761380653e+03 1.295893731638703643e-05
1.691945972986493189e+03 1.287984740022065538e-05
1.692846423211605725e+03 1.280152205693429653e-05
1.693746873436718261e+03 1.272395068404504172e-05
1.694647323661830796e+03 1.264712288012262283e-05
1.695547773886943332e+03 1.257102843975518656e-05
1.696448224112055868e+03 1.249565734867520419e-05
1.697348674337168404e+03 1.242099977903967534e-05
1.698249124562281168e+03 1.234704608485814898e-05
1.699149574787393703e+03 1.227378679756446401e-05
1.700050025012506239e+03 1.220121262172337811e-05
1.700950475237618775e+03 1.212931443087157160e-05
1.701850925462731311e+03 1.205808326348364286e-05
1.702751375687843847e+03 1.198751031906128946e-05
1.703651825912956383e+03 1.191758695433984057e-05
1.704552276138068919e+03 1.184830467960825293e-05
1.705452726363181455e+03 1.177965515513811138e-05
1.706353176588293991e+03 1.171163018771754463e-05
1.707253626813406527e+03 1.164422172728783533e-05
1.708154077038519290e+03 1.157742186367597518e-05
1.709054527263631826e+03 1.151122282342348375e-05
1.709954977488744362e+03 1.144561696670410299e-05
1.710855427713856898e+03 1.138059678433142464e-05
1.711755877938969434e+03 1.131615489485000966e-05
1.712656328164081970e+03 1.125228404170793474e-05
1.713556778389194506e+03 1.118897709050986942e-05
1.714457228614307041e+03 1.112622702634494133e-05
1.715357678839419577e+03 1.106402695118886411e-05
1.716258129064532113e+03 1.100237008137780221e-05
1.717158579289644649e+03 1.094124974514993911e-05
1.718059029514757185e+03 1.088065938025482001e-05
1.718959479739869948e+03 1.082059253162601019e-05
1.719859929964982484e+03 1.076104284911653043e-05
1.720760380190095020e+03 1.070200408529433175e-05
1.721660830415207556e+03 1.064347009329612406e-05
1.722561280640320092e+03 1.058543482473735279e-05
1.723461730865432628e+03 1.052789232767691934e-05
1.724362181090545164e+03 1.047083674463454972e-05
1.725262631315657700e+03 1.041426231065964241e-05
1.726163081540770236e+03 1.035816335144899345e-05
1.727063531765882772e+03 1.030253428151329200e-05
1.727963981990995308e+03 1.024736960238969443e-05
1.728864432216108071e+03 1.019266390089920654e-05
1.729764882441220607e+03 1.013841184744821985e-05
1.730665332666333143e+03 1.008460819437220645e-05
1.731565782891445679e+03 1.003124777432055757e-05
1.732466233116558215e+03 9.978325498680602610e-06
1.733366683341670750e+03 9.925836356041440310e-06
1.734267133566783286e+03 9.873775410693997568e-06
1.735167583791895822e+03 9.822137801168308579e-06
1.736068034017008358e+03 9.770918738805562970e-06
1.736968484242120894e+03 9.720113506364772181e-06
1.737868934467233430e+03 9.669717456662417607e-06
1.738769384692346193e+03 9.619726011244238565e-06
1.739669834917458729e+03 9.570134659088982201e-06
1.740570285142571265e+03 9.520938955341909656e-06
1.741470735367683801e+03 9.472134520078253332e-06
1.742371185592796337e+03 9.423717037095407197e-06
1.743271635817908873e+03 9.375682252733021749e-06
1.744172086043021409e+03 9.328025974720010910e-06
1.745072536268133945e+03 9.280744071048145589e-06
1.745972986493246481e+03 9.233832468871617277e-06
1.746873436718359017e+03 9.187287153430860663e-06
1.747773886943471553e+03 9.141104167000991033e-06
1.748674337168584316e+03 9.095279607864388874e-06
1.749574787393696852e+03 9.049809629304705956e-06
1.750475237618809388e+03 9.004690438625291356e-06
1.751375687843921924e+03 8.959918296187643054e-06
1.752276138069034459e+03 8.915489514471440215e-06
1.753176588294146995e+03 8.871400457155915637e-06
1.754077038519259531e+03 8.827647538220113635e-06
1.754977488744372067e+03 8.784227221063934114e-06
1.755877938969484603e+03 8.741136017646390050e-06
1.756778389194597139e+03 8.698370487644898488e-06
1.757678839419709675e+03 8.655927237629957053e-06
1.758579289644822438e+03 8.613802920259036245e-06
1.759479739869934974e+03 8.571994233487137952e-06
1.760380190095047510e+03 8.530497919794043912e-06
1.761280640320160046e+03 8.489310765427523955e-06
1.762181090545272582e+03 8.448429599662827616e-06
1.763081540770385118e+03 8.407851294077473161e-06
1.763981990995497654e+03 8.367572761840444639e-06
1.764882441220610190e+03 8.327590957017499512e-06
1.765782891445722726e+03 8.287902873888951369e-06
1.766683341670835262e+03 8.248505546283048227e-06
1.767583791895947797e+03 8.209396046921775103e-06
1.768484242121060333e+03 8.170571486780642793e-06
1.769384692346173097e+03 8.132029014461171989e-06
1.770285142571285633e+03 8.093765815575771169e-06
1.771185592796398169e+03 8.055779112145304747e-06
1.772086043021510704e+03 8.018066162008687393e-06
1.772986493246623240e+03 7.980624258243867552e-06
1.773886943471735776e+03 7.943450728600432264e-06
1.774787393696848312e+03 7.906542934943884090e-06
1.775687843921960848e+03 7.869898272709636904e-06
1.776588294147073384e+03 7.833514170369264851e-06
1.777488744372185920e+03 7.797388088905736641e-06
1.778389194597298456e+03 7.761517521299779850e-06
1.779289644822411219e+03 7.725899992025332195e-06
1.780190095047523755e+03 7.690533056555917834e-06
1.781090545272636291e+03 7.655414300879060321e-06
1.781990995497748827e+03 7.620541341020965830e-06
1.782891445722861363e+03 7.585911822579939295e-06
1.783791895947973899e+03 7.551523420268559708e-06
1.784692346173086435e+03 7.517373837464689134e-06
1.785592796398198971e+03 7.483460805770692858e-06
1.786493246623311506e+03 7.449782084581142567e-06
1.787393696848424042e+03 7.416335460658419810e-06
1.788294147073536578e+03 7.383118747716307825e-06
1.789194597298649342e+03 7.350129786011254942e-06
1.790095047523761878e+03 7.317366441941240954e-06
1.790995497748874413e+03 7.284826607651915273e-06
1.791895947973986949e+03 7.252508200649944168e-06
1.792796398199099485e+03 7.220409163423811064e-06
1.793696848424212021e+03 7.188527463070582479e-06
1.794597298649324557e+03 7.156861090930784310e-06
1.795497748874437093e+03 7.125408062228476359e-06
1.796398199099549629e+03 7.094166415718824791e-06
1.797298649324662165e+03 7.063134213341546231e-06
1.798199099549774701e+03 7.032309539880559754e-06
1.799099549774887464e+03 7.001690502629794281e-06
1.800000000000000000e+03 6.971275231065039535e-06
