0.000000000000000000e+00 1.560257309507292415e-03
9.004502251125562351e-01 2.095855473399220199e-03
1.800900450225112470e+00 2.731592792130916984e-03
2.701350675337668594e+00 3.260698529085633186e-03
3.601800900450224940e+00 3.369353271589987323e-03
4.502251125562780842e+00 2.981907205306554096e-03
5.402701350675337189e+00 2.359953522563006459e-03
6.303151575787893535e+00 1.773130311822284505e-03
7.203601800900449881e+00 1.320904613252521379e-03
8.104052026013006227e+00 9.970269460995591880e-04
9.004502251125561685e+00 7.683649554126966612e-04
9.904952476238118919e+00 6.052395790858010501e-04
1.080540270135067438e+01 4.866132151361499949e-04
1.170585292646323161e+01 3.984832016379939398e-04
1.260630315157578707e+01 3.316259995474930573e-04
1.350675337668834430e+01 2.799137690585377881e-04
1.440720360180089976e+01 2.392085931190246289e-04
1.530765382691345522e+01 2.066623206689585982e-04
1.620810405202601245e+01 1.802761749570554824e-04
1.710855427713856969e+01 1.586198363457610452e-04
1.800900450225112337e+01 1.406460623891715148e-04
1.890945472736368060e+01 1.255624870812140277e-04
1.980990495247623784e+01 1.127542464588504102e-04
2.071035517758879507e+01 1.017666625877763811e-04
2.161080540270134875e+01 9.228327800823539408e-05
2.251125562781390599e+01 8.406191206127168860e-05
2.341170585292646322e+01 7.689841776876579717e-05
2.431215607803901690e+01 7.062179871562216521e-05
2.521260630315157414e+01 6.509193441618100465e-05
2.611305652826413137e+01 6.019484336017563378e-05
2.701350675337668861e+01 5.583760163937407029e-05
2.791395697848924229e+01 5.194390735333522842e-05
2.881440720360179952e+01 4.845057614763383211e-05
2.971485742871435676e+01 4.530491913813847578e-05
3.061530765382691044e+01 4.246267570609707400e-05
3.151575787893946767e+01 3.988619210974533847e-05
3.241620810405202491e+01 3.754265934037180429e-05
3.331665832916458214e+01 3.540313178110644652e-05
3.421710855427713938e+01 3.344354822214096055e-05
3.511755877938969661e+01 3.164510943432295140e-05
3.601800900450224674e+01 2.999194755277979511e-05
3.691845922961480397e+01 2.846947023056485210e-05
3.781890945472736121e+01 2.706428553431089036e-05
3.871935967983991844e+01 2.576437242549264241e-05
3.961980990495247568e+01 2.455926551988674061e-05
4.052026013006503291e+01 2.344005609364722647e-05
4.142071035517759015e+01 2.239894399962410066e-05
4.232116058029014027e+01 2.142890503218166271e-05
4.322161080540269751e+01 2.052362120037935740e-05
4.412206103051525474e+01 1.967744630550030975e-05
4.502251125562781198e+01 1.888534319830455287e-05
4.592296148074036921e+01 1.814280718839150582e-05
4.682341170585292645e+01 1.744579595379392985e-05
4.772386193096548368e+01 1.679067679493070320e-05
4.862431215607803381e+01 1.617417552752940229e-05
4.952476238119059104e+01 1.559332363547083399e-05
5.042521260630314828e+01 1.504541169266498570e-05
5.132566283141570551e+01 1.452795705748125960e-05
5.222611305652826275e+01 1.403872374631686349e-05
5.312656328164081998e+01 1.357573479158406394e-05
5.402701350675337721e+01 1.313719879722634071e-05
5.492746373186592734e+01 1.272145570387717633e-05
5.582791395697848458e+01 1.232696392415912011e-05
5.672836418209104181e+01 1.195228301122371770e-05
5.762881440720359905e+01 1.159606062098428332e-05
5.852926463231615628e+01 1.125706503930666245e-05
5.942971485742871351e+01 1.093422698466147673e-05
6.033016508254127075e+01 1.062658934552613433e-05
6.123061530765382088e+01 1.033324468344981770e-05
6.213106553276637811e+01 1.005333378576646741e-05
6.303151575787893535e+01 9.786055271786632987e-06
6.393196598299149258e+01 9.530663441458214245e-06
6.483241620810404982e+01 9.286457330709459501e-06
6.573286643321659994e+01 9.052773991822489483e-06
6.663331665832916428e+01 8.829004722476781780e-06
6.753376688344171441e+01 8.614603874041758662e-06
6.843421710855427875e+01 8.409069760125473619e-06
6.933466733366682888e+01 8.211924861359534537e-06
7.023511755877939322e+01 8.022713869139256118e-06
7.113556778389194335e+01 7.841024638232595869e-06
7.203601800900449348e+01 7.666482299241377760e-06
7.293646823411705782e+01 7.498729199232086631e-06
7.383691845922960795e+01 7.337422916341536341e-06
7.473736868434217229e+01 7.182239269506572784e-06
7.563781890945472242e+01 7.032871765257055018e-06
7.653826913456728676e+01 6.889027242776269229e-06
7.743871935967983688e+01 6.750427933647996500e-06
7.833916958479238701e+01 6.616824688536773771e-06
7.923961980990495135e+01 6.487993563557838129e-06
8.014007003501750148e+01 6.363720439485516613e-06
8.104052026013006582e+01 6.243798169313324973e-06
8.194097048524261595e+01 6.128029325919956550e-06
8.284142071035518029e+01 6.016226904036803018e-06
8.374187093546773042e+01 5.908211869896251696e-06
8.464232116058028055e+01 5.803811214403856460e-06
8.554277138569284489e+01 5.702863046720333817e-06
8.644322161080539502e+01 5.605218644299614617e-06
8.734367183591795936e+01 5.510736831621567081e-06
8.824412206103050949e+01 5.419284122732539228e-06
8.914457228614307382e+01 5.330735862435607358e-06
9.004502251125562395e+01 5.244977805058156043e-06
9.094547273636817408e+01 5.161902330176094187e-06
9.184592296148073842e+01 5.081404196634949172e-06
9.274637318659328855e+01 5.003381525698794591e-06
9.364682341170585289e+01 4.927737089621115311e-06
9.454727363681840302e+01 4.854376682859187410e-06
9.544772386193096736e+01 4.783204239437116462e-06
9.634817408704351749e+01 4.714122412525405945e-06
9.724862431215606762e+01 4.647045707040154903e-06
9.814907453726863196e+01 4.581901558235367646e-06
9.904952476238118209e+01 4.518622065834755336e-06
9.994997498749374643e+01 4.457146157705860190e-06
1.008504252126062966e+02 4.397413745105933984e-06
1.017508754377188609e+02 4.339361296269647549e-06
1.026513256628314110e+02 4.282925645743418651e-06
1.035517758879439612e+02 4.228047995549536915e-06
1.044522261130565255e+02 4.174674825249483892e-06
1.053526763381690756e+02 4.122754963636619738e-06
1.062531265632816400e+02 4.072237711244309557e-06
1.071535767883941901e+02 4.023073203114905059e-06
1.080540270135067544e+02 3.975214128746433462e-06
1.089544772386193046e+02 3.928617008451076208e-06
1.098549274637318547e+02 3.883240722704127115e-06
1.107553776888444190e+02 3.839045289749975114e-06
1.116558279139569692e+02 3.795992122589019261e-06
1.125562781390695335e+02 3.754044123186740740e-06
1.134567283641820836e+02 3.713164794884105314e-06
1.143571785892946480e+02 3.673316473408719639e-06
1.152576288144071981e+02 3.634460608097030519e-06
1.161580790395197482e+02 3.596564198612262037e-06
1.170585292646323126e+02 3.559601926435028263e-06
1.179589794897448627e+02 3.523549043679788349e-06
1.188594297148574270e+02 3.488378753342109655e-06
1.197598799399699772e+02 3.454064079046660002e-06
1.206603301650825415e+02 3.420578918959939779e-06
1.215607803901950916e+02 3.387898194462470469e-06
1.224612306153076418e+02 3.355997995457076939e-06
1.233616808404202061e+02 3.324855674750022753e-06
1.242621310655327562e+02 3.294449805433194140e-06
1.251625812906453206e+02 3.264760296513530276e-06
1.260630315157578707e+02 3.235768708381756473e-06
1.269634817408704350e+02 3.207458430442072396e-06
1.278639319659829852e+02 3.179813864961724945e-06
1.287643821910955353e+02 3.152816329435231742e-06
1.296648324162080996e+02 3.126433830376404443e-06
1.305652826413206640e+02 3.100615950164361720e-06
1.314657328664331999e+02 3.075325735397220637e-06
1.323661830915457642e+02 3.050570024618598498e-06
1.332666333166583286e+02 3.026363571571732032e-06
1.341670835417708929e+02 3.002700054241853792e-06
1.350675337668834288e+02 2.979563673559994726e-06
1.359679839919959932e+02 2.956940810487950727e-06
1.368684342171085575e+02 2.934818339495945389e-06
1.377688844422210934e+02 2.913182068651127436e-06
1.386693346673336578e+02 2.892017743756880369e-06
1.395697848924462221e+02 2.871311715757392060e-06
1.404702351175587864e+02 2.851051157942923712e-06
1.413706853426713224e+02 2.831223996628265837e-06
1.422711355677838867e+02 2.811818704647840443e-06
1.431715857928964510e+02 2.792824283269052249e-06
1.440720360180089870e+02 2.774230216945657622e-06
1.449724862431215513e+02 2.756026350425746749e-06
1.458729364682341156e+02 2.738202921921719021e-06
1.467733866933466800e+02 2.720750578629763848e-06
1.476738369184592159e+02 2.703660269531169518e-06
1.485742871435717802e+02 2.686923178980061658e-06
1.494747373686843446e+02 2.670530712621272105e-06
1.503751875937968805e+02 2.654474609912311516e-06
1.512756378189094448e+02 2.638746885782931576e-06
1.521760880440220092e+02 2.623339353940962409e-06
1.530765382691345735e+02 2.608243651950914680e-06
1.539769884942471094e+02 2.593452419531295605e-06
1.548774387193596738e+02 2.578959605730833688e-06
1.557778889444722381e+02 2.564759495518444428e-06
1.566783391695847740e+02 2.550846358761216253e-06
1.575787893946973384e+02 2.537214638502791117e-06
1.584792396198099027e+02 2.523859398950730092e-06
1.593796898449224670e+02 2.510776681556164975e-06
1.602801400700350030e+02 2.497962787010016437e-06
1.611805902951475673e+02 2.485411044255860907e-06
1.620810405202601316e+02 2.473104686542157349e-06
1.629814907453726676e+02 2.461015373494094218e-06
1.638819409704852319e+02 2.449127278718444069e-06
1.647823911955977962e+02 2.437453278183878661e-06
1.656828414207103606e+02 2.426009150497586213e-06
1.665832916458228965e+02 2.414797566277561271e-06
1.674837418709354608e+02 2.403813720318398809e-06
1.683841920960480252e+02 2.393051288350171803e-06
1.692846423211605611e+02 2.382504002603595643e-06
1.701850925462731254e+02 2.372164391884205016e-06
1.710855427713856898e+02 2.362021760086868896e-06
1.719859929964982541e+02 2.352065623310550888e-06
1.728864432216107900e+02 2.342293576652693090e-06
1.737868934467233544e+02 2.332708099268677125e-06
1.746873436718359187e+02 2.323308903873370650e-06
1.755877938969484546e+02 2.314092627204908749e-06
1.764882441220610190e+02 2.305054948711099631e-06
1.773886943471735833e+02 2.296191643151553253e-06
1.782891445722861476e+02 2.287498784102950871e-06
1.791895947973986836e+02 2.278972680949254272e-06
1.800900450225112479e+02 2.270609825323331404e-06
1.809904952476238122e+02 2.262406856958490649e-06
1.818909454727363482e+02 2.254360555732280020e-06
1.827913956978489125e+02 2.246467881347661141e-06
1.836918459229614768e+02 2.238725993500331357e-06
1.845922961480740412e+02 2.231132209568459018e-06
1.854927463731865771e+02 2.223683969529555855e-06
1.863931965982991414e+02 2.216378850545932013e-06
1.872936468234117058e+02 2.209214525309111569e-06
1.881940970485242417e+02 2.202188400131941178e-06
1.890945472736368060e+02 2.195296752876270454e-06
1.899949974987493704e+02 2.188534653149433673e-06
1.908954477238619347e+02 2.181899066622088548e-06
1.917958979489744706e+02 2.175390701521434754e-06
1.926963481740870350e+02 2.169010289155750997e-06
1.935967983991995993e+02 2.162755071016321940e-06
1.944972486243121352e+02 2.156617070348133198e-06
1.953976988494246996e+02 2.150586438426770283e-06
1.962981490745372639e+02 2.144661439425005525e-06
1.971985992996498283e+02 2.138847517980577496e-06
1.980990495247623642e+02 2.133147705882476723e-06
1.989994997498749285e+02 2.127561013102726987e-06
1.998999499749874929e+02 2.122084903072707566e-06
2.008004002001000288e+02 2.116716713100227667e-06
2.017008504252125931e+02 2.111454036184743127e-06
2.026013006503251574e+02 2.106294730728923310e-06
2.035017508754377218e+02 2.101236858736852144e-06
2.044022011005502577e+02 2.096278649262060239e-06
2.053026513256628220e+02 2.091418455052730478e-06
2.062031015507753864e+02 2.086654604115225636e-06
2.071035517758879223e+02 2.081985039712168547e-06
2.080040020010004866e+02 2.077406990706882404e-06
2.089044522261130510e+02 2.072917866574145928e-06
2.098049024512256153e+02 2.068516752953320302e-06
2.107053526763381512e+02 2.064203508691073523e-06
2.116058029014507156e+02 2.059977363091488363e-06
2.125062531265632799e+02 2.055836987581796750e-06
2.134067033516758158e+02 2.051780906260473614e-06
2.143071535767883802e+02 2.047807685281824311e-06
2.152076038019009445e+02 2.043915970914583554e-06
2.161080540270135089e+02 2.040104476899499751e-06
2.170085042521260448e+02 2.036371974052883950e-06
2.179089544772386091e+02 2.032717307079840298e-06
2.188094047023511735e+02 2.029139418917635503e-06
2.197098549274637094e+02 2.025637366994997268e-06
2.206103051525762737e+02 2.022210354804604605e-06
2.215107553776888381e+02 2.018857794250016020e-06
2.224112056028014024e+02 2.015579383970149277e-06
2.233116558279139383e+02 2.012375130363583162e-06
2.242121060530265027e+02 2.009245023381675713e-06
2.251125562781390670e+02 2.006187454100388620e-06
2.260130065032516029e+02 2.003195615829681073e-06
2.269134567283641672e+02 2.000257071547815550e-06
2.278139069534767316e+02 1.997365968994349271e-06
2.287143571785892959e+02 1.994530497992668520e-06
2.296148074037018318e+02 1.991759871545444694e-06
2.305152576288143962e+02 1.989056634928534210e-06
2.314157078539269605e+02 1.986419559135012033e-06
2.323161580790394964e+02 1.983846617624921827e-06
2.332166083041520608e+02 1.981335965332444239e-06
2.341170585292646251e+02 1.978886083113045268e-06
2.350175087543771895e+02 1.976495720493339711e-06
2.359179589794897254e+02 1.974163809498144302e-06
2.368184092046022897e+02 1.971889421329019971e-06
2.377188594297148541e+02 1.969671761142742327e-06
2.386193096548273900e+02 1.967510155874357277e-06
2.395197598799399543e+02 1.965404052338235229e-06
2.404202101050525187e+02 1.963353032146292333e-06
2.413206603301650830e+02 1.961356752539386139e-06
2.422211105552776189e+02 1.959414565745079863e-06
2.431215607803901833e+02 1.957524395450382641e-06
2.440220110055027476e+02 1.955681744477540261e-06
2.449224612306152835e+02 1.953882782468415205e-06
2.458229114557278479e+02 1.952128953506555572e-06
2.467233616808404122e+02 1.950423787483448280e-06
2.476238119059529765e+02 1.948768613619595122e-06
2.485242621310655124e+02 1.947162946681693194e-06
2.494247123561780768e+02 1.945605792941377487e-06
2.503251625812906411e+02 1.944096189024387552e-06
2.512256128064031770e+02 1.942633311139563996e-06
2.521260630315157414e+02 1.941216467989421154e-06
2.530265132566283057e+02 1.939845068577842540e-06
2.539269634817408701e+02 1.938518611222886146e-06
2.548274137068534060e+02 1.937236696924943442e-06
2.557278639319659703e+02 1.935999008434377103e-06
2.566283141570785347e+02 1.934805125516834037e-06
2.575287643821910706e+02 1.933654016708462026e-06
2.584292146073036633e+02 1.932543679407932626e-06
2.593296648324161993e+02 1.931472558089438035e-06
2.602301150575287352e+02 1.930441033155719657e-06
2.611305652826413279e+02 1.929449154399727035e-06
2.620310155077538639e+02 1.928495086238434698e-06
2.629314657328663998e+02 1.927577836786702646e-06
2.638319159579789925e+02 1.926698653285692988e-06
2.647323661830915285e+02 1.925858643024827875e-06
2.656328164082040644e+02 1.925057751136946330e-06
2.665332666333166571e+02 1.924295370139858989e-06
2.674337168584291931e+02 1.923570818089132339e-06
2.683341670835417858e+02 1.922883477285566078e-06
2.692346173086543217e+02 1.922232806659769834e-06
2.701350675337668577e+02 1.921618324233567144e-06
2.710355177588794504e+02 1.921039588946490222e-06
2.719359679839919863e+02 1.920496189888197178e-06
2.728364182091045222e+02 1.919987745558790337e-06
2.737368684342171150e+02 1.919513901440850927e-06
2.746373186593296509e+02 1.919074321757024999e-06
2.755377688844421868e+02 1.918668682531052863e-06
2.764382191095547796e+02 1.918296674182330536e-06
2.773386693346673155e+02 1.917957973140651948e-06
2.782391195597798514e+02 1.917652105515691957e-06
2.791395697848924442e+02 1.917378376124023377e-06
2.800400200100049801e+02 1.917136297590200369e-06
2.809404702351175729e+02 1.916925986550893974e-06
2.818409204602301088e+02 1.916747725998716233e-06
2.827413706853426447e+02 1.916601633508691451e-06
2.836418209104552375e+02 1.916487801164919745e-06
2.845422711355677734e+02 1.916406498654984791e-06
2.854427213606803093e+02 1.916358326589737165e-06
2.863431715857929021e+02 1.916344300115794857e-06
2.872436218109054380e+02 1.916365576637291542e-06
2.881440720360179739e+02 1.916421886391471063e-06
2.890445222611305667e+02 1.916507360746794862e-06
2.899449724862431026e+02 1.916607920011454354e-06
2.908454227113556385e+02 1.916713836808661939e-06
2.917458729364682313e+02 1.916833831916088175e-06
2.926463231615807672e+02 1.916981662495485684e-06
2.935467733866933600e+02 1.917162977265707349e-06
2.944472236118058959e+02 1.917377610611827932e-06
2.953476738369184318e+02 1.917623724648687210e-06
2.962481240620310246e+02 1.917899401514249517e-06
2.971485742871435605e+02 1.918203297703974700e-06
2.980490245122560964e+02 1.918534829356532640e-06
2.989494747373686891e+02 1.918893673462082078e-06
2.998499249624812251e+02 1.919279447499979908e-06
3.007503751875937610e+02 1.919691747641279159e-06
3.016508254127063537e+02 1.920130209610502219e-06
3.025512756378188897e+02 1.920594521198947085e-06
3.034517258629314256e+02 1.921084420310167729e-06
3.043521760880440183e+02 1.921599689815929036e-06
3.052526263131565543e+02 1.922140151181227619e-06
3.061530765382691470e+02 1.922705668337755710e-06
3.070535267633816829e+02 1.923296166169450356e-06
3.079539769884942189e+02 1.923911657189933747e-06
3.088544272136068116e+02 1.924552260514877663e-06
3.097548774387193475e+02 1.925218174183329135e-06
3.106553276638318835e+02 1.925909439675705811e-06
3.115557778889444762e+02 1.926625122022946732e-06
3.124562281140570121e+02 1.927362157305467408e-06
3.133566783391695481e+02 1.928116956547025212e-06
3.142571285642821408e+02 1.928890121560448586e-06
3.151575787893946767e+02 1.929685402090650432e-06
3.160580290145072127e+02 1.930505168813942429e-06
3.169584792396198054e+02 1.931349969625565952e-06
3.178589294647323413e+02 1.932219761625623094e-06
3.187593796898449341e+02 1.933114395283048750e-06
3.196598299149574700e+02 1.934033090183925581e-06
3.205602801400700059e+02 1.934973043533826258e-06
3.214607303651825987e+02 1.935929668982222805e-06
3.223611805902951346e+02 1.936901616267111389e-06
3.232616308154076705e+02 1.937892558306096967e-06
3.241620810405202633e+02 1.938905910507053644e-06
3.250625312656327992e+02 1.939942651253293848e-06
3.259629814907453351e+02 1.941002572159478241e-06
3.268634317158579279e+02 1.942085193968447472e-06
3.277638819409704638e+02 1.943189754668829688e-06
3.286643321660829997e+02 1.944314730952997222e-06
3.295647823911955925e+02 1.945458279784251086e-06
3.304652326163081284e+02 1.946620218759379430e-06
3.313656828414207212e+02 1.947801928260943763e-06
3.322661330665332571e+02 1.949004335887305179e-06
3.331665832916457930e+02 1.950227519213007571e-06
3.340670335167583858e+02 1.951471220446714663e-06
3.349674837418709217e+02 1.952735147732476479e-06
3.358679339669834576e+02 1.954019053989180140e-06
3.367683841920960504e+02 1.955322740296655133e-06
3.376688344172085863e+02 1.956646042159634347e-06
3.385692846423211222e+02 1.957988822011231273e-06
3.394697348674337150e+02 1.959350967286005697e-06
3.403701850925462509e+02 1.960732384455991162e-06
3.412706353176587868e+02 1.962132994971277291e-06
3.421710855427713796e+02 1.963552733333682797e-06
3.430715357678839155e+02 1.964991535347613565e-06
3.439719859929965082e+02 1.966449300002091362e-06
3.448724362181090441e+02 1.967925859243288754e-06
3.457728864432215801e+02 1.969421118463414155e-06
3.466733366683341728e+02 1.970935275424988833e-06
3.475737868934467087e+02 1.972468727150100506e-06
3.484742371185592447e+02 1.974021913855755529e-06
3.493746873436718374e+02 1.975595267041483934e-06
3.502751375687843733e+02 1.977188814361662075e-06
3.511755877938969093e+02 1.978800869741777761e-06
3.520760380190095020e+02 1.980426808192584767e-06
3.529764882441220379e+02 1.982062628448609407e-06
3.538769384692345739e+02 1.983710614432312828e-06
3.547773886943471666e+02 1.985375726731309521e-06
3.556778389194597025e+02 1.987060331252676059e-06
3.565782891445722953e+02 1.988764563464145055e-06
3.574787393696848312e+02 1.990487895040785132e-06
3.583791895947973671e+02 1.992229785168572375e-06
3.592796398199099599e+02 1.993989770737768916e-06
3.601800900450224958e+02 1.995767391759439572e-06
3.610805402701350317e+02 1.997562253339651234e-06
3.619809904952476245e+02 1.999374245972906208e-06
3.628814407203601604e+02 2.001203447230338232e-06
3.637818909454726963e+02 2.003049874473881475e-06
3.646823411705852891e+02 2.004913468762558992e-06
3.655827913956978250e+02 2.006794157873721980e-06
3.664832416208103609e+02 2.008691883391091864e-06
3.673836918459229537e+02 2.010606608051752978e-06
3.682841420710354896e+02 2.012538322446116261e-06
3.691845922961480824e+02 2.014487058626116382e-06
3.700850425212606183e+02 2.016452912950899048e-06
3.709854927463731542e+02 2.018436068793095574e-06
3.718859429714857470e+02 2.020436806396686347e-06
3.727863931965982829e+02 2.022455436719345517e-06
3.736868434217108188e+02 2.024491931037107145e-06
3.745872936468234116e+02 2.026544943859724119e-06
3.754877438719359475e+02 2.028611274350117648e-06
3.763881940970484834e+02 2.030688931431523550e-06
3.772886443221610762e+02 2.032780304541673718e-06
3.781890945472736121e+02 2.034888932930376194e-06
3.790895447723861480e+02 2.037016606788011303e-06
3.799899949974987408e+02 2.039163937050239051e-06
3.808904452226112767e+02 2.041330920988009913e-06
3.817908954477238694e+02 2.043515894793023432e-06
3.826913456728364054e+02 2.045713642970778845e-06
3.835917958979489413e+02 2.047918130830832837e-06
3.844922461230615340e+02 2.050130460462022197e-06
3.853926963481740700e+02 2.052357018824476220e-06
3.862931465732866059e+02 2.054601763319084859e-06
3.871935967983991986e+02 2.056865416746428372e-06
3.880940470235117346e+02 2.059147424221497830e-06
3.889944972486242705e+02 2.061446687883140611e-06
3.898949474737368632e+02 2.063761533576661037e-06
3.907953976988493991e+02 2.066090651657672034e-06
3.916958479239619351e+02 2.068434434253041925e-06
3.925962981490745278e+02 2.070793964260335003e-06
3.934967483741870637e+02 2.073169704391196780e-06
3.943971985992996565e+02 2.075561601546960113e-06
3.952976488244121924e+02 2.077969465262908793e-06
3.961980990495247283e+02 2.080393120805429704e-06
3.970985492746373211e+02 2.082832436522700345e-06
3.979989994997498570e+02 2.085287318744380302e-06
3.988994497248623929e+02 2.087757702908872100e-06
3.997998999499749857e+02 2.090243547040734249e-06
4.007003501750875216e+02 2.092744826983704751e-06
4.016008004002000575e+02 2.095261528335525705e-06
4.025012506253126503e+02 2.097793630444136252e-06
4.034017008504251862e+02 2.100341081407626430e-06
4.043021510755377221e+02 2.102903812522987021e-06
4.052026013006503149e+02 2.105481848835937038e-06
4.061030515257628508e+02 2.108075348735843065e-06
4.070035017508754436e+02 2.110684512891147806e-06
4.079039519759879795e+02 2.113309572703982792e-06
4.088044022011005154e+02 2.115950856224555396e-06
4.097048524262131082e+02 2.118608841598131172e-06
4.106053026513256441e+02 2.121284102764835657e-06
4.115057528764381800e+02 2.123976841300813236e-06
4.124062031015507728e+02 2.126685427558296437e-06
4.133066533266633087e+02 2.129404826013689144e-06
4.142071035517758446e+02 2.132130171732203820e-06
4.151075537768884374e+02 2.134863663737236824e-06
4.160080040020009733e+02 2.137611161143900116e-06
4.169084542271135092e+02 2.140375667238307437e-06
4.178089044522261020e+02 2.143157420599476338e-06
4.187093546773386379e+02 2.145955877525122952e-06
4.196098049024512306e+02 2.148770574947478622e-06
4.205102551275637666e+02 2.151601187495618923e-06
4.214107053526763025e+02 2.154447479221328901e-06
4.223111555777888952e+02 2.157309298761065172e-06
4.232116058029014312e+02 2.160186575223745645e-06
4.241120560280139671e+02 2.163079312640707589e-06
4.250125062531265598e+02 2.165987593749459713e-06
4.259129564782390958e+02 2.168911594403908530e-06
4.268134067033516317e+02 2.171851589714337139e-06
4.277138569284642244e+02 2.174807874896857431e-06
4.286143071535767604e+02 2.177780367240460548e-06
4.295147573786892963e+02 2.180767617891575125e-06
4.304152076038018890e+02 2.183766416332703843e-06
4.313156578289144250e+02 2.186774974085495724e-06
4.322161080540270177e+02 2.189795635140876961e-06
4.331165582791395536e+02 2.192831448659873117e-06
4.340170085042520896e+02 2.195883589605850575e-06
4.349174587293646823e+02 2.198952059027112133e-06
4.358179089544772182e+02 2.202036592626565957e-06
4.367183591795897541e+02 2.205136993278311424e-06
4.376188094047023469e+02 2.208253200096113416e-06
4.385192596298148828e+02 2.211385296057695795e-06
4.394197098549274187e+02 2.214533506310648834e-06
4.403201600800400115e+02 2.217698146207272149e-06
4.412206103051525474e+02 2.220879349265902846e-06
4.421210605302650833e+02 2.224076318418871641e-06
4.430215107553776761e+02 2.227286516459672971e-06
4.439219609804902120e+02 2.230506740536943039e-06
4.448224112056028048e+02 2.233736641297541638e-06
4.457228614307153407e+02 2.236979438873840359e-06
4.466233116558278766e+02 2.240237999490501582e-06
4.475237618809404694e+02 2.243513160032842940e-06
4.484242121060530053e+02 2.246804732093094468e-06
4.493246623311655412e+02 2.250112337955024596e-06
4.502251125562781340e+02 2.253435671997639436e-06
4.511255627813906699e+02 2.256774534107586618e-06
4.520260130065032058e+02 2.260128801040322098e-06
4.529264632316157986e+02 2.263498377668549501e-06
4.538269134567283345e+02 2.266883148439577613e-06
4.547273636818408704e+02 2.270282989217642271e-06
4.556278139069534632e+02 2.273697878712034176e-06
4.565282641320659991e+02 2.277127904613141504e-06
4.574287143571785919e+02 2.280573139823171921e-06
4.583291645822911278e+02 2.284033608556346497e-06
4.592296148074036637e+02 2.287509315750205359e-06
4.601300650325162565e+02 2.291000267854694760e-06
4.610305152576287924e+02 2.294506479072180875e-06
4.619309654827413283e+02 2.298027970095192408e-06
4.628314157078539210e+02 2.301564766761590194e-06
4.637318659329664570e+02 2.305116895549224366e-06
4.646323161580789929e+02 2.308684368785856059e-06
4.655327663831915856e+02 2.312267181705560800e-06
4.664332166083041216e+02 2.315865367308363588e-06
4.673336668334167143e+02 2.319479039657825133e-06
4.682341170585292502e+02 2.323108349329890899e-06
4.691345672836417862e+02 2.326753462694967516e-06
4.700350175087543789e+02 2.330414591143768859e-06
4.709354677338669148e+02 2.334092005602604575e-06
4.718359179589794508e+02 2.337785964142087019e-06
4.727363681840920435e+02 2.341496442794638831e-06
4.736368184092045794e+02 2.345222801479755255e-06
4.745372686343171154e+02 2.348963942006116151e-06
4.754377188594297081e+02 2.352718237974443138e-06
4.763381690845422440e+02 2.356483724958485593e-06
4.772386193096547800e+02 2.360261057447755337e-06
4.781390695347673727e+02 2.364053258187960432e-06
4.790395197598799086e+02 2.367862263396368041e-06
4.799399699849925014e+02 2.371688429735692104e-06
4.808404202101050373e+02 2.375531536968695258e-06
4.817408704352175732e+02 2.379391334098222518e-06
4.826413206603301660e+02 2.383267664930489967e-06
4.835417708854427019e+02 2.387160421183640649e-06
4.844422211105552378e+02 2.391069363174965033e-06
4.853426713356678306e+02 2.394993899352711232e-06
4.862431215607803665e+02 2.398933408967711084e-06
4.871435717858929024e+02 2.402888068697633512e-06
4.880440220110054952e+02 2.406858576961390300e-06
4.889444722361180311e+02 2.410845354850572539e-06
4.898449224612305670e+02 2.414848497988797254e-06
4.907453726863431598e+02 2.418867995061120084e-06
4.916458229114556957e+02 2.422903837136977899e-06
4.925462731365682885e+02 2.426956039418522897e-06
4.934467233616808244e+02 2.431024609507550093e-06
4.943471735867933603e+02 2.435109487122544059e-06
4.952476238119059531e+02 2.439210577260184398e-06
4.961480740370184890e+02 2.443327962426327744e-06
4.970485242621310249e+02 2.447461962342076952e-06
4.979489744872436177e+02 2.451612954862927245e-06
4.988494247123561536e+02 2.455781325280739938e-06
4.997498749374686895e+02 2.459967531929759493e-06
5.006503251625812823e+02 2.464172034954914493e-06
5.015507753876938182e+02 2.468394737077879406e-06
5.024512256128063541e+02 2.472633609762410222e-06
5.033516758379189469e+02 2.476884280821495853e-06
5.042521260630314828e+02 2.481144594869940566e-06
5.051525762881440755e+02 2.485418041998337666e-06
5.060530265132566115e+02 2.489708875293853696e-06
5.069534767383691474e+02 2.494018810935757543e-06
5.078539269634817401e+02 2.498348060231757669e-06
5.087543771885942760e+02 2.502696416109823227e-06
5.096548274137068120e+02 2.507063194975075315e-06
5.105552776388194047e+02 2.511446443182726838e-06
5.114557278639319406e+02 2.515843425347057765e-06
5.123561780890445334e+02 2.520253845785165241e-06
5.132566283141570693e+02 2.524680197905968440e-06
5.141570785392696052e+02 2.529124450514065593e-06
5.150575287643821412e+02 2.533587132825266414e-06
5.159579789894946771e+02 2.538068124248368575e-06
5.168584292146073267e+02 2.542567090854211831e-06
5.177588794397198626e+02 2.547083501378482600e-06
5.186593296648323985e+02 2.551616786157933914e-06
5.195597798899449344e+02 2.556166901776348769e-06
5.204602301150574704e+02 2.560734335201091587e-06
5.213606803401700063e+02 2.565319477579421841e-06
5.222611305652826559e+02 2.569922455437818186e-06
5.231615807903951918e+02 2.574543263180194826e-06
5.240620310155077277e+02 2.579181812696396078e-06
5.249624812406202636e+02 2.583837955354347208e-06
5.258629314657327996e+02 2.588511671346509700e-06
5.267633816908454492e+02 2.593203192220068204e-06
5.276638319159579851e+02 2.597912806556924390e-06
5.285642821410705210e+02 2.602640741633392767e-06
5.294647323661830569e+02 2.607387187831104933e-06
5.303651825912955928e+02 2.612152253696867209e-06
5.312656328164081287e+02 2.616935775007916958e-06
5.321660830415207784e+02 2.621737091621029527e-06
5.330665332666333143e+02 2.626555499348108108e-06
5.339669834917458502e+02 2.631391438197363317e-06
5.348674337168583861e+02 2.636245715012669686e-06
5.357678839419709220e+02 2.641117485940706967e-06
5.366683341670835716e+02 2.646004961987322196e-06
5.375687843921961075e+02 2.650908454655428869e-06
5.384692346173086435e+02 2.655830065628602794e-06
5.393696848424211794e+02 2.660771071493352000e-06
5.402701350675337153e+02 2.665731491633680744e-06
5.411705852926462512e+02 2.670710809630219446e-06
5.420710355177589008e+02 2.675708786911418846e-06
5.429714857428714367e+02 2.680725694862107428e-06
5.438719359679839727e+02 2.685761787697786755e-06
5.447723861930965086e+02 2.690817029335433067e-06
5.456728364182090445e+02 2.695891286865872483e-06
5.465732866433215804e+02 2.700984670485052288e-06
5.474737368684342300e+02 2.706097481423587081e-06
5.483741870935467659e+02 2.711229926644208693e-06
5.492746373186593019e+02 2.716382108304571289e-06
5.501750875437718378e+02 2.721554095565183098e-06
5.510755377688843737e+02 2.726745482316646436e-06
5.519759879939970233e+02 2.731954984831184566e-06
5.528764382191095592e+02 2.737181820903888274e-06
5.537768884442220951e+02 2.742426989408350941e-06
5.546773386693346310e+02 2.747691670979321314e-06
5.555777888944471670e+02 2.752976364835759327e-06
5.564782391195597029e+02 2.758281499401907219e-06
5.573786893446723525e+02 2.763607400232874610e-06
5.582791395697848884e+02 2.768954100791779743e-06
5.591795897948974243e+02 2.774320969343267723e-06
5.600800400200099602e+02 2.779706429080143892e-06
5.609804902451224962e+02 2.785108894110808103e-06
5.618809404702351458e+02 2.790528276056931924e-06
5.627813906953476817e+02 2.795966234808344412e-06
5.636818409204602176e+02 2.801424655633022185e-06
5.645822911455727535e+02 2.806904361005633840e-06
5.654827413706852894e+02 2.812405373092279018e-06
5.663831915957978254e+02 2.817927492163656019e-06
5.672836418209104750e+02 2.823470544221276377e-06
5.681840920460230109e+02 2.829034427873449350e-06
5.690845422711355468e+02 2.834619101418901072e-06
5.699849924962480827e+02 2.840224561996369494e-06
5.708854427213606186e+02 2.845850831655064980e-06
5.717858929464731546e+02 2.851497949537703088e-06
5.726863431715858042e+02 2.857165966480592874e-06
5.735867933966983401e+02 2.862854941344684036e-06
5.744872436218108760e+02 2.868564939186621609e-06
5.753876938469234119e+02 2.874296029591001196e-06
5.762881440720359478e+02 2.880048285930153227e-06
5.771885942971485974e+02 2.885821785876364539e-06
5.780890445222611334e+02 2.891616611249234988e-06
5.789894947473736693e+02 2.897432848634326596e-06
5.798899449724862052e+02 2.903270590413407188e-06
5.807903951975987411e+02 2.909129933875020900e-06
5.816908454227112770e+02 2.915010984385117582e-06
5.825912956478239266e+02 2.920913865797893667e-06
5.834917458729364625e+02 2.926838729446724611e-06
5.843921960980489985e+02 2.932785763563327972e-06
5.852926463231615344e+02 2.938755210705931314e-06
5.861930965482740703e+02 2.944747384192612210e-06
5.870935467733867199e+02 2.950762637340586096e-06
5.879939969984992558e+02 2.956801139067051773e-06
5.888944472236117917e+02 2.962862195908232578e-06
5.897948974487243277e+02 2.968943570367241658e-06
5.906953476738368636e+02 2.975043215870096443e-06
5.915957978989493995e+02 2.981162329869605078e-06
5.924962481240620491e+02 2.987303649499429866e-06
5.933966983491745850e+02 2.993468594537861275e-06
5.942971485742871209e+02 2.999657378263197727e-06
5.951975987993996569e+02 3.005869846471820625e-06
5.960980490245121928e+02 3.012105841969605224e-06
5.969984992496247287e+02 3.018365275561560511e-06
5.978989494747373783e+02 3.024648117830984817e-06
5.987993996998499142e+02 3.030954381444113644e-06
5.996998499249624501e+02 3.037284108187466254e-06
6.006003001500749860e+02 3.043637361050055271e-06
6.015007503751875220e+02 3.050014217090471831e-06
6.024012006003001716e+02 3.056414760307724362e-06
6.033016508254127075e+02 3.062839079402575824e-06
6.042021010505252434e+02 3.069287273573575439e-06
6.051025512756377793e+02 3.075759457885523021e-06
6.060030015007503152e+02 3.082255761146693449e-06
6.069034517258628512e+02 3.088776323303965136e-06
6.078039019509755008e+02 3.095321298958608577e-06
6.087043521760880367e+02 3.101890867236918834e-06
6.096048024012005726e+02 3.108485248338692296e-06
6.105052526263131085e+02 3.115104723971655126e-06
6.114057028514256444e+02 3.121749662891068129e-06
6.123061530765382940e+02 3.128420560254750689e-06
6.132066033016508300e+02 3.135118098032787442e-06
6.141070535267633659e+02 3.141843238957306970e-06
6.150075037518759018e+02 3.148597240419087296e-06
6.159079539769884377e+02 3.155381010538957575e-06
6.168084042021009736e+02 3.162192730549951465e-06
6.177088544272136232e+02 3.169024222805496622e-06
6.186093046523261592e+02 3.175864665301030843e-06
6.195097548774386951e+02 3.182714928197124875e-06
6.204102051025512310e+02 3.189586379777176191e-06
6.213106553276637669e+02 3.196486734509881821e-06
6.222111055527763028e+02 3.203417621499480056e-06
6.231115557778889524e+02 3.210378284116665448e-06
6.240120060030014884e+02 3.217367676198817642e-06
6.249124562281140243e+02 3.224384994638874582e-06
6.258129064532265602e+02 3.231429736641596931e-06
6.267133566783390961e+02 3.238501658227646326e-06
6.276138069034517457e+02 3.245600660974324805e-06
6.285142571285642816e+02 3.252726706859774757e-06
6.294147073536768175e+02 3.259879796839525581e-06
6.303151575787893535e+02 3.267059965918208238e-06
6.312156078039018894e+02 3.274267275057423876e-06
6.321160580290144253e+02 3.281501803677197043e-06
6.330165082541270749e+02 3.288763651544428447e-06
6.339169584792396108e+02 3.296052942409509787e-06
6.348174087043521467e+02 3.303369814462600671e-06
6.357178589294646827e+02 3.310714407157975221e-06
6.366183091545772186e+02 3.318086850778078950e-06
6.375187593796898682e+02 3.325487284426424552e-06
6.384192096048024041e+02 3.332915934100395728e-06
6.393196598299149400e+02 3.340373143733787090e-06
6.402201100550274759e+02 3.347859341790704364e-06
6.411205602801400119e+02 3.355375069885764137e-06
6.420210105052525478e+02 3.362921043430335742e-06
6.429214607303651974e+02 3.370498106437319164e-06
6.438219109554777333e+02 3.378106730010977926e-06
6.447223611805902692e+02 3.385745351068763316e-06
6.456228114057028051e+02 3.393408278488021153e-06
6.465232616308153411e+02 3.401089299813221690e-06
6.474237118559278770e+02 3.408790450545638889e-06
6.483241620810405266e+02 3.416519055869270537e-06
6.492246123061530625e+02 3.424279359551674000e-06
6.501250625312655984e+02 3.432072077594077533e-06
6.510255127563781343e+02 3.439896722515587319e-06
6.519259629814906702e+02 3.447752737942227402e-06
6.528264132066033198e+02 3.455639745806242031e-06
6.537268634317158558e+02 3.463557533112816501e-06
6.546273136568283917e+02 3.471506004287042841e-06
6.555277638819409276e+02 3.479485143552599525e-06
6.564282141070534635e+02 3.487494988525599711e-06
6.573286643321659994e+02 3.495535610883209336e-06
6.582291145572786490e+02 3.503607102793679970e-06
6.591295647823911850e+02 3.511709567393192120e-06
6.600300150075037209e+02 3.519843116038475915e-06
6.609304652326162568e+02 3.528007870944254013e-06
6.618309154577287927e+02 3.536203965600835201e-06
6.627313656828414423e+02 3.544431542061917437e-06
6.636318159079539782e+02 3.552690745664604583e-06
6.645322661330665142e+02 3.560981725457568434e-06
6.654327163581790501e+02 3.569304640477984678e-06
6.663331665832915860e+02 3.577659659071369675e-06
6.672336168084041219e+02 3.586046958782734183e-06
6.681340670335167715e+02 3.594466733260648958e-06
6.690345172586293074e+02 3.602919200395311158e-06
6.699349674837418434e+02 3.611404603227533088e-06
6.708354177088543793e+02 3.619923177688249384e-06
6.717358679339669152e+02 3.628475010477849244e-06
6.726363181590794511e+02 3.637059732229904560e-06
6.735367683841921007e+02 3.645676539423091909e-06
6.744372186093046366e+02 3.654325284842659424e-06
6.753376688344171725e+02 3.663006951229924797e-06
6.762381190595297085e+02 3.671722498895872458e-06
6.771385692846422444e+02 3.680472334095257296e-06
6.780390195097548940e+02 3.689256580498290872e-06
6.789394697348674299e+02 3.698075311652376857e-06
6.798399199599799658e+02 3.706928621946412770e-06
6.807403701850925017e+02 3.715816631740891611e-06
6.816408204102050377e+02 3.724739483004903332e-06
6.825412706353175736e+02 3.733697337458206612e-06
6.834417208604302232e+02 3.742690373984036597e-06
6.843421710855427591e+02 3.751718781243700967e-06
6.852426213106552950e+02 3.760782751468326486e-06
6.861430715357678309e+02 3.769882483319845345e-06
6.870435217608803669e+02 3.779018199353397179e-06
6.879439719859930165e+02 3.788190166282419534e-06
6.888444222111055524e+02 3.797398694261053414e-06
6.897448724362180883e+02 3.806644134981562439e-06
6.906453226613306242e+02 3.815926902261554175e-06
6.915457728864431601e+02 3.825247509600558742e-06
6.924462231115556961e+02 3.834606627897478944e-06
6.933466733366683457e+02 3.844005178961297586e-06
6.942471235617808816e+02 3.853444481687889138e-06
6.951475737868934175e+02 3.862926456572668113e-06
6.960480240120059534e+02 3.872453861785648476e-06
6.969484742371184893e+02 3.882030306262037992e-06
6.978489244622311389e+02 3.891658908918886710e-06
6.987493746873436749e+02 3.901336594627063360e-06
6.996498249124562108e+02 3.911042768844973429e-06
7.005502751375687467e+02 3.920742562902409021e-06
7.014507253626812826e+02 3.930428333752630131e-06
7.023511755877938185e+02 3.940131833570388959e-06
7.032516258129064681e+02 3.949881008667951342e-06
7.041520760380190040e+02 3.959683774167121483e-06
7.050525262631315400e+02 3.969538467521189278e-06
7.059529764882440759e+02 3.979441743651678225e-06
7.068534267133566118e+02 3.989390920104725849e-06
7.077538769384691477e+02 3.999384213806601946e-06
7.086543271635817973e+02 4.009420522584406788e-06
7.095547773886943332e+02 4.019499197689857261e-06
7.104552276138068692e+02 4.029619879529988659e-06
7.113556778389194051e+02 4.039782391099803376e-06
7.122561280640319410e+02 4.049986676458867953e-06
7.131565782891445906e+02 4.060232767788452639e-06
7.140570285142571265e+02 4.070520761856542226e-06
7.149574787393696624e+02 4.080850793950397101e-06
7.158579289644821984e+02 4.091223019119352517e-06
7.167583791895947343e+02 4.101637618756464500e-06
7.176588294147072702e+02 4.112094824304158361e-06
7.185592796398199198e+02 4.122594915969409310e-06
7.194597298649324557e+02 4.133138217610824583e-06
7.203601800900449916e+02 4.143725115448565325e-06
7.212606303151575275e+02 4.154356093512689833e-06
7.221610805402700635e+02 4.165031780847770308e-06
7.230615307653827131e+02 4.175752984901920283e-06
7.239619809904952490e+02 4.186520583739565093e-06
7.248624312156077849e+02 4.197334866222746459e-06
7.257628814407203208e+02 4.208193695523381130e-06
7.266633316658328567e+02 4.219091140536265475e-06
7.275637818909453927e+02 4.230022783584768153e-06
7.284642321160580423e+02 4.240992565933023475e-06
7.293646823411705782e+02 4.252007196817858130e-06
7.302651325662831141e+02 4.263069789777380044e-06
7.311655827913956500e+02 4.274180710141933284e-06
7.320660330165081859e+02 4.285339563147741942e-06
7.329664832416207219e+02 4.296545984336869463e-06
7.338669334667333715e+02 4.307799787334485518e-06
7.347673836918459074e+02 4.319100939611416321e-06
7.356678339169584433e+02 4.330449515004929113e-06
7.365682841420709792e+02 4.341845654584539444e-06
7.374687343671835151e+02 4.353289548098683668e-06
7.383691845922961647e+02 4.364781428430105633e-06
7.392696348174087007e+02 4.376321557779677825e-06
7.401700850425212366e+02 4.387910234674087047e-06
7.410705352676337725e+02 4.399547820731840925e-06
7.419709854927463084e+02 4.411234734188080498e-06
7.428714357178588443e+02 4.422971448095322147e-06
7.437718859429714939e+02 4.434758523711981885e-06
7.446723361680840299e+02 4.446596665177015479e-06
7.455727863931965658e+02 4.458486800891260073e-06
7.464732366183091017e+02 4.470430209543161789e-06
7.473736868434216376e+02 4.482428706245312820e-06
7.482741370685342872e+02 4.494484883808759155e-06
7.491745872936468231e+02 4.506602241120390650e-06
7.500750375187593590e+02 4.518784413727095559e-06
7.509754877438718950e+02 4.531031062220100376e-06
7.518759379689844309e+02 4.543327438470880846e-06
7.527763881940969668e+02 4.555639812179000986e-06
7.536768384192096164e+02 4.567948815773964994e-06
7.545772886443221523e+02 4.580279098678434632e-06
7.554777388694346882e+02 4.592663426926359468e-06
7.563781890945472242e+02 4.605114576833360675e-06
7.572786393196597601e+02 4.617632492429041852e-06
7.581790895447722960e+02 4.630213985148469163e-06
7.590795397698849456e+02 4.642856219603392126e-06
7.599799899949974815e+02 4.655557275226133307e-06
7.608804402201100174e+02 4.668315966836088806e-06
7.617808904452225534e+02 4.681131607245553947e-06
7.626813406703350893e+02 4.694003862191986058e-06
7.635817908954477389e+02 4.706932641679860745e-06
7.644822411205602748e+02 4.719917991945587824e-06
7.653826913456728107e+02 4.732960035031926596e-06
7.662831415707853466e+02 4.746058947990872292e-06
7.671835917958978825e+02 4.759214954141514571e-06
7.680840420210104185e+02 4.772428319890099659e-06
7.689844922461230681e+02 4.785699352098274414e-06
7.698849424712356040e+02 4.799028393419144196e-06
7.707853926963481399e+02 4.812415827188357045e-06
7.716858429214606758e+02 4.825862085905586041e-06
7.725862931465732117e+02 4.839367657122412864e-06
7.734867433716858613e+02 4.852933113647687868e-06
7.743871935967983973e+02 4.866559192622052854e-06
7.752876438219109332e+02 4.880246787360907908e-06
7.761880940470234691e+02 4.893996501243344071e-06
7.770885442721360050e+02 4.907807335969405358e-06
7.779889944972485409e+02 4.921675219757963864e-06
7.788894447223611905e+02 4.935595982380200745e-06
7.797898949474737265e+02 4.949571691918740132e-06
7.806903451725862624e+02 4.963607993300843114e-06
7.815907953976987983e+02 4.977708122661499095e-06
7.824912456228113342e+02 4.991872805471764253e-06
7.833916958479238701e+02 5.006101943544394191e-06
7.842921460730365197e+02 5.020395396313182873e-06
7.851925962981490557e+02 5.034753147419784482e-06
7.860930465232615916e+02 5.049175309961988007e-06
7.869934967483741275e+02 5.063662118585100205e-06
7.878939469734866634e+02 5.078213889806494607e-06
7.887943971985993130e+02 5.092830975390206049e-06
7.896948474237118489e+02 5.107513752661013214e-06
7.905952976488243849e+02 5.122262640167776968e-06
7.914957478739369208e+02 5.137078108947381905e-06
7.923961980990494567e+02 5.151960683516633102e-06
7.932966483241619926e+02 5.166910951865728709e-06
7.941970985492746422e+02 5.181929590672849379e-06
7.950975487743871781e+02 5.197017409504537197e-06
7.959979989994997140e+02 5.212175421724773412e-06
7.968984492246122500e+02 5.227404958593200581e-06
7.977988994497247859e+02 5.242707860574129876e-06
7.986993496748374355e+02 5.258086740489946166e-06
7.995997998999499714e+02 5.273545126456330528e-06
8.005002501250625073e+02 5.289086770132681754e-06
8.014007003501750432e+02 5.304711900995345639e-06
8.023011505752875792e+02 5.320407423858876430e-06
8.032016008004001151e+02 5.336141432647245810e-06
8.041020510255127647e+02 5.351893457113680122e-06
8.050025012506253006e+02 5.367685728667440131e-06
8.059029514757378365e+02 5.383550728147711954e-06
8.068034017008503724e+02 5.399501922513173766e-06
8.077038519259629084e+02 5.415539757534937919e-06
8.086043021510754443e+02 5.431661333040773882e-06
8.095047523761880939e+02 5.447864016932486591e-06
8.104052026013006298e+02 5.464146103027045730e-06
8.113056528264131657e+02 5.480506665545327663e-06
8.122061030515257016e+02 5.496945288469009560e-06
8.131065532766382375e+02 5.513461872335444099e-06
8.140070035017508872e+02 5.530056525979161143e-06
8.149074537268634231e+02 5.546729509433846018e-06
8.158079039519759590e+02 5.563481216591337222e-06
8.167083541770884949e+02 5.580312175380103891e-06
8.176088044022010308e+02 5.597223037847531837e-06
8.185092546273135667e+02 5.614214588560033142e-06
8.194097048524262163e+02 5.631287788116543202e-06
8.203101550775387523e+02 5.648443862834092051e-06
8.212106053026512882e+02 5.665684476392880813e-06
8.221110555277638241e+02 5.683011966934130853e-06
8.230115057528763600e+02 5.700429634357570102e-06
8.239119559779890096e+02 5.717941964361662844e-06
8.248124062031015455e+02 5.735553897541568017e-06
8.257128564282140815e+02 5.753266306431179581e-06
8.266133066533266174e+02 5.771063560160146460e-06
8.275137568784391533e+02 5.788904698927020450e-06
8.284142071035516892e+02 5.806759807438704230e-06
8.293146573286643388e+02 5.824654981243855244e-06
8.302151075537768747e+02 5.842633818280747628e-06
8.311155577788894107e+02 5.860715646621367979e-06
8.320160080040019466e+02 5.878901661838607237e-06
8.329164582291144825e+02 5.897188108165579384e-06
8.338169084542270184e+02 5.915571445989231381e-06
8.347173586793396680e+02 5.934049298421357555e-06
8.356178089044522039e+02 5.952620289674337108e-06
8.365182591295647399e+02 5.971283749225780158e-06
8.374187093546772758e+02 5.990039459949886806e-06
8.383191595797898117e+02 6.008887491854604382e-06
8.392196098049024613e+02 6.027828112134399173e-06
8.401200600300149972e+02 6.046861748168204033e-06
8.410205102551275331e+02 6.065988977719239563e-06
8.419209604802400690e+02 6.085210513576525466e-06
8.428214107053526050e+02 6.104527211419829641e-06
8.437218609304651409e+02 6.123940133677062799e-06
8.446223111555777905e+02 6.143450654092361810e-06
8.455227613806903264e+02 6.163060597746323715e-06
8.464232116058028623e+02 6.182772452523117313e-06
8.473236618309153982e+02 6.202589609878329564e-06
8.482241120560279342e+02 6.222516272486707546e-06
8.491245622811405838e+02 6.242555595716453631e-06
8.500250125062531197e+02 6.262702667703057486e-06
8.509254627313656556e+02 6.282932954674075935e-06
8.518259129564781915e+02 6.303212163023783234e-06
8.527263631815907274e+02 6.323541219743612996e-06
8.536268134067032634e+02 6.343955817061861229e-06
8.545272636318159130e+02 6.364481490656311823e-06
8.554277138569284489e+02 6.385124255054703578e-06
8.563281640820409848e+02 6.405882214614585940e-06
8.572286143071535207e+02 6.426752464889336702e-06
8.581290645322660566e+02 6.447732886529484722e-06
8.590295147573785925e+02 6.468822254596433435e-06
8.599299649824912422e+02 6.490020004431625806e-06
8.608304152076037781e+02 6.511326007104637184e-06
8.617308654327163140e+02 6.532740434542162996e-06
8.626313156578288499e+02 6.554263647183609667e-06
8.635317658829413858e+02 6.575896113740263376e-06
8.644322161080540354e+02 6.597638376888028946e-06
8.653326663331665713e+02 6.619491033434428672e-06
8.662331165582791073e+02 6.641454726641628464e-06
8.671335667833916432e+02 6.663530150094826312e-06
8.680340170085041791e+02 6.685718037484473512e-06
8.689344672336167150e+02 6.708019148250291019e-06
8.698349174587293646e+02 6.730434265594502001e-06
8.707353676838419005e+02 6.752964209366542975e-06
8.716358179089544365e+02 6.775609849595283343e-06
8.725362681340669724e+02 6.798372017420540449e-06
8.734367183591795083e+02 6.821251212485918947e-06
8.743371685842921579e+02 6.844247256553601198e-06
8.752376188094046938e+02 6.867359841411102363e-06
8.761380690345172297e+02 6.890590034221075381e-06
8.770385192596297657e+02 6.913939886322393491e-06
8.779389694847423016e+02 6.937410959205553197e-06
8.788394197098548375e+02 6.961004198968304471e-06
8.797398699349674871e+02 6.984720345792993747e-06
8.806403201600800230e+02 7.008560132843211897e-06
8.815407703851925589e+02 7.032524333489599521e-06
8.824412206103050949e+02 7.056613762758339351e-06
8.833416708354176308e+02 7.080829256453212038e-06
8.842421210605301667e+02 7.105171642879429002e-06
8.851425712856428163e+02 7.129641737892467361e-06
8.860430215107553522e+02 7.154240394470533404e-06
8.869434717358678881e+02 7.178968570807955422e-06
8.878439219609804240e+02 7.203827326160021234e-06
8.887443721860929600e+02 7.228817745372494207e-06
8.896448224112056096e+02 7.253940927908974810e-06
8.905452726363181455e+02 7.279198047011468742e-06
8.914457228614306814e+02 7.304590425036261279e-06
8.923461730865432173e+02 7.330119603745080234e-06
8.932466233116557532e+02 7.355787415885421042e-06
8.941470735367682892e+02 7.381595973645114990e-06
8.950475237618809388e+02 7.407547152205822825e-06
8.959479739869934747e+02 7.433640517314607288e-06
8.968484242121060106e+02 7.459869591390785268e-06
8.977488744372185465e+02 7.486224001439726704e-06
8.986493246623310824e+02 7.512703460536913364e-06
8.995497748874437320e+02 7.539319504022273144e-06
9.004502251125562680e+02 7.566081621156726932e-06
9.013506753376688039e+02 7.592993248759166033e-06
9.022511255627813398e+02 7.620054931972788744e-06
9.031515757878938757e+02 7.647266662955395580e-06
9.040520260130064116e+02 7.674628647099447190e-06
9.049524762381190612e+02 7.702141385279782614e-06
9.058529264632315972e+02 7.729805620476691233e-06
9.067533766883441331e+02 7.757622286161814434e-06
9.076538269134566690e+02 7.785592480945368688e-06
9.085542771385692049e+02 7.813717460672863976e-06
9.094547273636817408e+02 7.841998633190369028e-06
9.103551775887943904e+02 7.870437535471716417e-06
9.112556278139069263e+02 7.899035727049365710e-06
9.121560780390194623e+02 7.927794679848686784e-06
9.130565282641319982e+02 7.956716235359713831e-06
9.139569784892445341e+02 7.985803612636952498e-06
9.148574287143571837e+02 8.015061694694389024e-06
9.157578789394697196e+02 8.044496713828977650e-06
9.166583291645822555e+02 8.074115308453068990e-06
9.175587793896947915e+02 8.103920093419197845e-06
9.184592296148073274e+02 8.133896430742851419e-06
9.193596798399198633e+02 8.163999707487630929e-06
9.202601300650325129e+02 8.194190636502989082e-06
9.211605802901450488e+02 8.224493667309957086e-06
9.220610305152575847e+02 8.254961577368908696e-06
9.229614807403701207e+02 8.285620963103188777e-06
9.238619309654826566e+02 8.316475291264497220e-06
9.247623811905953062e+02 8.347520799955082031e-06
9.256628314157078421e+02 8.378753178021548011e-06
9.265632816408203780e+02 8.410169492294845649e-06
9.274637318659329139e+02 8.441769033124761189e-06
9.283641820910454499e+02 8.473552418759611147e-06
9.292646323161579858e+02 8.505520408694909691e-06
9.301650825412706354e+02 8.537673798964360184e-06
9.310655327663831713e+02 8.570013531905945107e-06
9.319659829914957072e+02 8.602540692618660184e-06
9.328664332166082431e+02 8.635256498523046759e-06
9.337668834417207790e+02 8.668162305926849101e-06
9.346673336668334287e+02 8.701259646010145300e-06
9.355677838919459646e+02 8.734550240097912035e-06
9.364682341170585005e+02 8.768035969529346555e-06
9.373686843421710364e+02 8.801718810192765417e-06
9.382691345672835723e+02 8.835600694882882693e-06
9.391695847923961082e+02 8.869683128665899785e-06
9.400700350175087578e+02 8.903965582452447397e-06
9.409704852426212938e+02 8.938443309438028820e-06
9.418709354677338297e+02 8.973111604234480597e-06
9.427713856928463656e+02 9.007974839227455324e-06
9.436718359179589015e+02 9.043042352261478189e-06
9.445722861430714374e+02 9.078319869469943137e-06
9.454727363681840870e+02 9.113809501282673891e-06
9.463731865932966230e+02 9.149512194639562604e-06
9.472736368184091589e+02 9.185428863089852787e-06
9.481740870435216948e+02 9.221560630392294474e-06
9.490745372686342307e+02 9.257908797091710326e-06
9.499749874937468803e+02 9.294474768508047467e-06
9.508754377188594162e+02 9.331260035889716526e-06
9.517758879439719522e+02 9.368266257739640650e-06
9.526763381690844881e+02 9.405495265173362303e-06
9.535767883941970240e+02 9.442948931515834153e-06
9.544772386193095599e+02 9.480629166208168979e-06
9.553776888444222095e+02 9.518537970927318007e-06
9.562781390695347454e+02 9.556677459792500956e-06
9.571785892946472813e+02 9.595049895366654176e-06
9.580790395197598173e+02 9.633657759582604042e-06
9.589794897448723532e+02 9.672503795066038538e-06
9.598799399699850028e+02 9.711590740050070005e-06
9.607803901950975387e+02 9.750919987690566347e-06
9.616808404202100746e+02 9.790488609794451027e-06
9.625812906453226105e+02 9.830289271451038557e-06
9.634817408704351465e+02 9.870320535853061941e-06
9.643821910955476824e+02 9.910592143004002665e-06
9.652826413206603320e+02 9.951114057274267535e-06
9.661830915457728679e+02 9.991890846436145773e-06
9.670835417708854038e+02 1.003292419699140231e-05
9.679839919959979397e+02 1.007421526111585147e-05
9.688844422211104757e+02 1.011576539953506155e-05
9.697848924462230116e+02 1.015757622575045891e-05
9.706853426713356612e+02 1.019964954614700054e-05
9.715857928964481971e+02 1.024198731124443907e-05
9.724862431215607330e+02 1.028459155093017666e-05
9.733866933466732689e+02 1.032746433406306099e-05
9.742871435717858049e+02 1.037060782150513886e-05
9.751875937968984545e+02 1.041402432286446624e-05
9.760880440220109904e+02 1.045771624079762667e-05
9.769884942471235263e+02 1.050168602066752917e-05
9.778889444722360622e+02 1.054593616609396922e-05
9.787893946973485981e+02 1.059046926904560583e-05
9.796898449224611340e+02 1.063528802828331286e-05
9.805902951475737837e+02 1.068039515560210210e-05
9.814907453726863196e+02 1.072579293206230188e-05
9.823911955977988555e+02 1.077148217432017426e-05
9.832916458229113914e+02 1.081746204140435493e-05
9.841920960480239273e+02 1.086373362016549186e-05
9.850925462731365769e+02 1.091030215940378258e-05
9.859929964982491128e+02 1.095717321291106749e-05
9.868934467233616488e+02 1.100435043092377414e-05
9.877938969484741847e+02 1.105183643302732034e-05
9.886943471735867206e+02 1.109963364163991047e-05
9.895947973986992565e+02 1.114774456389427535e-05
9.904952476238119061e+02 1.119617184135316983e-05
9.913956978489244420e+02 1.124491824705624333e-05
9.922961480740369780e+02 1.129398667307358687e-05
9.931965982991495139e+02 1.134338013591335577e-05
9.940970485242620498e+02 1.139310186050838811e-05
9.949974987493745857e+02 1.144315537598713684e-05
9.958979489744872353e+02 1.149354457597201919e-05
9.967983991995997712e+02 1.154427384585662014e-05
9.976988494247123072e+02 1.159534833052123141e-05
9.985992996498248431e+02 1.164677432883220740e-05
9.994997498749373790e+02 1.169855967876529994e-05
1.000400200100050029e+03 1.175071338017069391e-05
1.001300650325162565e+03 1.180324170424140143e-05
1.002201100550275100e+03 1.185613504916921628e-05
1.003101550775387636e+03 1.190935037158534924e-05
1.004002001000500172e+03 1.196283786027153140e-05
1.004902451225612708e+03 1.201661334063855862e-05
1.005802901450725358e+03 1.207073873289642154e-05
1.006703351675837894e+03 1.212525239866748239e-05
1.007603801900950430e+03 1.218016330645922691e-05
1.008504252126062966e+03 1.223546998682527115e-05
1.009404702351175501e+03 1.229117015178405518e-05
1.010305152576288151e+03 1.234726296588039477e-05
1.011205602801400687e+03 1.240374903963847908e-05
1.012106053026513223e+03 1.246063004349597633e-05
1.013006503251625759e+03 1.251790836643796696e-05
1.013906953476738295e+03 1.257558686586761122e-05
1.014807403701850831e+03 1.263366872271040112e-05
1.015707853926963480e+03 1.269215736036244849e-05
1.016608304152076016e+03 1.275105639677615534e-05
1.017508754377188552e+03 1.281036965098290467e-05
1.018409204602301088e+03 1.287010116138999864e-05
1.019309654827413624e+03 1.293025518106467567e-05
1.020210105052526160e+03 1.299083612451770522e-05
1.021110555277638809e+03 1.305184820530246231e-05
1.022011005502751345e+03 1.311329421584978428e-05
1.022911455727863881e+03 1.317517387974555277e-05
1.023811905952976417e+03 1.323748635912084795e-05
1.024712356178089067e+03 1.330023701850659047e-05
1.025612806403201603e+03 1.336343554666880347e-05
1.026513256628314139e+03 1.342708948283785907e-05
1.027413706853426675e+03 1.349120371460929052e-05
1.028314157078539210e+03 1.355578220933644152e-05
1.029214607303651746e+03 1.362082884930466593e-05
1.030115057528764282e+03 1.368634767604171837e-05
1.031015507753876818e+03 1.375234302610020531e-05
1.031915957978989354e+03 1.381881946816368620e-05
1.032816408204101890e+03 1.388578163880227042e-05
1.033716858429214653e+03 1.395323421557407129e-05
1.034617308654327189e+03 1.402118199420244026e-05
1.035517758879439725e+03 1.408962996879560283e-05
1.036418209104552261e+03 1.415858334132496068e-05
1.037318659329664797e+03 1.422804752920203506e-05
1.038219109554777333e+03 1.429802821814271639e-05
1.039119559779889869e+03 1.436853136676102883e-05
1.040020010005002405e+03 1.443956289458776301e-05
1.040920460230114941e+03 1.451112734357751855e-05
1.041820910455227477e+03 1.458322498902899510e-05
1.042721360680340013e+03 1.465585206082212245e-05
1.043621810905452776e+03 1.472901112237555348e-05
1.044522261130565312e+03 1.480271550666725770e-05
1.045422711355677848e+03 1.487697832829701229e-05
1.046323161580790384e+03 1.495180747973132852e-05
1.047223611805902920e+03 1.502720827309416183e-05
1.048124062031015455e+03 1.510318565363995375e-05
1.049024512256127991e+03 1.517974481332837979e-05
1.049924962481240527e+03 1.525689123564910936e-05
1.050825412706353063e+03 1.533463066584500627e-05
1.051725862931465599e+03 1.541296910247746274e-05
1.052626313156578135e+03 1.549191280598351074e-05
1.053526763381690898e+03 1.557146835394338695e-05
1.054427213606803434e+03 1.565164271661455517e-05
1.055327663831915970e+03 1.573244333841742102e-05
1.056228114057028506e+03 1.581387824893292483e-05
1.057128564282141042e+03 1.589595621994770836e-05
1.058029014507253578e+03 1.597868657549491469e-05
1.058929464732366114e+03 1.606207730448375043e-05
1.059829914957478650e+03 1.614612925436188033e-05
1.060730365182591186e+03 1.623082852684392606e-05
1.061630815407703722e+03 1.631615680060341330e-05
1.062531265632816257e+03 1.640212453361358813e-05
1.063431715857929021e+03 1.648876635739581536e-05
1.064332166083041557e+03 1.657610753048486749e-05
1.065232616308154093e+03 1.666415887125463762e-05
1.066133066533266629e+03 1.675292572864541400e-05
1.067033516758379164e+03 1.684241289799380298e-05
1.067933966983491700e+03 1.693262590795514776e-05
1.068834417208604236e+03 1.702357112538124373e-05
1.069734867433716772e+03 1.711525550994175805e-05
1.070635317658829308e+03 1.720768642344064348e-05
1.071535767883941844e+03 1.730087160853450336e-05
1.072436218109054380e+03 1.739481915168055159e-05
1.073336668334167143e+03 1.748953735363284064e-05
1.074237118559279679e+03 1.758503466706618615e-05
1.075137568784392215e+03 1.768131979094442270e-05
1.076038019009504751e+03 1.777840175030129862e-05
1.076938469234617287e+03 1.787628955479661952e-05
1.077838919459729823e+03 1.797499108121152191e-05
1.078739369684842359e+03 1.807451169854738847e-05
1.079639819909954895e+03 1.817485653743851958e-05
1.080540270135067431e+03 1.827603607390770836e-05
1.081440720360179967e+03 1.837806428205836066e-05
1.082341170585292502e+03 1.848095327618084501e-05
1.083241620810405038e+03 1.858471295140698767e-05
1.084142071035517802e+03 1.868935259449258432e-05
1.085042521260630338e+03 1.879488181069152714e-05
1.085942971485742873e+03 1.890131058435667546e-05
1.086843421710855409e+03 1.900864913436753028e-05
1.087743871935967945e+03 1.911690789046311390e-05
1.088644322161080481e+03 1.922609751007771538e-05
1.089544772386193017e+03 1.933622894980637825e-05
1.090445222611305553e+03 1.944731356163733352e-05
1.091345672836418089e+03 1.955936322838141417e-05
1.092246123061530625e+03 1.967239045656883514e-05
1.093146573286643161e+03 1.978640801223388934e-05
1.094047023511755924e+03 1.990142755150082373e-05
1.094947473736868460e+03 2.001745577048568155e-05
1.095847923961980996e+03 2.013449081880180439e-05
1.096748374187093532e+03 2.025253329529783694e-05
1.097648824412206068e+03 2.037160289407215157e-05
1.098549274637318604e+03 2.049172700590438836e-05
1.099449724862431140e+03 2.061292524162332648e-05
1.100350175087543676e+03 2.073521080925794254e-05
1.101250625312656211e+03 2.085859518834675791e-05
1.102151075537768747e+03 2.098309006704134153e-05
1.103051525762881283e+03 2.110870769709926494e-05
1.103951975987994047e+03 2.123546086004026045e-05
1.104852426213106583e+03 2.136336289225879986e-05
1.105752876438219118e+03 2.149242768709632670e-05
1.106653326663331654e+03 2.162266959288166083e-05
1.107553776888444190e+03 2.175410331736303565e-05
1.108454227113556726e+03 2.188674388192699059e-05
1.109354677338669262e+03 2.202060643951641130e-05
1.110255127563781798e+03 2.215570526713954365e-05
1.111155577788894334e+03 2.229205162264576653e-05
1.112056028014006870e+03 2.242965453792306632e-05
1.112956478239119406e+03 2.256852857395430479e-05
1.113856928464232169e+03 2.270869558468392407e-05
1.114757378689344705e+03 2.285017686106049172e-05
1.115657828914457241e+03 2.299299048365641688e-05
1.116558279139569777e+03 2.313715313675519127e-05
1.117458729364682313e+03 2.328268144993569678e-05
1.118359179589794849e+03 2.342959248189803136e-05
1.119259629814907385e+03 2.357790391516241088e-05
1.120160080040019920e+03 2.372763427550717238e-05
1.121060530265132456e+03 2.387880315013494396e-05
1.121960980490244992e+03 2.403143124769087518e-05
1.122861430715357528e+03 2.418554015524856945e-05
1.123761880940470292e+03 2.434115085829376227e-05
1.124662331165582827e+03 2.449827813401183582e-05
1.125562781390695363e+03 2.465692120347502892e-05
1.126463231615807899e+03 2.481707249110608432e-05
1.127363681840920435e+03 2.497875393438863100e-05
1.128264132066032971e+03 2.514201483720251239e-05
1.129164582291145507e+03 2.530689637503311644e-05
1.130065032516258043e+03 2.547342542103377006e-05
1.130965482741370579e+03 2.564162359890348992e-05
1.131865932966483115e+03 2.581151259643819012e-05
1.132766383191595651e+03 2.598311694140077854e-05
1.133666833416708187e+03 2.615646540896806642e-05
1.134567283641820950e+03 2.633158925551325888e-05
1.135467733866933486e+03 2.650851796931787943e-05
1.136368184092046022e+03 2.668727070353121627e-05
1.137268634317158558e+03 2.686783941583266558e-05
1.138169084542271094e+03 2.705016914665390467e-05
1.139069534767383630e+03 2.723421002036237890e-05
1.139969984992496165e+03 2.742002489693138784e-05
1.140870435217608701e+03 2.760773739112965170e-05
1.141770885442721237e+03 2.779742885628783502e-05
1.142671335667833773e+03 2.798913184779775113e-05
1.143571785892946309e+03 2.818285698978721180e-05
1.144472236118059072e+03 2.837861676462698215e-05
1.145372686343171608e+03 2.857643913113267698e-05
1.146273136568284144e+03 2.877635763984824131e-05
1.147173586793396680e+03 2.897839975328882689e-05
1.148074037018509216e+03 2.918258611797597111e-05
1.148974487243621752e+03 2.938893785336597238e-05
1.149874937468734288e+03 2.959748860607009486e-05
1.150775387693846824e+03 2.980828134897824366e-05
1.151675837918959360e+03 3.002135825682519942e-05
1.152576288144071896e+03 3.023675851855485444e-05
1.153476738369184432e+03 3.045451599981899751e-05
1.154377188594297195e+03 3.067464650437968539e-05
1.155277638819409731e+03 3.089713597266686122e-05
1.156178089044522267e+03 3.112198036744246203e-05
1.157078539269634803e+03 3.134924250476494071e-05
1.157978989494747339e+03 3.157900576056394532e-05
1.158879439719859874e+03 3.181131431511821466e-05
1.159779889944972410e+03 3.204619071528419332e-05
1.160680340170084946e+03 3.228367576306432371e-05
1.161580790395197482e+03 3.252382340047861212e-05
1.162481240620310018e+03 3.276667998492564381e-05
1.163381690845422554e+03 3.301228452625454849e-05
1.164282141070535317e+03 3.326067469855596638e-05
1.165182591295647853e+03 3.351188941647611537e-05
1.166083041520760389e+03 3.376596926348687447e-05
1.166983491745872925e+03 3.402295633932681527e-05
1.167883941970985461e+03 3.428289405675786881e-05
1.168784392196097997e+03 3.454582699527178520e-05
1.169684842421210533e+03 3.481180081170108645e-05
1.170585292646323069e+03 3.508086219079047243e-05
1.171485742871435605e+03 3.535305882152345617e-05
1.172386193096548141e+03 3.562843938974541837e-05
1.173286643321660677e+03 3.590705358121821150e-05
1.174187093546773440e+03 3.618895209151522582e-05
1.175087543771885976e+03 3.647418664054547009e-05
1.175987993996998512e+03 3.676280999035861746e-05
1.176888444222111048e+03 3.705487596536213016e-05
1.177788894447223583e+03 3.735043947441633080e-05
1.178689344672336119e+03 3.764955653445836806e-05
1.179589794897448655e+03 3.795228429543041671e-05
1.180490245122561191e+03 3.825868106637167368e-05
1.181390695347673727e+03 3.856880634258274540e-05
1.182291145572786263e+03 3.888272083380341169e-05
1.183191595797898799e+03 3.920048649338567378e-05
1.184092046023011562e+03 3.952216654843391738e-05
1.184992496248124098e+03 3.984782553092114913e-05
1.185892946473236634e+03 4.017752930978615817e-05
1.186793396698349170e+03 4.051134512402380011e-05
1.187693846923461706e+03 4.084934161679150373e-05
1.188594297148574242e+03 4.119158887055373859e-05
1.189494747373686778e+03 4.153815844329081009e-05
1.190395197598799314e+03 4.188912340580461631e-05
1.191295647823911850e+03 4.224455838014698792e-05
1.192196098049024386e+03 4.260453957921813957e-05
1.193096548274136921e+03 4.296914484755792675e-05
1.193996998499249457e+03 4.333845370337536314e-05
1.194897448724362221e+03 4.371254738186184009e-05
1.195797898949474757e+03 4.409150887982052011e-05
1.196698349174587293e+03 4.447542300166511161e-05
1.197598799399699828e+03 4.486437640683285660e-05
1.198499249624812364e+03 4.525845765865806069e-05
1.199399699849924900e+03 4.565775727476029420e-05
1.200300150075037436e+03 4.606236777899870295e-05
1.201200600300149972e+03 4.647238375504993217e-05
1.202101050525262508e+03 4.688790190166352797e-05
1.203001500750375044e+03 4.730902108966020063e-05
1.203901950975487580e+03 4.773584242073190310e-05
1.204802401200600343e+03 4.816846928811055229e-05
1.205702851425712879e+03 4.860700743917373853e-05
1.206603301650825415e+03 4.905156504006076952e-05
1.207503751875937951e+03 4.950225274236807164e-05
1.208404202101050487e+03 4.995918375200932298e-05
1.209304652326163023e+03 5.042247390031618493e-05
1.210205102551275559e+03 5.089224171746628740e-05
1.211105552776388095e+03 5.136860850833342322e-05
1.212006003001500630e+03 5.185169843084872773e-05
1.212906453226613166e+03 5.234163857697672362e-05
1.213806903451725702e+03 5.283855905641686706e-05
1.214707353676838466e+03 5.334259308314109562e-05
1.215607803901951002e+03 5.385387706490286951e-05
1.216508254127063537e+03 5.437255069585453227e-05
1.217408704352176073e+03 5.489875705244146248e-05
1.218309154577288609e+03 5.543264269276552340e-05
1.219209604802401145e+03 5.597435775966637053e-05
1.220110055027513681e+03 5.652405608783223724e-05
1.221010505252626217e+03 5.708189531539453336e-05
1.221910955477738753e+03 5.764803700063914619e-05
1.222811405702851289e+03 5.822264674481655486e-05
1.223711855927963825e+03 5.880589432250774972e-05
1.224612306153076588e+03 5.939795382162995577e-05
1.225512756378189124e+03 5.999900379516445194e-05
1.226413206603301660e+03 6.060922742287659399e-05
1.227313656828414196e+03 6.122881266079520173e-05
1.228214107053526732e+03 6.185795228301492249e-05
1.229114557278639268e+03 6.249684357067282080e-05
1.230015007503751804e+03 6.314568756952055782e-05
1.230915457728864340e+03 6.380468933164305085e-05
1.231815907953976875e+03 6.447406057516335426e-05
1.232716358179089411e+03 6.515402132339857930e-05
1.233616808404201947e+03 6.584479800233714486e-05
1.234517258629314711e+03 6.654662131028899364e-05
1.235417708854427246e+03 6.725972781743349237e-05
1.236318159079539782e+03 6.798436191486928080e-05
1.237218609304652318e+03 6.872077456166939382e-05
1.238119059529764854e+03 6.946922237769418914e-05
1.239019509754877390e+03 7.022996840167321773e-05
1.239919959979989926e+03 7.100328327785494699e-05
1.240820410205102462e+03 7.178944552200890628e-05
1.241720860430214998e+03 7.258874124695670847e-05
1.242621310655327534e+03 7.340146433303801343e-05
1.243521760880440070e+03 7.422791688733671801e-05
1.244422211105552606e+03 7.506840962482828601e-05
1.245322661330665369e+03 7.592326235439195257e-05
1.246223111555777905e+03 7.679280426278602774e-05
1.247123561780890441e+03 7.767737387957413247e-05
1.248024012006002977e+03 7.857731947791278310e-05
1.248924462231115513e+03 7.949299959337885826e-05
1.249824912456228049e+03 8.042478307192662569e-05
1.250725362681340584e+03 8.137304922123732396e-05
1.251625812906453120e+03 8.233818854731542549e-05
1.252526263131565656e+03 8.332060370745838183e-05
1.253426713356678192e+03 8.432070985913264879e-05
1.254327163581790728e+03 8.533893470551542253e-05
1.255227613806903491e+03 8.637571876946847633e-05
1.256128064032016027e+03 8.743151582862082171e-05
1.257028514257128563e+03 8.850679332440621765e-05
1.257928964482241099e+03 8.960203296048921027e-05
1.258829414707353635e+03 9.071773166937334171e-05
1.259729864932466171e+03 9.185440237726474584e-05
1.260630315157578707e+03 9.301257430705203873e-05
1.261530765382691243e+03 9.419279339786676896e-05
1.262431215607803779e+03 9.539562292379141046e-05
1.263331665832916315e+03 9.662164417008620501e-05
1.264232116058028851e+03 9.787145727827630546e-05
1.265132566283141614e+03 9.914568211786852338e-05
1.266033016508254150e+03 1.004449591023484742e-04
1.266933466733366686e+03 1.017699499015958521e-04
1.267833916958479222e+03 1.031213381116147601e-04
1.268734367183591758e+03 1.044998302009873868e-04
1.269634817408704293e+03 1.059061571045480111e-04
1.270535267633816829e+03 1.073410762915747840e-04
1.271435717858929365e+03 1.088053729648011186e-04
1.272336168084041901e+03 1.102998606511714332e-04
1.273236618309154437e+03 1.118253810412595065e-04
1.274137068534266973e+03 1.133827991449315914e-04
1.275037518759379736e+03 1.149729926582603148e-04
1.275937968984492272e+03 1.165968555821970021e-04
1.276838419209604808e+03 1.182553321832366996e-04
1.277738869434717344e+03 1.199494254853258456e-04
1.278639319659829880e+03 1.216801770437991637e-04
1.279539769884942416e+03 1.234486641591835295e-04
1.280440220110054952e+03 1.252560057581109695e-04
1.281340670335167488e+03 1.271033679536929248e-04
1.282241120560280024e+03 1.289919389242341369e-04
1.283141570785392560e+03 1.309228950384260827e-04
1.284042021010505096e+03 1.328974376531219797e-04
1.284942471235617859e+03 1.349168729987631848e-04
1.285842921460730395e+03 1.369825960470472061e-04
1.286743371685842931e+03 1.390960504101065474e-04
1.287643821910955467e+03 1.412587364069579367e-04
1.288544272136068003e+03 1.434722536825378783e-04
1.289444722361180538e+03 1.457382672409927285e-04
1.290345172586293074e+03 1.480584655384498149e-04
1.291245622811405610e+03 1.504345763770536593e-04
1.292146073036518146e+03 1.528683928777413675e-04
1.293046523261630682e+03 1.553617809539361682e-04
1.293946973486743218e+03 1.579166956080903586e-04
1.294847423711855754e+03 1.605352017485220297e-04
1.295747873936968517e+03 1.632194585317006024e-04
1.296648324162081053e+03 1.659717085586172975e-04
1.297548774387193589e+03 1.687942748177801019e-04
1.298449224612306125e+03 1.716895047678173225e-04
1.299349674837418661e+03 1.746596964446322663e-04
1.300250125062531197e+03 1.777072188900747783e-04
1.301150575287643733e+03 1.808348102742862490e-04
1.302051025512756269e+03 1.840455518332815481e-04
1.302951475737868805e+03 1.873426105684755357e-04
1.303851925962981340e+03 1.907291767458032920e-04
1.304752376188093876e+03 1.942085174897805952e-04
1.305652826413206640e+03 1.977840162350425282e-04
1.306553276638319176e+03 2.014592106772698159e-04
1.307453726863431712e+03 2.052378261761559578e-04
1.308354177088544247e+03 2.091237775237920647e-04
1.309254627313656783e+03 2.131211577171214348e-04
1.310155077538769319e+03 2.172342504647479958e-04
1.311055527763881855e+03 2.214675538615349900e-04
1.311955977988994391e+03 2.258257957878818804e-04
1.312856428214106927e+03 2.303139417943581328e-04
1.313756878439219463e+03 2.349372040521935758e-04
1.314657328664331999e+03 2.397010608953617928e-04
1.315557778889444762e+03 2.446112784710255286e-04
1.316458229114557298e+03 2.496739187092850859e-04
1.317358679339669834e+03 2.548953370178216817e-04
1.318259129564782370e+03 2.602822079221178090e-04
1.319159579789894906e+03 2.658415838509770642e-04
1.320060030015007442e+03 2.715809159083820679e-04
1.320960480240119978e+03 2.775080417096532958e-04
1.321860930465232514e+03 2.836312342808943354e-04
1.322761380690345050e+03 2.899592624304715661e-04
1.323661830915457585e+03 2.965013903692747328e-04
1.324562281140570121e+03 3.032673693056637631e-04
1.325462731365682885e+03 3.102675003241365343e-04
1.326363181590795421e+03 3.175127350418556612e-04
1.327263631815907956e+03 3.250146832417066356e-04
1.328164082041020492e+03 3.327856096755274495e-04
1.329064532266133028e+03 3.408384960193061326e-04
1.329964982491245564e+03 3.491871098263714022e-04
1.330865432716358100e+03 3.578459936673372417e-04
1.331765882941470636e+03 3.668305785563314879e-04
1.332666333166583172e+03 3.761574818024648512e-04
1.333566783391695708e+03 3.858445072180937394e-04
1.334467233616808244e+03 3.959105053952890639e-04
1.335367683841921007e+03 4.063754431455525321e-04
1.336268134067033543e+03 4.172605892742031362e-04
1.337168584292146079e+03 4.285887300442867251e-04
1.338069034517258615e+03 4.403842812897606801e-04
1.338969484742371151e+03 4.526733338831495429e-04
1.339869934967483687e+03 4.654837823304014042e-04
1.340770385192596223e+03 4.788455034508037650e-04
1.341670835417708759e+03 4.927905494219437079e-04
1.342571285642821294e+03 5.073533203678041092e-04
1.343471735867933830e+03 5.225707193085819694e-04
1.344372186093046366e+03 5.384824188149435129e-04
1.345272636318158902e+03 5.551312798289832762e-04
1.346173086543271666e+03 5.725636560826567354e-04
1.347073536768384201e+03 5.908295814626701855e-04
1.347973986993496737e+03 6.099830631060955757e-04
1.348874437218609273e+03 6.300824786183400724e-04
1.349774887443721809e+03 6.511910236829530256e-04
1.350675337668834345e+03 6.733772494317416058e-04
1.351575787893946881e+03 6.967156555068695824e-04
1.352476238119059417e+03 7.212873364117436577e-04
1.353376688344171953e+03 7.471807488945173209e-04
1.354277138569284489e+03 7.744924238835136816e-04
1.355177588794397025e+03 8.033278383705115240e-04
1.356078039019509788e+03 8.338024985862845873e-04
1.356978489244622324e+03 8.660428442903861119e-04
1.357878939469734860e+03 9.001869636924254240e-04
1.358779389694847396e+03 9.363858246054564821e-04
1.359679839919959932e+03 9.748066313656430799e-04
1.360580290145072468e+03 1.015636381792647293e-03
1.361480740370185003e+03 1.059082354727922635e-03
1.362381190595297539e+03 1.105373108246600041e-03
1.363281640820410075e+03 1.154761778089608395e-03
1.364182091045522611e+03 1.207530228827902001e-03
1.365082541270635147e+03 1.263993251987279931e-03
1.365982991495747910e+03 1.324502844396804619e-03
1.366883441720860446e+03 1.389453417642899560e-03
1.367783891945972982e+03 1.459288623045519899e-03
1.368684342171085518e+03 1.534509820719302938e-03
1.369584792396198054e+03 1.615685079305827264e-03
1.370485242621310590e+03 1.703458738873342426e-03
1.371385692846423126e+03 1.798563618431314824e-03
1.372286143071535662e+03 1.901836463302896980e-03
1.373186593296648198e+03 2.014236705399421578e-03
1.374087043521760734e+03 2.136868700952845781e-03
1.374987493746873270e+03 2.271008259772210828e-03
1.375887943971986033e+03 2.418135354270998464e-03
1.376788394197098569e+03 2.579974731058204060e-03
1.377688844422211105e+03 2.758546183259826760e-03
1.378589294647323641e+03 2.956226787674463580e-03
1.379489744872436177e+03 3.175828743033650130e-03
1.380390195097548713e+03 3.420697975062873212e-03
1.381290645322661248e+03 3.694839874746465042e-03
1.382191095547773784e+03 4.003080399087540799e-03
1.383091545772886320e+03 4.351274467253700602e-03
1.383991995997998856e+03 4.746578930330880471e-03
1.384892446223111392e+03 5.197813288353648163e-03
1.385792896448224155e+03 5.715939164238599025e-03
1.386693346673336691e+03 6.314706741633864355e-03
1.387593796898449227e+03 7.011542889858901791e-03
1.388494247123561763e+03 7.828785620362731235e-03
1.389394697348674299e+03 8.795409581879302247e-03
1.390295147573786835e+03 9.949481358790044153e-03
1.391195597798899371e+03 1.134172713450481811e-02
1.392096048024011907e+03 1.304079767116280396e-02
1.392996498249124443e+03 1.514117384253884507e-02
1.393896948474236979e+03 1.777526081108722969e-02
1.394797398699349515e+03 2.113222096432694833e-02
1.395697848924462278e+03 2.548776620411486935e-02
1.396598299149574814e+03 3.125175498267318552e-02
1.397498749374687350e+03 3.904388226968404096e-02
1.398399199599799886e+03 4.980935398638586253e-02
1.399299649824912422e+03 6.497186289741024856e-02
1.400200100050024957e+03 8.653163530913682289e-02
1.401100550275137493e+03 1.166560599399260739e-01
1.402001000500250029e+03 1.553155584047398452e-01
1.402901450725362565e+03 1.939854587915524065e-01
1.403801900950475101e+03 2.118217299425242395e-01
1.404702351175587637e+03 1.947144069409207368e-01
1.405602801400700173e+03 1.562529482523089264e-01
1.406503251625812936e+03 1.174506833213342372e-01
1.407403701850925472e+03 8.711525260498093060e-02
1.408304152076038008e+03 6.538354001237410562e-02
1.409204602301150544e+03 5.009992727789782524e-02
1.410105052526263080e+03 3.925223264731638600e-02
1.411005502751375616e+03 3.140425305431603781e-02
1.411905952976488152e+03 2.560180166003247354e-02
1.412806403201600688e+03 2.121926512095362663e-02
1.413706853426713224e+03 1.784297157706100229e-02
1.414607303651825760e+03 1.519475103711378020e-02
1.415507753876938295e+03 1.308384194287829684e-02
1.416408204102051059e+03 1.137678394784168677e-02
1.417308654327163595e+03 9.978385859604107719e-03
1.418209104552276131e+03 8.819507737072714362e-03
1.419109554777388666e+03 7.849077881526439829e-03
1.420010005002501202e+03 7.028780482190704129e-03
1.420910455227613738e+03 6.329462525707743072e-03
1.421810905452726274e+03 5.728660152724650637e-03
1.422711355677838810e+03 5.208853511612780186e-03
1.423611805902951346e+03 4.756220569986715184e-03
1.424512256128063882e+03 4.359744265062781218e-03
1.425412706353176418e+03 4.010561810511436773e-03
1.426313156578289181e+03 3.701482011965690454e-03
1.427213606803401717e+03 3.426623031881068267e-03
1.428114057028514253e+03 3.181138003276639398e-03
1.429014507253626789e+03 2.961005002724551114e-03
1.429914957478739325e+03 2.762864145088451094e-03
1.430815407703851861e+03 2.583890282182536597e-03
1.431715857928964397e+03 2.421694567581734927e-03
1.432616308154076933e+03 2.274249612815645340e-03
1.433516758379189469e+03 2.139827542677556933e-03
1.434417208604302004e+03 2.016945831672689940e-03
1.435317658829414540e+03 1.904325442670453577e-03
1.436218109054527304e+03 1.800858893204570219e-03
1.437118559279639840e+03 1.705584070452443365e-03
1.438019009504752376e+03 1.617662362171716842e-03
1.438919459729864911e+03 1.536360387400271220e-03
1.439819909954977447e+03 1.461034302479004244e-03
1.440720360180089983e+03 1.391114910906104821e-03
1.441620810405202519e+03 1.326091922630648259e-03
1.442521260630315055e+03 1.265503261450262769e-03
1.443421710855427591e+03 1.208942087737714622e-03
1.444322161080540127e+03 1.156062994442860975e-03
1.445222611305652663e+03 1.106565738921722096e-03
1.446123061530765426e+03 1.060177258935982936e-03
1.447023511755877962e+03 1.016645796761362014e-03
1.447923961980990498e+03 9.757416288403514487e-04
1.448824412206103034e+03 9.372569907147356447e-04
1.449724862431215570e+03 9.010043519286016662e-04
1.450625312656328106e+03 8.668141916627082047e-04
1.451525762881440642e+03 8.345327938601748881e-04
1.452426213106553178e+03 8.040201232802743521e-04
1.453326663331665713e+03 7.751483217000174541e-04
1.454227113556778249e+03 7.478015041980567643e-04
1.455127563781890785e+03 7.218749349142594609e-04
1.456028014007003321e+03 6.972727984930621181e-04
1.456928464232116085e+03 6.739068499091621948e-04
1.457828914457228620e+03 6.516959214797073043e-04
1.458729364682341156e+03 6.305654385198205310e-04
1.459629814907453692e+03 6.104467787731732847e-04
1.460530265132566228e+03 5.912763728309809947e-04
1.461430715357678764e+03 5.729944361507482856e-04
1.462331165582791300e+03 5.555444590956028347e-04
1.463231615807903836e+03 5.388753691394762221e-04
1.464132066033016372e+03 5.229426193619099396e-04
1.465032516258128908e+03 5.077053745058695720e-04
1.465932966483241444e+03 4.931246545145699873e-04
1.466833416708354207e+03 4.791634357678717718e-04
1.467733866933466743e+03 4.657870130256593316e-04
1.468634317158579279e+03 4.529630528857160631e-04
1.469534767383691815e+03 4.406614609910410366e-04
1.470435217608804351e+03 4.288542052867173101e-04
1.471335667833916887e+03 4.175151342779823182e-04
1.472236118059029423e+03 4.066197961254810686e-04
1.473136568284141958e+03 3.961452810018703551e-04
1.474037018509254494e+03 3.860701510217080194e-04
1.474937468734367030e+03 3.763744151840148927e-04
1.475837918959479566e+03 3.670393800593764336e-04
1.476738369184592329e+03 3.580474848340436359e-04
1.477638819409704865e+03 3.493822314283781668e-04
1.478539269634817401e+03 3.410281443329693518e-04
1.479439719859929937e+03 3.329706958751065394e-04
1.480340170085042473e+03 3.251961178587622274e-04
1.481240620310155009e+03 3.176910149068665852e-04
1.482141070535267545e+03 3.104420113033389819e-04
1.483041520760380081e+03 3.034363218733847432e-04
1.483941970985492617e+03 2.966631842738489625e-04
1.484842421210605153e+03 2.901136649348461083e-04
1.485742871435717689e+03 2.837790139940896410e-04
1.486643321660830452e+03 2.776502731414750408e-04
1.487543771885942988e+03 2.717186964297583205e-04
1.488444222111055524e+03 2.659759888366189243e-04
1.489344672336168060e+03 2.604142750331681056e-04
1.490245122561280596e+03 2.550257963530659340e-04
1.491145572786393132e+03 2.498024241523875066e-04
1.492046023011505667e+03 2.447360470202427436e-04
1.492946473236618203e+03 2.398203189798939487e-04
1.493846923461730739e+03 2.350505635304130016e-04
1.494747373686843275e+03 2.304219916935993588e-04
1.495647823911955811e+03 2.259293441652129690e-04
1.496548274137068574e+03 2.215673349208259241e-04
1.497448724362181110e+03 2.173309049183155546e-04
1.498349174587293646e+03 2.132152598970749686e-04
1.499249624812406182e+03 2.092157903477154506e-04
1.500150075037518718e+03 2.053278974984953844e-04
1.501050525262631254e+03 2.015469123716811194e-04
1.501950975487743790e+03 1.978685631074381709e-04
1.502851425712856326e+03 1.942894640750414935e-04
1.503751875937968862e+03 1.908065823127395747e-04
1.504652326163081398e+03 1.874167256848488375e-04
1.505552776388193934e+03 1.841166289684691691e-04
1.506453226613306470e+03 1.809031156883744338e-04
1.507353676838419233e+03 1.777731527284695404e-04
1.508254127063531769e+03 1.747238568440953783e-04
1.509154577288644305e+03 1.717525006365766603e-04
1.510055027513756841e+03 1.688565029092976453e-04
1.510955477738869376e+03 1.660334105226825535e-04
1.511855927963981912e+03 1.632808895096701264e-04
1.512756378189094448e+03 1.605966885363268226e-04
1.513656828414206984e+03 1.579784876657900445e-04
1.514557278639319520e+03 1.554236817005195937e-04
1.515457728864432056e+03 1.529296872291278247e-04
1.516358179089544592e+03 1.504947917479588203e-04
1.517258629314657355e+03 1.481178528041308257e-04
1.518159079539769891e+03 1.457972362205551067e-04
1.519059529764882427e+03 1.435305279531563208e-04
1.519959979989994963e+03 1.413153225971167559e-04
1.520860430215107499e+03 1.391501325983059460e-04
1.521760880440220035e+03 1.370337662228664059e-04
1.522661330665332571e+03 1.349649632794735251e-04
1.523561780890445107e+03 1.329426954064540621e-04
1.524462231115557643e+03 1.309658815122049234e-04
1.525362681340670179e+03 1.290332322678889730e-04
1.526263131565782714e+03 1.271433720045926023e-04
1.527163581790895478e+03 1.252949050379428061e-04
1.528064032016008014e+03 1.234864667806931892e-04
1.528964482241120550e+03 1.217168681618782005e-04
1.529864932466233086e+03 1.199851049275936428e-04
1.530765382691345621e+03 1.182902021377944525e-04
1.531665832916458157e+03 1.166311570620353900e-04
1.532566283141570693e+03 1.150069366245121100e-04
1.533466733366683229e+03 1.134164638099365561e-04
1.534367183591795765e+03 1.118586762354647726e-04
1.535267633816908301e+03 1.103326024780853110e-04
1.536168084042020837e+03 1.088374057414748301e-04
1.537068534267133600e+03 1.073724090230833487e-04
1.537968984492246136e+03 1.059368741503046693e-04
1.538869434717358672e+03 1.045298586198646352e-04
1.539769884942471208e+03 1.031504715102673266e-04
1.540670335167583744e+03 1.017981312971106926e-04
1.541570785392696280e+03 1.004723484978411091e-04
1.542471235617808816e+03 9.917249840205945614e-05
1.543371685842921352e+03 9.789779568200762834e-05
1.544272136068033888e+03 9.664737764084203040e-05
1.545172586293146423e+03 9.542057182003406326e-05
1.546073036518258959e+03 9.421696445119423491e-05
1.546973486743371723e+03 9.303612210195470842e-05
1.547873936968484259e+03 9.187744309059965358e-05
1.548774387193596795e+03 9.074020268983357422e-05
1.549674837418709330e+03 8.962376854777777890e-05
1.550575287643821866e+03 8.852774223475923796e-05
1.551475737868934402e+03 8.745177964501628495e-05
1.552376188094046938e+03 8.639545647870267193e-05
1.553276638319159474e+03 8.535829550152145072e-05
1.554177088544272010e+03 8.433982714880701480e-05
1.555077538769384546e+03 8.333964576207504853e-05
1.555977988994497082e+03 8.235739488225845444e-05
1.556878439219609618e+03 8.139267961152671881e-05
1.557778889444722381e+03 8.044493723113180553e-05
1.558679339669834917e+03 7.951336212457881349e-05
1.559579789894947453e+03 7.859721204010095181e-05
1.560480240120059989e+03 7.769629092079476107e-05
1.561380690345172525e+03 7.681069350029812702e-05
1.562281140570285061e+03 7.594024915053015782e-05
1.563181590795397597e+03 7.508456537857415936e-05
1.564082041020510133e+03 7.424332650466649794e-05
1.564982491245622668e+03 7.341629322623203558e-05
1.565882941470735204e+03 7.260316203524844170e-05
1.566783391695847740e+03 7.180357033726057704e-05
1.567683841920960504e+03 7.101720238018020175e-05
1.568584292146073039e+03 7.024381107960115788e-05
1.569484742371185575e+03 6.948306566203983669e-05
1.570385192596298111e+03 6.873451411616073189e-05
1.571285642821410647e+03 6.799778983452651050e-05
1.572186093046523183e+03 6.727269004263662633e-05
1.573086543271635719e+03 6.655901742933232116e-05
1.573986993496748255e+03 6.585646926772018299e-05
1.574887443721860791e+03 6.516479122965277543e-05
1.575787893946973327e+03 6.448390120790562310e-05
1.576688344172085863e+03 6.381371104169945776e-05
1.577588794397198626e+03 6.315403169366947040e-05
1.578489244622311162e+03 6.250462642004542984e-05
1.579389694847423698e+03 6.186525677571956127e-05
1.580290145072536234e+03 6.123569623885726323e-05
1.581190595297648770e+03 6.061573081652237846e-05
1.582091045522761306e+03 6.000515694328321774e-05
1.582991495747873842e+03 5.940377950810726669e-05
1.583891945972986377e+03 5.881141043885694308e-05
1.584792396198098913e+03 5.822786774282085918e-05
1.585692846423211449e+03 5.765297485210734612e-05
1.586593296648323985e+03 5.708656016221002862e-05
1.587493746873436749e+03 5.652845669214717804e-05
1.588394197098549284e+03 5.597850182211917618e-05
1.589294647323661820e+03 5.543653708171397801e-05
1.590195097548774356e+03 5.490240797203328949e-05
1.591095547773886892e+03 5.437596381130143286e-05
1.591995997998999428e+03 5.385705759729499868e-05
1.592896448224111964e+03 5.334554588225366397e-05
1.593796898449224500e+03 5.284128865736858121e-05
1.594697348674337036e+03 5.234414924488733510e-05
1.595597798899449572e+03 5.185399419645855731e-05
1.596498249124562108e+03 5.137069319673663619e-05
1.597398699349674871e+03 5.089411897153373981e-05
1.598299149574787407e+03 5.042414719998815749e-05
1.599199599799899943e+03 4.996065643033641417e-05
1.600100050025012479e+03 4.950352799896830155e-05
1.601000500250125015e+03 4.905264595251361629e-05
1.601900950475237551e+03 4.860789697273823549e-05
1.602801400700350086e+03 4.816917030408587581e-05
1.603701850925462622e+03 4.773635768369884026e-05
1.604602301150575158e+03 4.730935327379707405e-05
1.605502751375687694e+03 4.688805359629222877e-05
1.606403201600800230e+03 4.647235746953442669e-05
1.607303651825912766e+03 4.606216594709588866e-05
1.608204102051025529e+03 4.565738225850190423e-05
1.609104552276138065e+03 4.525791175183530317e-05
1.610005002501250601e+03 4.486366183813100578e-05
1.610905452726363137e+03 4.447454193749636551e-05
1.611805902951475673e+03 4.409046342689087626e-05
1.612706353176588209e+03 4.371133958950068008e-05
1.613606803401700745e+03 4.333708556565251324e-05
1.614507253626813281e+03 4.296761830520766948e-05
1.615407703851925817e+03 4.260285652138504352e-05
1.616308154077038353e+03 4.224272064596647122e-05
1.617208604302150889e+03 4.188713278582492519e-05
1.618109054527263652e+03 4.153601668074445602e-05
1.619009504752376188e+03 4.118929766247369796e-05
1.619909954977488724e+03 4.084690261498123996e-05
1.620810405202601260e+03 4.050875993586545510e-05
1.621710855427713796e+03 4.017479949888489360e-05
1.622611305652826331e+03 3.984495261756472624e-05
1.623511755877938867e+03 3.951915200985609033e-05
1.624412206103051403e+03 3.919733176379719105e-05
1.625312656328163939e+03 3.887942730415774710e-05
1.626213106553276475e+03 3.856537536002531663e-05
1.627113556778389011e+03 3.825511393330870911e-05
1.628014007003501774e+03 3.794858226812509658e-05
1.628914457228614310e+03 3.764572082104399009e-05
1.629814907453726846e+03 3.734647123215962806e-05
1.630715357678839382e+03 3.705077629696928586e-05
1.631615807903951918e+03 3.675857993902421504e-05
1.632516258129064454e+03 3.646982718333640700e-05
1.633416708354176990e+03 3.618446413051478751e-05
1.634317158579289526e+03 3.590243793160791130e-05
1.635217608804402062e+03 3.562369676362676306e-05
1.636118059029514598e+03 3.534818980573464097e-05
1.637018509254627133e+03 3.507586721608082597e-05
1.637918959479739897e+03 3.480668010925361494e-05
1.638819409704852433e+03 3.454058053433808813e-05
1.639719859929964969e+03 3.427752145355878323e-05
1.640620310155077505e+03 3.401745672149200249e-05
1.641520760380190040e+03 3.376034106482645516e-05
1.642421210605302576e+03 3.350613006265741541e-05
1.643321660830415112e+03 3.325478012729973201e-05
1.644222111055527648e+03 3.300624848560087887e-05
1.645122561280640184e+03 3.276049316074609771e-05
1.646023011505752720e+03 3.251747295452833838e-05
1.646923461730865256e+03 3.227714743008407394e-05
1.647823911955978019e+03 3.203947689507169390e-05
1.648724362181090555e+03 3.180442238528062386e-05
1.649624812406203091e+03 3.157194564866146121e-05
1.650525262631315627e+03 3.134200912976350652e-05
1.651425712856428163e+03 3.111457595456577907e-05
1.652326163081540699e+03 3.088960991569711861e-05
1.653226613306653235e+03 3.066707545801934578e-05
1.654127063531765771e+03 3.044693766458461120e-05
1.655027513756878307e+03 3.022916224293480019e-05
1.655927963981990843e+03 3.001371551174865804e-05
1.656828414207103378e+03 2.980056438781674078e-05
1.657728864432216142e+03 2.958967637334331045e-05
1.658629314657328678e+03 2.938101954355803447e-05
1.659529764882441214e+03 2.917456253463415492e-05
1.660430215107553749e+03 2.897027453190286882e-05
1.661330665332666285e+03 2.876812525835488292e-05
1.662231115557778821e+03 2.856808496342303779e-05
1.663131565782891357e+03 2.837012441203538618e-05
1.664032016008003893e+03 2.817421487393460559e-05
1.664932466233116429e+03 2.798032811325310977e-05
1.665832916458228965e+03 2.778843637834060319e-05
1.666733366683341501e+03 2.759851239183257904e-05
1.667633816908454037e+03 2.741052934095685722e-05
1.668534267133566800e+03 2.722446086807137937e-05
1.669434717358679336e+03 2.704028106142393652e-05
1.670335167583791872e+03 2.685796444613143427e-05
1.671235617808904408e+03 2.667748597537247470e-05
1.672136068034016944e+03 2.649882102178243673e-05
1.673036518259129480e+03 2.632194536905493778e-05
1.673936968484242016e+03 2.614683520373455884e-05
1.674837418709354552e+03 2.597346710720189688e-05
1.675737868934467087e+03 2.580181804784513385e-05
1.676638319159579623e+03 2.563186537340894056e-05
1.677538769384692159e+03 2.546358680352301247e-05
1.678439219609804923e+03 2.529696042239788781e-05
1.679339669834917459e+03 2.513196467169211693e-05
1.680240120060029994e+03 2.496857834353700026e-05
1.681140570285142530e+03 2.480678057372222515e-05
1.682041020510255066e+03 2.464655083503624212e-05
1.682941470735367602e+03 2.448786893075419088e-05
1.683841920960480138e+03 2.433071498827483635e-05
1.684742371185592674e+03 2.417506945289785804e-05
1.685642821410705210e+03 2.402091308174118789e-05
1.686543271635817746e+03 2.386822693779339904e-05
1.687443721860930282e+03 2.371699238409857050e-05
1.688344172086043045e+03 2.356719107806877939e-05
1.689244622311155581e+03 2.341880496592176777e-05
1.690145072536268117e+03 2.327181627724323840e-05
1.691045522761380653e+03 2.312620751966497384e-05
1.691945972986493189e+03 2.298196147366067622e-05
1.692846423211605725e+03 2.283906118745664766e-05
1.693746873436718261e+03 2.269748997204939345e-05
1.694647323661830796e+03 2.255723139633449814e-05
1.695547773886943332e+03 2.241826928233855176e-05
1.696448224112055868e+03 2.228058770055342468e-05
1.697348674337168404e+03 2.214417096537215252e-05
1.698249124562281168e+03 2.200900363062154890e-05
1.699149574787393703e+03 2.187507048518863887e-05
1.700050025012506239e+03 2.174235654874236330e-05
1.700950475237618775e+03 2.161084706754413693e-05
1.701850925462731311e+03 2.148052751034759908e-05
1.702751375687843847e+03 2.135138356438482605e-05
1.703651825912956383e+03 2.122340113143573908e-05
1.704552276138068919e+03 2.109656632398090108e-05
1.705452726363181455e+03 2.097086546143448661e-05
1.706353176588293991e+03 2.084628506645458949e-05
1.707253626813406527e+03 2.072281186133032566e-05
1.708154077038519290e+03 2.060043276444567062e-05
1.709054527263631826e+03 2.047913488681274999e-05
1.709954977488744362e+03 2.035890552867908638e-05
1.710855427713856898e+03 2.023973217620292727e-05
1.711755877938969434e+03 2.012160249819779589e-05
1.712656328164081970e+03 2.000450434294134534e-05
1.713556778389194506e+03 1.988842573505162655e-05
1.714457228614307041e+03 1.977335487242449147e-05
1.715357678839419577e+03 1.965928012323385306e-05
1.716258129064532113e+03 1.954619002299234882e-05
1.717158579289644649e+03 1.943407327167007687e-05
1.718059029514757185e+03 1.932291873087313265e-05
1.718959479739869948e+03 1.921271542107605743e-05
1.719859929964982484e+03 1.910345251891050965e-05
1.720760380190095020e+03 1.899511935450866123e-05
1.721660830415207556e+03 1.888770540889738201e-05
1.722561280640320092e+03 1.878120031144471668e-05
1.723461730865432628e+03 1.867559383735747496e-05
1.724362181090545164e+03 1.857087590522658098e-05
1.725262631315657700e+03 1.846703657462076787e-05
1.726163081540770236e+03 1.836406604372806190e-05
1.727063531765882772e+03 1.826195464704258642e-05
1.727963981990995308e+03 1.816069285309560106e-05
1.728864432216108071e+03 1.806027126223272469e-05
1.729764882441220607e+03 1.796068060443076558e-05
1.730665332666333143e+03 1.786191173715931900e-05
1.731565782891445679e+03 1.776395564328230741e-05
1.732466233116558215e+03 1.766680342900046972e-05
1.733366683341670750e+03 1.757044632183101486e-05
1.734267133566783286e+03 1.747487566862879365e-05
1.735167583791895822e+03 1.738008293364256816e-05
1.736068034017008358e+03 1.728605969660959086e-05
1.736968484242120894e+03 1.719279765088557263e-05
1.737868934467233430e+03 1.710028860160939620e-05
1.738769384692346193e+03 1.700852446390389277e-05
1.739669834917458729e+03 1.691749726110814190e-05
1.740570285142571265e+03 1.682719912304507900e-05
1.741470735367683801e+03 1.673762228431931152e-05
1.742371185592796337e+03 1.664875908264805746e-05
1.743271635817908873e+03 1.656060195722251947e-05
1.744172086043021409e+03 1.647314344709978942e-05
1.745072536268133945e+03 1.638637618962331826e-05
1.745972986493246481e+03 1.630029291887414347e-05
1.746873436718359017e+03 1.621488646414964488e-05
1.747773886943471553e+03 1.613014974846941929e-05
1.748674337168584316e+03 1.604607578710987619e-05
1.749574787393696852e+03 1.596265768616509826e-05
1.750475237618809388e+03 1.587988864113251320e-05
1.751375687843921924e+03 1.579776193552558930e-05
1.752276138069034459e+03 1.571627093951219269e-05
1.753176588294146995e+03 1.563540910857494039e-05
1.754077038519259531e+03 1.555516998219836020e-05
1.754977488744372067e+03 1.547554718257767705e-05
1.755877938969484603e+03 1.539653441335152640e-05
1.756778389194597139e+03 1.531812545835771700e-05
1.757678839419709675e+03 1.524031418040973249e-05
1.758579289644822438e+03 1.516309452009628748e-05
1.759479739869934974e+03 1.508646049460126670e-05
1.760380190095047510e+03 1.501040619654500760e-05
1.761280640320160046e+03 1.493492579284584234e-05
1.762181090545272582e+03 1.486001352360136042e-05
1.763081540770385118e+03 1.478566370098963072e-05
1.763981990995497654e+03 1.471187070818950558e-05
1.764882441220610190e+03 1.463862899831990684e-05
1.765782891445722726e+03 1.456593309339666747e-05
1.766683341670835262e+03 1.449377758330921588e-05
1.767583791895947797e+03 1.442215712481313687e-05
1.768484242121060333e+03 1.435106644054136749e-05
1.769384692346173097e+03 1.428050031803154901e-05
1.770285142571285633e+03 1.421045360877080082e-05
1.771185592796398169e+03 1.414092122725663365e-05
1.772086043021510704e+03 1.407189815007356668e-05
1.772986493246623240e+03 1.400337941498591810e-05
1.773886943471735776e+03 1.393536012004583019e-05
1.774787393696848312e+03 1.386783542271650896e-05
1.775687843921960848e+03 1.380080053901025292e-05
1.776588294147073384e+03 1.373425074264086448e-05
1.777488744372185920e+03 1.366818136419096740e-05
1.778389194597298456e+03 1.360258779029225005e-05
1.779289644822411219e+03 1.353746546282064518e-05
1.780190095047523755e+03 1.347280987810419991e-05
1.781090545272636291e+03 1.340861658614393595e-05
1.781990995497748827e+03 1.334488118984883985e-05
1.782891445722861363e+03 1.328159934428238149e-05
1.783791895947973899e+03 1.321876675592184816e-05
1.784692346173086435e+03 1.315637918193040779e-05
1.785592796398198971e+03 1.309443242944031753e-05
1.786493246623311506e+03 1.303292235484893768e-05
1.787393696848424042e+03 1.297184486312506256e-05
1.788294147073536578e+03 1.291119590712801105e-05
1.789194597298649342e+03 1.285097148693677649e-05
1.790095047523761878e+03 1.279116764919028795e-05
1.790995497748874413e+03 1.273178048643896927e-05
1.791895947973986949e+03 1.267280613650605417e-05
1.792796398199099485e+03 1.261424078185979931e-05
1.793696848424212021e+03 1.255608064899573132e-05
1.794597298649324557e+03 1.249832200782816883e-05
1.795497748874437093e+03 1.244096117109298458e-05
1.796398199099549629e+03 1.238399449375840256e-05
1.797298649324662165e+03 1.232741837244604592e-05
1.798199099549774701e+03 1.227122924486120902e-05
1.799099549774887464e+03 1.221542358923172861e-05
1.800000000000000000e+03 1.215999792375645699e-05
