0.000000000000000000e+00 1.349053861660502295e-03
9.004502251125562351e-01 1.804601526335402857e-03
1.800900450225112470e+00 2.421826230921205955e-03
2.701350675337668594e+00 3.149406397541912577e-03
3.601800900450224940e+00 3.747589669137756443e-03
4.502251125562780842e+00 3.870969724722818795e-03
5.402701350675337189e+00 3.445502196175253152e-03
6.303151575787893535e+00 2.746737208736014981e-03
7.203601800900449881e+00 2.073166792151882702e-03
8.104052026013006227e+00 1.548505878853142538e-03
9.004502251125561685e+00 1.171135137539443174e-03
9.904952476238118919e+00 9.035307862133189942e-04
1.080540270135067438e+01 7.115223861228707871e-04
1.170585292646323161e+01 5.713847928180122802e-04
1.260630315157578707e+01 4.672382359449060566e-04
1.350675337668834430e+01 3.883550866448079236e-04
1.440720360180089976e+01 3.274789141014276058e-04
1.530765382691345522e+01 2.796760745117734029e-04
1.620810405202601245e+01 2.415527493407081301e-04
1.710855427713856969e+01 2.107391414095593173e-04
1.800900450225112337e+01 1.855538647161115713e-04
1.890945472736368060e+01 1.647845940739941942e-04
1.980990495247623784e+01 1.475234776032305004e-04
2.071035517758879507e+01 1.330072123418799554e-04
2.161080540270134875e+01 1.204945399058472184e-04
2.251125562781390599e+01 1.093830678187612874e-04
2.341170585292646322e+01 9.944946615888468941e-05
2.431215607803901690e+01 9.068930934040183038e-05
2.521260630315157414e+01 8.303761676061009744e-05
2.611305652826413137e+01 7.635149303408414153e-05
2.701350675337668861e+01 7.047964798614670149e-05
2.791395697848924229e+01 6.529295993455332548e-05
2.881440720360179952e+01 6.068707132515971701e-05
2.971485742871435676e+01 5.657843747363477764e-05
3.061530765382691044e+01 5.289976907848807847e-05
3.151575787893946767e+01 4.959432154112997782e-05
3.241620810405202491e+01 4.660773990648190486e-05
3.331665832916458214e+01 4.388496027084096824e-05
3.421710855427713938e+01 4.138659716262019494e-05
3.511755877938969661e+01 3.909836158111171538e-05
3.601800900450224674e+01 3.700716069963282698e-05
3.691845922961480397e+01 3.508566310054652489e-05
3.781890945472736121e+01 3.330758916982440976e-05
3.871935967983991844e+01 3.166635008329845549e-05
3.961980990495247568e+01 3.016388284671337705e-05
4.052026013006503291e+01 2.879494285748548894e-05
4.142071035517759015e+01 2.754084412984971646e-05
4.232116058029014027e+01 2.636329646980725233e-05
4.322161080540269751e+01 2.522222304118386008e-05
4.412206103051525474e+01 2.411761142681989641e-05
4.502251125562781198e+01 2.307663188340224831e-05
4.592296148074036921e+01 2.211346253355248788e-05
4.682341170585292645e+01 2.122639415149654959e-05
4.772386193096548368e+01 2.040881668379455058e-05
4.862431215607803381e+01 1.965479275181642024e-05
4.952476238119059104e+01 1.896054618119390840e-05
5.042521260630314828e+01 1.832486269626862875e-05
5.132566283141570551e+01 1.774952361625139701e-05
5.222611305652826275e+01 1.723986668648588304e-05
5.312656328164081998e+01 1.680444007613595016e-05
5.402701350675337721e+01 1.644953481884359452e-05
5.492746373186592734e+01 1.615848007399178028e-05
5.582791395697848458e+01 1.585638494332665364e-05
5.672836418209104181e+01 1.543354360817845324e-05
5.762881440720359905e+01 1.487428284731101459e-05
5.852926463231615628e+01 1.427470871897186820e-05
5.942971485742871351e+01 1.372137052438364901e-05
6.033016508254127075e+01 1.324471989425686440e-05
6.123061530765382088e+01 1.284397379292048000e-05
6.213106553276637811e+01 1.250832708266661317e-05
6.303151575787893535e+01 1.221750514785714615e-05
6.393196598299149258e+01 1.193976847288787222e-05
6.483241620810404982e+01 1.165265917080322711e-05
6.573286643321659994e+01 1.135193073532145398e-05
6.663331665832916428e+01 1.103332668055757903e-05
6.753376688344171441e+01 1.070845962834105329e-05
6.843421710855427875e+01 1.040522520751855737e-05
6.933466733366682888e+01 1.014132713183738784e-05
7.023511755877939322e+01 9.921723083245806633e-06
7.113556778389194335e+01 9.746952249618931127e-06
7.203601800900449348e+01 9.613162580742177810e-06
7.293646823411705782e+01 9.502930819424059621e-06
7.383691845922960795e+01 9.386582884557404649e-06
7.473736868434217229e+01 9.254169290529829737e-06
7.563781890945472242e+01 9.113179961376679673e-06
7.653826913456728676e+01 8.940893009905784603e-06
7.743871935967983688e+01 8.713314180201094361e-06
7.833916958479238701e+01 8.462093869383018497e-06
7.923961980990495135e+01 8.235475880439028116e-06
8.014007003501750148e+01 8.055510813716293774e-06
8.104052026013006582e+01 7.926701164246380968e-06
8.194097048524261595e+01 7.850870139846492405e-06
8.284142071035518029e+01 7.830400660838332950e-06
8.374187093546773042e+01 7.860156956182081449e-06
8.464232116058028055e+01 7.915018914653441267e-06
8.554277138569284489e+01 7.960919954643598130e-06
8.644322161080539502e+01 7.975222850313253096e-06
8.734367183591795936e+01 7.923869294065335312e-06
8.824412206103050949e+01 7.787451905536595269e-06
8.914457228614307382e+01 7.624559988879165922e-06
9.004502251125562395e+01 7.520630278315433773e-06
9.094547273636817408e+01 7.501411819875357381e-06
9.184592296148073842e+01 7.506158046125395480e-06
9.274637318659328855e+01 7.429150755863938178e-06
9.364682341170585289e+01 7.252680151808227538e-06
9.454727363681840302e+01 7.072286940856661686e-06
9.544772386193096736e+01 6.960181576622093136e-06
9.634817408704351749e+01 6.895896065174492104e-06
9.724862431215606762e+01 6.795689081583810360e-06
9.814907453726863196e+01 6.608472118651214383e-06
9.904952476238118209e+01 6.361690124590860297e-06
9.994997498749374643e+01 6.108245662377855535e-06
1.008504252126062966e+02 5.888995104273826157e-06
1.017508754377188609e+02 5.720302479465959908e-06
1.026513256628314110e+02 5.601014684537896139e-06
1.035517758879439612e+02 5.524960297577206275e-06
1.044522261130565255e+02 5.484450569965562832e-06
1.053526763381690756e+02 5.468047264598069978e-06
1.062531265632816400e+02 5.467400887281724737e-06
1.071535767883941901e+02 5.493104122946253855e-06
1.080540270135067544e+02 5.565894954918296850e-06
1.089544772386193046e+02 5.687883516021491050e-06
1.098549274637318547e+02 5.824440634008414741e-06
1.107553776888444190e+02 5.923329051634166931e-06
1.116558279139569692e+02 5.949326660997408914e-06
1.125562781390695335e+02 5.887033138592464245e-06
1.134567283641820836e+02 5.770366047323403983e-06
1.143571785892946480e+02 5.670271134486463147e-06
1.152576288144071981e+02 5.638604253419188740e-06
1.161580790395197482e+02 5.679387792319441503e-06
1.170585292646323126e+02 5.735353776685855496e-06
1.179589794897448627e+02 5.710329920070747046e-06
1.188594297148574270e+02 5.549231213266137534e-06
1.197598799399699772e+02 5.299029906607054392e-06
1.206603301650825415e+02 5.052260814704873971e-06
1.215607803901950916e+02 4.865175698837843657e-06
1.224612306153076418e+02 4.750412143797821157e-06
1.233616808404202061e+02 4.704470191452036487e-06
1.242621310655327562e+02 4.722072536411303501e-06
1.251625812906453206e+02 4.793142618932599493e-06
1.260630315157578707e+02 4.894833076280261436e-06
1.269634817408704350e+02 5.000863787638477217e-06
1.278639319659829852e+02 5.092504906040757275e-06
1.287643821910955353e+02 5.147511515544935898e-06
1.296648324162080996e+02 5.155898223071260099e-06
1.305652826413206640e+02 5.137242566640403660e-06
1.314657328664331999e+02 5.095594296656758460e-06
1.323661830915457642e+02 5.005779253139365314e-06
1.332666333166583286e+02 4.884491421815617023e-06
1.341670835417708929e+02 4.792775423904752717e-06
1.350675337668834288e+02 4.756394702959384615e-06
1.359679839919959932e+02 4.748407290669509357e-06
1.368684342171085575e+02 4.741186595386076978e-06
1.377688844422210934e+02 4.724640099977892260e-06
1.386693346673336578e+02 4.684432227752284376e-06
1.395697848924462221e+02 4.638753252278222154e-06
1.404702351175587864e+02 4.637323225425964738e-06
1.413706853426713224e+02 4.698555367137161510e-06
1.422711355677838867e+02 4.785263959234754305e-06
1.431715857928964510e+02 4.834226662107816037e-06
1.440720360180089870e+02 4.827680356240562290e-06
1.449724862431215513e+02 4.821355712250831421e-06
1.458729364682341156e+02 4.861675518477096279e-06
1.467733866933466800e+02 4.925356738111804828e-06
1.476738369184592159e+02 4.959367097485011783e-06
1.485742871435717802e+02 4.951491914216534700e-06
1.494747373686843446e+02 4.926162965316707064e-06
1.503751875937968805e+02 4.885412784979528862e-06
1.512756378189094448e+02 4.812494093007852571e-06
1.521760880440220092e+02 4.699390471891858047e-06
1.530765382691345735e+02 4.568025699114497127e-06
1.539769884942471094e+02 4.467003767109736900e-06
1.548774387193596738e+02 4.440210229241734743e-06
1.557778889444722381e+02 4.511188931473186358e-06
1.566783391695847740e+02 4.661738421781732758e-06
1.575787893946973384e+02 4.808328071124745991e-06
1.584792396198099027e+02 4.839586085036235679e-06
1.593796898449224670e+02 4.730091831663228013e-06
1.602801400700350030e+02 4.568224150590752421e-06
1.611805902951475673e+02 4.458808290880199990e-06
1.620810405202601316e+02 4.449703661255167385e-06
1.629814907453726676e+02 4.531586952161102328e-06
1.638819409704852319e+02 4.658749455067834109e-06
1.647823911955977962e+02 4.774501952688398153e-06
1.656828414207103606e+02 4.855428999288517187e-06
1.665832916458228965e+02 4.907111888499502871e-06
1.674837418709354608e+02 4.916105729426752310e-06
1.683841920960480252e+02 4.889887317093476884e-06
1.692846423211605611e+02 4.873049218918591348e-06
1.701850925462731254e+02 4.879040612834628722e-06
1.710855427713856898e+02 4.874362016247054670e-06
1.719859929964982541e+02 4.805870378983522911e-06
1.728864432216107900e+02 4.649909957127762805e-06
1.737868934467233544e+02 4.448598543076436644e-06
1.746873436718359187e+02 4.280011358405706346e-06
1.755877938969484546e+02 4.202128163408452583e-06
1.764882441220610190e+02 4.229865669241913268e-06
1.773886943471735833e+02 4.337654914396816855e-06
1.782891445722861476e+02 4.472547584483080447e-06
1.791895947973986836e+02 4.598603865770012502e-06
1.800900450225112479e+02 4.725567467213109207e-06
1.809904952476238122e+02 4.861267044511533186e-06
1.818909454727363482e+02 4.954947653508543069e-06
1.827913956978489125e+02 4.927828631540628789e-06
1.836918459229614768e+02 4.766031792876658670e-06
1.845922961480740412e+02 4.539277595426956312e-06
1.854927463731865771e+02 4.331138350219284456e-06
1.863931965982991414e+02 4.172145288423091476e-06
1.872936468234117058e+02 4.047121971508001176e-06
1.881940970485242417e+02 3.942843309731833978e-06
1.890945472736368060e+02 3.870710084699929374e-06
1.899949974987493704e+02 3.843639189077081370e-06
1.908954477238619347e+02 3.839732013862984095e-06
1.917958979489744706e+02 3.820589974732180097e-06
1.926963481740870350e+02 3.783987392344140705e-06
1.935967983991995993e+02 3.764349504800491566e-06
1.944972486243121352e+02 3.796378253563443749e-06
1.953976988494246996e+02 3.900690426626473595e-06
1.962981490745372639e+02 4.078897587182423644e-06
1.971985992996498283e+02 4.303505820064364238e-06
1.980990495247623642e+02 4.514672219680837747e-06
1.989994997498749285e+02 4.652694669382782213e-06
1.998999499749874929e+02 4.704584735448986782e-06
2.008004002001000288e+02 4.704605563488987657e-06
2.017008504252125931e+02 4.681853623525538229e-06
2.026013006503251574e+02 4.617599506858842450e-06
2.035017508754377218e+02 4.495765241613977573e-06
2.044022011005502577e+02 4.352171878897848436e-06
2.053026513256628220e+02 4.221535140438048317e-06
2.062031015507753864e+02 4.105370266377037274e-06
2.071035517758879223e+02 4.004207819692670738e-06
2.080040020010004866e+02 3.925770293956904434e-06
2.089044522261130510e+02 3.875743319120126343e-06
2.098049024512256153e+02 3.855277009854829137e-06
2.107053526763381512e+02 3.854107209820317819e-06
2.116058029014507156e+02 3.849600311796811858e-06
2.125062531265632799e+02 3.831034872402618171e-06
2.134067033516758158e+02 3.813089365066201798e-06
2.143071535767883802e+02 3.823787471902705565e-06
2.152076038019009445e+02 3.886681992917567385e-06
2.161080540270135089e+02 4.005308413289960055e-06
2.170085042521260448e+02 4.154779294989502272e-06
2.179089544772386091e+02 4.274802406547443081e-06
2.188094047023511735e+02 4.311991969774755153e-06
2.197098549274637094e+02 4.280605861794353554e-06
2.206103051525762737e+02 4.231747153835122732e-06
2.215107553776888381e+02 4.185595777537004098e-06
2.224112056028014024e+02 4.153762097299351591e-06
2.233116558279139383e+02 4.162993122509756318e-06
2.242121060530265027e+02 4.211823763619640146e-06
2.251125562781390670e+02 4.253494030431595223e-06
2.260130065032516029e+02 4.239657302991487377e-06
2.269134567283641672e+02 4.161795235935395726e-06
2.278139069534767316e+02 4.046354821709198066e-06
2.287143571785892959e+02 3.936441236002700546e-06
2.296148074037018318e+02 3.864147875792207161e-06
2.305152576288143962e+02 3.830576038204165342e-06
2.314157078539269605e+02 3.828096674114669877e-06
2.323161580790394964e+02 3.863994058409854702e-06
2.332166083041520608e+02 3.950467508035947228e-06
2.341170585292646251e+02 4.096744849550989476e-06
2.350175087543771895e+02 4.297278280581081024e-06
2.359179589794897254e+02 4.498520739311151788e-06
2.368184092046022897e+02 4.615596847275954449e-06
2.377188594297148541e+02 4.613013714047377211e-06
2.386193096548273900e+02 4.530285524407600790e-06
2.395197598799399543e+02 4.431904244871069641e-06
2.404202101050525187e+02 4.356372909598452709e-06
2.413206603301650830e+02 4.321884195716624201e-06
2.422211105552776189e+02 4.332373840053449673e-06
2.431215607803901833e+02 4.358957708991248361e-06
2.440220110055027476e+02 4.361608587064381076e-06
2.449224612306152835e+02 4.327406235388300361e-06
2.458229114557278479e+02 4.293916335082997527e-06
2.467233616808404122e+02 4.311143811093349705e-06
2.476238119059529765e+02 4.395673166193599938e-06
2.485242621310655124e+02 4.513166895325973985e-06
2.494247123561780768e+02 4.595832136561529275e-06
2.503251625812906411e+02 4.611331627782792128e-06
2.512256128064031770e+02 4.588619532365274184e-06
2.521260630315157414e+02 4.565973104998866825e-06
2.530265132566283057e+02 4.562290114274373303e-06
2.539269634817408701e+02 4.573862855600206689e-06
2.548274137068534060e+02 4.578469314198062292e-06
2.557278639319659703e+02 4.545848737894620776e-06
2.566283141570785347e+02 4.464122402197715184e-06
2.575287643821910706e+02 4.357968786972922891e-06
2.584292146073036633e+02 4.263512291209314267e-06
2.593296648324161993e+02 4.197264838319978725e-06
2.602301150575287352e+02 4.158538637404763534e-06
2.611305652826413279e+02 4.146172510182753944e-06
2.620310155077538639e+02 4.158139190000250844e-06
2.629314657328663998e+02 4.175241838832827147e-06
2.638319159579789925e+02 4.168816261399320361e-06
2.647323661830915285e+02 4.134571641261491903e-06
2.656328164082040644e+02 4.091646693012281768e-06
2.665332666333166571e+02 4.065825349516206914e-06
2.674337168584291931e+02 4.085211087783949702e-06
2.683341670835417858e+02 4.151288974593854364e-06
2.692346173086543217e+02 4.233686625056689256e-06
2.701350675337668577e+02 4.302855655404756063e-06
2.710355177588794504e+02 4.343648451349189234e-06
2.719359679839919863e+02 4.356461558520844181e-06
2.728364182091045222e+02 4.362791253938866041e-06
2.737368684342171150e+02 4.381730479765876218e-06
2.746373186593296509e+02 4.407864740664582230e-06
2.755377688844421868e+02 4.415690126235116755e-06
2.764382191095547796e+02 4.377617890867465621e-06
2.773386693346673155e+02 4.293718686823322260e-06
2.782391195597798514e+02 4.196947044509579655e-06
2.791395697848924442e+02 4.131844157435596822e-06
2.800400200100049801e+02 4.120550322721058805e-06
2.809404702351175729e+02 4.149515368336944295e-06
2.818409204602301088e+02 4.197215143799675126e-06
2.827413706853426447e+02 4.270382433203416582e-06
2.836418209104552375e+02 4.394181875545448352e-06
2.845422711355677734e+02 4.573387123672844961e-06
2.854427213606803093e+02 4.781244559506580361e-06
2.863431715857929021e+02 4.965843042414501528e-06
2.872436218109054380e+02 5.073546659073377362e-06
2.881440720360179739e+02 5.078663242020373297e-06
2.890445222611305667e+02 5.004661550541278816e-06
2.899449724862431026e+02 4.907537130276341781e-06
2.908454227113556385e+02 4.824952470745007117e-06
2.917458729364682313e+02 4.757602462784020283e-06
2.926463231615807672e+02 4.689290316120366094e-06
2.935467733866933600e+02 4.602287730903239649e-06
2.944472236118058959e+02 4.487031777747024567e-06
2.953476738369184318e+02 4.358605049322122471e-06
2.962481240620310246e+02 4.260495782976134599e-06
2.971485742871435605e+02 4.236768244156587840e-06
2.980490245122560964e+02 4.292948572900242311e-06
2.989494747373686891e+02 4.406287271398613439e-06
2.998499249624812251e+02 4.565131867571455231e-06
3.007503751875937610e+02 4.771000196082854231e-06
3.016508254127063537e+02 5.023577641813183136e-06
3.025512756378188897e+02 5.324807438950830394e-06
3.034517258629314256e+02 5.659523006361094807e-06
3.043521760880440183e+02 5.953984590351795106e-06
3.052526263131565543e+02 6.088500753614191958e-06
3.061530765382691470e+02 6.015069253555366018e-06
3.070535267633816829e+02 5.810065884526029467e-06
3.079539769884942189e+02 5.576814671670265724e-06
3.088544272136068116e+02 5.376592781802364957e-06
3.097548774387193475e+02 5.218827721464760187e-06
3.106553276638318835e+02 5.093716043638343404e-06
3.115557778889444762e+02 4.999442683278082482e-06
3.124562281140570121e+02 4.914064669262663799e-06
3.133566783391695481e+02 4.812950608966244255e-06
3.142571285642821408e+02 4.710704499364247008e-06
3.151575787893946767e+02 4.646566223125117447e-06
3.160580290145072127e+02 4.651193341909299104e-06
3.169584792396198054e+02 4.739694791716287451e-06
3.178589294647323413e+02 4.917385975244298886e-06
3.187593796898449341e+02 5.167628098593834835e-06
3.196598299149574700e+02 5.438008346116455870e-06
3.205602801400700059e+02 5.660061419934871263e-06
3.214607303651825987e+02 5.769904134323075709e-06
3.223611805902951346e+02 5.732431879035377681e-06
3.232616308154076705e+02 5.570022226914364422e-06
3.241620810405202633e+02 5.355342418447935295e-06
3.250625312656327992e+02 5.158857007473100368e-06
3.259629814907453351e+02 5.009178089064813977e-06
3.268634317158579279e+02 4.914214485207188732e-06
3.277638819409704638e+02 4.879830255182223482e-06
3.286643321660829997e+02 4.892864847913727739e-06
3.295647823911955925e+02 4.916834787290257190e-06
3.304652326163081284e+02 4.919149946444875854e-06
3.313656828414207212e+02 4.895454989771533576e-06
3.322661330665332571e+02 4.868474689444533943e-06
3.331665832916457930e+02 4.863573395595650993e-06
3.340670335167583858e+02 4.893603832243064114e-06
3.349674837418709217e+02 4.973730913260195107e-06
3.358679339669834576e+02 5.118378964289727108e-06
3.367683841920960504e+02 5.318743817852341748e-06
3.376688344172085863e+02 5.533807404587791346e-06
3.385692846423211222e+02 5.704755662516046662e-06
3.394697348674337150e+02 5.784916525887701536e-06
3.403701850925462509e+02 5.758075850205609878e-06
3.412706353176587868e+02 5.647641715026773607e-06
3.421710855427713796e+02 5.507162819354288779e-06
3.430715357678839155e+02 5.375322506856330112e-06
3.439719859929965082e+02 5.262082080673743759e-06
3.448724362181090441e+02 5.169883451379327235e-06
3.457728864432215801e+02 5.087233431616488378e-06
3.466733366683341728e+02 4.986728765815033836e-06
3.475737868934467087e+02 4.872443907087696985e-06
3.484742371185592447e+02 4.790477765646672219e-06
3.493746873436718374e+02 4.784684882601723009e-06
3.502751375687843733e+02 4.868876610064983254e-06
3.511755877938969093e+02 5.039253686568255875e-06
3.520760380190095020e+02 5.284493665281883427e-06
3.529764882441220379e+02 5.583626715963188084e-06
3.538769384692345739e+02 5.903712375841424327e-06
3.547773886943471666e+02 6.188083212471880968e-06
3.556778389194597025e+02 6.360167477592567496e-06
3.565782891445722953e+02 6.372539765867206427e-06
3.574787393696848312e+02 6.243572788249020697e-06
3.583791895947973671e+02 6.039869188688503119e-06
3.592796398199099599e+02 5.835718866708098709e-06
3.601800900450224958e+02 5.672068006157449516e-06
3.610805402701350317e+02 5.552604443740212055e-06
3.619809904952476245e+02 5.466777446894586687e-06
3.628814407203601604e+02 5.398320205036623134e-06
3.637818909454726963e+02 5.352958667910923292e-06
3.646823411705852891e+02 5.360706334420753115e-06
3.655827913956978250e+02 5.431623503339958404e-06
3.664832416208103609e+02 5.543417106559742401e-06
3.673836918459229537e+02 5.681585986951227040e-06
3.682841420710354896e+02 5.853834950994194451e-06
3.691845922961480824e+02 6.036808396477219125e-06
3.700850425212606183e+02 6.175118956049607451e-06
3.709854927463731542e+02 6.231249593007749036e-06
3.718859429714857470e+02 6.195661604558743465e-06
3.727863931965982829e+02 6.073922414708619907e-06
3.736868434217108188e+02 5.888650319837840877e-06
3.745872936468234116e+02 5.693189912213473279e-06
3.754877438719359475e+02 5.539937063576471541e-06
3.763881940970484834e+02 5.438684256083307993e-06
3.772886443221610762e+02 5.364704117358781207e-06
3.781890945472736121e+02 5.294183723969920906e-06
3.790895447723861480e+02 5.226864584847373612e-06
3.799899949974987408e+02 5.184272624421484729e-06
3.808904452226112767e+02 5.193871024906146817e-06
3.817908954477238694e+02 5.266316290142234930e-06
3.826913456728364054e+02 5.391993361673771676e-06
3.835917958979489413e+02 5.551723888412436410e-06
3.844922461230615340e+02 5.720572849993805966e-06
3.853926963481740700e+02 5.871820816734653236e-06
3.862931465732866059e+02 5.981152635027774034e-06
3.871935967983991986e+02 6.033993229442619669e-06
3.880940470235117346e+02 6.027731050412573325e-06
3.889944972486242705e+02 5.965967066844824623e-06
3.898949474737368632e+02 5.853424861954285124e-06
3.907953976988493991e+02 5.703476455338990567e-06
3.916958479239619351e+02 5.538479812978123611e-06
3.925962981490745278e+02 5.381402387769780289e-06
3.934967483741870637e+02 5.255648388830536032e-06
3.943971985992996565e+02 5.185036699756804189e-06
3.952976488244121924e+02 5.193395570406478334e-06
3.961980990495247283e+02 5.295288518082342616e-06
3.970985492746373211e+02 5.489746695486350875e-06
3.979989994997498570e+02 5.764961165031875033e-06
3.988994497248623929e+02 6.101323112619222922e-06
3.997998999499749857e+02 6.468167188934016613e-06
4.007003501750875216e+02 6.809348189957654146e-06
4.016008004002000575e+02 7.058848898728875452e-06
4.025012506253126503e+02 7.202195262704231891e-06
4.034017008504251862e+02 7.266413032052675552e-06
4.043021510755377221e+02 7.266818391609010697e-06
4.052026013006503149e+02 7.194326556077532389e-06
4.061030515257628508e+02 7.036270017611265406e-06
4.070035017508754436e+02 6.811619364644590882e-06
4.079039519759879795e+02 6.574023857649740878e-06
4.088044022011005154e+02 6.379485587301165097e-06
4.097048524262131082e+02 6.260995187690370258e-06
4.106053026513256441e+02 6.225575598836832922e-06
4.115057528764381800e+02 6.269915727448876510e-06
4.124062031015507728e+02 6.405781166017642226e-06
4.133066533266633087e+02 6.650674881832950554e-06
4.142071035517758446e+02 6.968820437074334347e-06
4.151075537768884374e+02 7.265587089871355936e-06
4.160080040020009733e+02 7.473030954109755686e-06
4.169084542271135092e+02 7.593339496045959072e-06
4.178089044522261020e+02 7.644013283294401554e-06
4.187093546773386379e+02 7.632968200116136971e-06
4.196098049024512306e+02 7.556046083397849402e-06
4.205102551275637666e+02 7.413217202577481605e-06
4.214107053526763025e+02 7.232567735596135397e-06
4.223111555777888952e+02 7.062884622062270557e-06
4.232116058029014312e+02 6.955509610817588883e-06
4.241120560280139671e+02 6.941147800463473652e-06
4.250125062531265598e+02 7.002218343675661031e-06
4.259129564782390958e+02 7.109036658205318910e-06
4.268134067033516317e+02 7.270996978827472602e-06
4.277138569284642244e+02 7.509069774480841619e-06
4.286143071535767604e+02 7.810168878516724153e-06
4.295147573786892963e+02 8.127792510938308863e-06
4.304152076038018890e+02 8.396092448212480428e-06
4.313156578289144250e+02 8.542244946846846938e-06
4.322161080540270177e+02 8.537821161315617836e-06
4.331165582791395536e+02 8.418055856549955501e-06
4.340170085042520896e+02 8.234326197382870895e-06
4.349174587293646823e+02 8.007699431588133679e-06
4.358179089544772182e+02 7.741016865528424639e-06
4.367183591795897541e+02 7.459059010403122083e-06
4.376188094047023469e+02 7.203900107399144197e-06
4.385192596298148828e+02 7.017089536108484871e-06
4.394197098549274187e+02 6.935544659816179168e-06
4.403201600800400115e+02 6.970903251470799202e-06
4.412206103051525474e+02 7.102845328658657153e-06
4.421210605302650833e+02 7.316944308403379525e-06
4.430215107553776761e+02 7.612446626994887312e-06
4.439219609804902120e+02 7.965478136012977924e-06
4.448224112056028048e+02 8.313299342376315599e-06
4.457228614307153407e+02 8.572934274532839771e-06
4.466233116558278766e+02 8.672621892685441071e-06
4.475237618809404694e+02 8.591449186692584893e-06
4.484242121060530053e+02 8.369460865087365411e-06
4.493246623311655412e+02 8.079857208437192794e-06
4.502251125562781340e+02 7.791984411260469820e-06
4.511255627813906699e+02 7.550863089932852029e-06
4.520260130065032058e+02 7.389926035727547795e-06
4.529264632316157986e+02 7.340774806266772568e-06
4.538269134567283345e+02 7.416613767822723873e-06
4.547273636818408704e+02 7.597444723144209916e-06
4.556278139069534632e+02 7.849899569918791494e-06
4.565282641320659991e+02 8.154650646081958003e-06
4.574287143571785919e+02 8.499414439582315525e-06
4.583291645822911278e+02 8.849805238344097080e-06
4.592296148074036637e+02 9.156062105832829434e-06
4.601300650325162565e+02 9.370504285843840147e-06
4.610305152576287924e+02 9.451626681027378615e-06
4.619309654827413283e+02 9.386352616073773703e-06
4.628314157078539210e+02 9.191322719726309075e-06
4.637318659329664570e+02 8.897779731954252093e-06
4.646323161580789929e+02 8.559471243038876203e-06
4.655327663831915856e+02 8.278421611205082721e-06
4.664332166083041216e+02 8.149108799172592157e-06
4.673336668334167143e+02 8.180581169748537263e-06
4.682341170585292502e+02 8.304096841234730314e-06
4.691345672836417862e+02 8.460062975019520462e-06
4.700350175087543789e+02 8.653881762606654285e-06
4.709354677338669148e+02 8.906441466873153156e-06
4.718359179589794508e+02 9.209918069559476183e-06
4.727363681840920435e+02 9.516642455390358549e-06
4.736368184092045794e+02 9.742204620794818351e-06
4.745372686343171154e+02 9.831404868179488703e-06
4.754377188594297081e+02 9.815931953403156854e-06
4.763381690845422440e+02 9.750185664565532486e-06
4.772386193096547800e+02 9.650858101638276333e-06
4.781390695347673727e+02 9.524052944462501575e-06
4.790395197598799086e+02 9.386002397679971493e-06
4.799399699849925014e+02 9.259860053539417576e-06
4.808404202101050373e+02 9.162025027067276391e-06
4.817408704352175732e+02 9.094611126845661650e-06
4.826413206603301660e+02 9.067155246259120776e-06
4.835417708854427019e+02 9.101901321527683814e-06
4.844422211105552378e+02 9.197941937898012935e-06
4.853426713356678306e+02 9.317834929600699604e-06
4.862431215607803665e+02 9.435651059232351044e-06
4.871435717858929024e+02 9.559172053576261974e-06
4.880440220110054952e+02 9.687208532918828528e-06
4.889444722361180311e+02 9.788975169336860586e-06
4.898449224612305670e+02 9.829929440194096505e-06
4.907453726863431598e+02 9.812230138716452338e-06
4.916458229114556957e+02 9.777051092279686885e-06
4.925462731365682885e+02 9.773075685051116180e-06
4.934467233616808244e+02 9.831269894590285039e-06
4.943471735867933603e+02 9.950066360151492455e-06
4.952476238119059531e+02 1.011813799457163641e-05
4.961480740370184890e+02 1.033041471473475283e-05
4.970485242621310249e+02 1.055499804462350927e-05
4.979489744872436177e+02 1.074650397380652979e-05
4.988494247123561536e+02 1.090026201746843910e-05
4.997498749374686895e+02 1.104760945042094243e-05
5.006503251625812823e+02 1.120987133662992593e-05
5.015507753876938182e+02 1.136830961518346385e-05
5.024512256128063541e+02 1.147920252220655467e-05
5.033516758379189469e+02 1.152124150445443880e-05
5.042521260630314828e+02 1.149903231305617792e-05
5.051525762881440755e+02 1.143497377596979941e-05
5.060530265132566115e+02 1.136300779695621401e-05
5.069534767383691474e+02 1.130066676949389317e-05
5.078539269634817401e+02 1.124855850540348320e-05
5.087543771885942760e+02 1.118414004030600481e-05
5.096548274137068120e+02 1.106563620486085740e-05
5.105552776388194047e+02 1.089534425375134958e-05
5.114557278639319406e+02 1.072491985140378455e-05
5.123561780890445334e+02 1.059274544406348800e-05
5.132566283141570693e+02 1.051878847332065617e-05
5.141570785392696052e+02 1.051508674312370260e-05
5.150575287643821412e+02 1.057555819033626464e-05
5.159579789894946771e+02 1.066140429154594207e-05
5.168584292146073267e+02 1.074145244282250504e-05
5.177588794397198626e+02 1.082489435448584366e-05
5.186593296648323985e+02 1.092672442499848033e-05
5.195597798899449344e+02 1.105766623192667525e-05
5.204602301150574704e+02 1.121170774860663853e-05
5.213606803401700063e+02 1.133952719322261411e-05
5.222611305652826559e+02 1.141558160030651643e-05
5.231615807903951918e+02 1.147584516443300094e-05
5.240620310155077277e+02 1.154785467476364988e-05
5.249624812406202636e+02 1.161470733081212594e-05
5.258629314657327996e+02 1.166197489969224869e-05
5.267633816908454492e+02 1.171195010099102229e-05
5.276638319159579851e+02 1.179850892371442916e-05
5.285642821410705210e+02 1.191717179581359916e-05
5.294647323661830569e+02 1.202828753440836939e-05
5.303651825912955928e+02 1.211526177908316701e-05
5.312656328164081287e+02 1.218573279649542960e-05
5.321660830415207784e+02 1.224984321002058613e-05
5.330665332666333143e+02 1.231517131014311528e-05
5.339669834917458502e+02 1.237075883066272805e-05
5.348674337168583861e+02 1.239252614497635826e-05
5.357678839419709220e+02 1.237609775557884239e-05
5.366683341670835716e+02 1.235284617187843035e-05
5.375687843921961075e+02 1.236336971554150013e-05
5.384692346173086435e+02 1.242476007992279216e-05
5.393696848424211794e+02 1.254200191464020222e-05
5.402701350675337153e+02 1.270634005629282547e-05
5.411705852926462512e+02 1.287749914535076960e-05
5.420710355177589008e+02 1.299753571662521115e-05
5.429714857428714367e+02 1.302584532071244359e-05
5.438719359679839727e+02 1.297211896923191715e-05
5.447723861930965086e+02 1.289255055754225708e-05
5.456728364182090445e+02 1.285236591398083227e-05
5.465732866433215804e+02 1.289675520267182655e-05
5.474737368684342300e+02 1.304900132392177996e-05
5.483741870935467659e+02 1.329740656376800491e-05
5.492746373186593019e+02 1.358937187187610650e-05
5.501750875437718378e+02 1.387359475447613655e-05
5.510755377688843737e+02 1.414763882775203502e-05
5.519759879939970233e+02 1.442655998642729041e-05
5.528764382191095592e+02 1.470388507198891065e-05
5.537768884442220951e+02 1.496876213406390844e-05
5.546773386693346310e+02 1.520613875650490571e-05
5.555777888944471670e+02 1.537762521232959612e-05
5.564782391195597029e+02 1.544991707786268282e-05
5.573786893446723525e+02 1.546764594162151682e-05
5.582791395697848884e+02 1.552476325188128250e-05
5.591795897948974243e+02 1.566061433574862937e-05
5.600800400200099602e+02 1.586367750988758199e-05
5.609804902451224962e+02 1.614041424868679686e-05
5.618809404702351458e+02 1.651086581429337796e-05
5.627813906953476817e+02 1.693566285246581713e-05
5.636818409204602176e+02 1.734273350872193295e-05
5.645822911455727535e+02 1.771193532108154503e-05
5.654827413706852894e+02 1.804497475541704009e-05
5.663831915957978254e+02 1.832202314501516917e-05
5.672836418209104750e+02 1.852896745520571229e-05
5.681840920460230109e+02 1.867824934323977396e-05
5.690845422711355468e+02 1.879757253864478640e-05
5.699849924962480827e+02 1.890309560693871564e-05
5.708854427213606186e+02 1.898004852789235845e-05
5.717858929464731546e+02 1.899809077029051836e-05
5.726863431715858042e+02 1.898298599265788053e-05
5.735867933966983401e+02 1.904206691810976767e-05
5.744872436218108760e+02 1.923757963020997466e-05
5.753876938469234119e+02 1.952206964946064802e-05
5.762881440720359478e+02 1.982485918196968562e-05
5.771885942971485974e+02 2.012441054508141300e-05
5.780890445222611334e+02 2.044392954820180229e-05
5.789894947473736693e+02 2.079478397152659353e-05
5.798899449724862052e+02 2.113845003730062814e-05
5.807903951975987411e+02 2.142290986863460737e-05
5.816908454227112770e+02 2.162884408026379755e-05
5.825912956478239266e+02 2.177553853287845506e-05
5.834917458729364625e+02 2.189047211204150667e-05
5.843921960980489985e+02 2.193880567873487093e-05
5.852926463231615344e+02 2.190010822976123006e-05
5.861930965482740703e+02 2.188508562590515778e-05
5.870935467733867199e+02 2.201724312756374208e-05
5.879939969984992558e+02 2.226821232821038724e-05
5.888944472236117917e+02 2.252995010971923986e-05
5.897948974487243277e+02 2.275344164117075113e-05
5.906953476738368636e+02 2.295273205174884994e-05
5.915957978989493995e+02 2.313507645620236288e-05
5.924962481240620491e+02 2.331857113661859593e-05
5.933966983491745850e+02 2.356318967226892004e-05
5.942971485742871209e+02 2.391269294072799178e-05
5.951975987993996569e+02 2.434726578815138830e-05
5.960980490245121928e+02 2.480061632178012370e-05
5.969984992496247287e+02 2.522003044240772189e-05
5.978989494747373783e+02 2.561617175213790933e-05
5.987993996998499142e+02 2.600152860701076082e-05
5.996998499249624501e+02 2.629658582340684757e-05
6.006003001500749860e+02 2.640733701788498713e-05
6.015007503751875220e+02 2.631428621973855246e-05
6.024012006003001716e+02 2.605853404947973214e-05
6.033016508254127075e+02 2.574130279675348399e-05
6.042021010505252434e+02 2.549571578225612114e-05
6.051025512756377793e+02 2.538990928498251757e-05
6.060030015007503152e+02 2.539869815144865322e-05
6.069034517258628512e+02 2.544626337797251773e-05
6.078039019509755008e+02 2.545490667097084276e-05
6.087043521760880367e+02 2.537486759965614796e-05
6.096048024012005726e+02 2.522307633487023051e-05
6.105052526263131085e+02 2.505341044424473228e-05
6.114057028514256444e+02 2.497275240036323581e-05
6.123061530765382940e+02 2.509301757949622034e-05
6.132066033016508300e+02 2.540454021594318931e-05
6.141070535267633659e+02 2.573987670646421283e-05
6.150075037518759018e+02 2.588124747565277527e-05
6.159079539769884377e+02 2.584796591205406412e-05
6.168084042021009736e+02 2.585654599522683859e-05
6.177088544272136232e+02 2.601081755525149118e-05
6.186093046523261592e+02 2.625271424570123753e-05
6.195097548774386951e+02 2.651326621881765273e-05
6.204102051025512310e+02 2.677337658597628620e-05
6.213106553276637669e+02 2.699957434460137213e-05
6.222111055527763028e+02 2.711572143901576647e-05
6.231115557778889524e+02 2.709754372137753090e-05
6.240120060030014884e+02 2.702335123181846604e-05
6.249124562281140243e+02 2.695440659259005755e-05
6.258129064532265602e+02 2.689737114305635162e-05
6.267133566783390961e+02 2.689167840045624070e-05
6.276138069034517457e+02 2.696300795033236075e-05
6.285142571285642816e+02 2.703585671136852115e-05
6.294147073536768175e+02 2.703124563359161133e-05
6.303151575787893535e+02 2.696710237389622665e-05
6.312156078039018894e+02 2.694829940040075958e-05
6.321160580290144253e+02 2.705483500612843547e-05
6.330165082541270749e+02 2.724667581721244708e-05
6.339169584792396108e+02 2.737196085476677353e-05
6.348174087043521467e+02 2.731978042786743541e-05
6.357178589294646827e+02 2.718887200398259298e-05
6.366183091545772186e+02 2.718223476333528230e-05
6.375187593796898682e+02 2.738635952759416344e-05
6.384192096048024041e+02 2.773634553806847129e-05
6.393196598299149400e+02 2.815247051965574974e-05
6.402201100550274759e+02 2.861454193917906360e-05
6.411205602801400119e+02 2.906926479571761898e-05
6.420210105052525478e+02 2.944783429320567159e-05
6.429214607303651974e+02 2.973395755451068402e-05
6.438219109554777333e+02 2.993365852124753098e-05
6.447223611805902692e+02 3.004218151210044961e-05
6.456228114057028051e+02 3.004412906641395795e-05
6.465232616308153411e+02 2.995283011234952956e-05
6.474237118559278770e+02 2.983385108692358328e-05
6.483241620810405266e+02 2.982574650632419051e-05
6.492246123061530625e+02 3.009738444328425116e-05
6.501250625312655984e+02 3.067503087137321381e-05
6.510255127563781343e+02 3.145712663821311367e-05
6.519259629814906702e+02 3.232843349344642002e-05
6.528264132066033198e+02 3.311648869517888724e-05
6.537268634317158558e+02 3.366908276375282034e-05
6.546273136568283917e+02 3.399034239877144322e-05
6.555277638819409276e+02 3.417230451123623127e-05
6.564282141070534635e+02 3.434624543807925665e-05
6.573286643321659994e+02 3.460268828757706437e-05
6.582291145572786490e+02 3.484192237939371029e-05
6.591295647823911850e+02 3.491268010803781299e-05
6.600300150075037209e+02 3.474449963106930340e-05
6.609304652326162568e+02 3.429549773984156034e-05
6.618309154577287927e+02 3.358797106349713875e-05
6.627313656828414423e+02 3.274316590200791250e-05
6.636318159079539782e+02 3.191484835722166403e-05
6.645322661330665142e+02 3.123174386105506147e-05
6.654327163581790501e+02 3.073756932833482278e-05
6.663331665832915860e+02 3.036348443996245632e-05
6.672336168084041219e+02 3.008263616786215777e-05
6.681340670335167715e+02 2.993067341833691194e-05
6.690345172586293074e+02 2.987491497856011404e-05
6.699349674837418434e+02 2.983442506759039864e-05
6.708354177088543793e+02 2.974329618796764889e-05
6.717358679339669152e+02 2.953106631767722968e-05
6.726363181590794511e+02 2.913007808657379485e-05
6.735367683841921007e+02 2.859181643653120941e-05
6.744372186093046366e+02 2.808352092476228541e-05
6.753376688344171725e+02 2.771657781538105597e-05
6.762381190595297085e+02 2.751617996911170813e-05
6.771385692846422444e+02 2.748908919246017407e-05
6.780390195097548940e+02 2.764844551481569272e-05
6.789394697348674299e+02 2.798751593767707390e-05
6.798399199599799658e+02 2.845586650095167347e-05
6.807403701850925017e+02 2.894528596624668627e-05
6.816408204102050377e+02 2.932800031201988463e-05
6.825412706353175736e+02 2.951331148540099983e-05
6.834417208604302232e+02 2.947749645208280476e-05
6.843421710855427591e+02 2.929781666921346363e-05
6.852426213106552950e+02 2.905514570233721467e-05
6.861430715357678309e+02 2.880804796233878126e-05
6.870435217608803669e+02 2.864849313136697616e-05
6.879439719859930165e+02 2.863588204508530269e-05
6.888444222111055524e+02 2.870126007222592652e-05
6.897448724362180883e+02 2.873231132560759925e-05
6.906453226613306242e+02 2.867017482861684255e-05
6.915457728864431601e+02 2.853387591893685209e-05
6.924462231115556961e+02 2.840785648007504801e-05
6.933466733366683457e+02 2.835207329483652115e-05
6.942471235617808816e+02 2.832029174071402827e-05
6.951475737868934175e+02 2.823954221399166734e-05
6.960480240120059534e+02 2.809132929951476602e-05
6.969484742371184893e+02 2.791955521920445912e-05
6.978489244622311389e+02 2.777381986350532599e-05
6.987493746873436749e+02 2.764795650060819802e-05
6.996498249124562108e+02 2.756196433276175147e-05
7.005502751375687467e+02 2.761570913513329369e-05
7.014507253626812826e+02 2.787013403244015472e-05
7.023511755877938185e+02 2.828712573405661160e-05
7.032516258129064681e+02 2.875959174516329686e-05
7.041520760380190040e+02 2.910149228991871083e-05
7.050525262631315400e+02 2.915706851643569812e-05
7.059529764882440759e+02 2.892981032736243127e-05
7.068534267133566118e+02 2.856749750258875324e-05
7.077538769384691477e+02 2.823945895358163981e-05
7.086543271635817973e+02 2.801256263048113363e-05
7.095547773886943332e+02 2.783919293990455083e-05
7.104552276138068692e+02 2.762536570752490212e-05
7.113556778389194051e+02 2.733831286786050991e-05
7.122561280640319410e+02 2.703260549975012634e-05
7.131565782891445906e+02 2.675566646156951923e-05
7.140570285142571265e+02 2.648107392480100633e-05
7.149574787393696624e+02 2.614686212562542292e-05
7.158579289644821984e+02 2.573151300707351600e-05
7.167583791895947343e+02 2.530887364417304942e-05
7.176588294147072702e+02 2.502346999435781170e-05
7.185592796398199198e+02 2.495440676183606192e-05
7.194597298649324557e+02 2.507334775428288141e-05
7.203601800900449916e+02 2.531092743647309860e-05
7.212606303151575275e+02 2.560320908812794758e-05
7.221610805402700635e+02 2.590354727692837120e-05
7.230615307653827131e+02 2.615025857927268441e-05
7.239619809904952490e+02 2.627311705722106417e-05
7.248624312156077849e+02 2.621718054172129253e-05
7.257628814407203208e+02 2.598289924946115608e-05
7.266633316658328567e+02 2.568569021042043269e-05
7.275637818909453927e+02 2.541869119666589503e-05
7.284642321160580423e+02 2.515860799008601996e-05
7.293646823411705782e+02 2.490107958876849900e-05
7.302651325662831141e+02 2.464998215832360065e-05
7.311655827913956500e+02 2.432479974689900451e-05
7.320660330165081859e+02 2.384200728505313842e-05
7.329664832416207219e+02 2.321036577689338946e-05
7.338669334667333715e+02 2.252392358648408043e-05
7.347673836918459074e+02 2.189671067729195321e-05
7.356678339169584433e+02 2.139125700329722689e-05
7.365682841420709792e+02 2.103419408941229263e-05
7.374687343671835151e+02 2.082024249369602903e-05
7.383691845922961647e+02 2.072592321049052035e-05
7.392696348174087007e+02 2.071777134299779348e-05
7.401700850425212366e+02 2.071805027772579357e-05
7.410705352676337725e+02 2.066889797284895091e-05
7.419709854927463084e+02 2.059137874624793638e-05
7.428714357178588443e+02 2.052210227255457891e-05
7.437718859429714939e+02 2.044855159106924539e-05
7.446723361680840299e+02 2.032079836567867690e-05
7.455727863931965658e+02 2.010447421826602068e-05
7.464732366183091017e+02 1.984471367527327536e-05
7.473736868434216376e+02 1.962115956676646438e-05
7.482741370685342872e+02 1.947739976896848145e-05
7.491745872936468231e+02 1.939767414164565162e-05
7.500750375187593590e+02 1.932186438778826169e-05
7.509754877438718950e+02 1.922072345063228192e-05
7.518759379689844309e+02 1.912012866883924483e-05
7.527763881940969668e+02 1.904529223831601657e-05
7.536768384192096164e+02 1.896488264136389078e-05
7.545772886443221523e+02 1.881873051014647217e-05
7.554777388694346882e+02 1.856972093716063163e-05
7.563781890945472242e+02 1.823824449269745049e-05
7.572786393196597601e+02 1.791155727398130638e-05
7.581790895447722960e+02 1.765697029375407046e-05
7.590795397698849456e+02 1.748548260013188060e-05
7.599799899949974815e+02 1.739785998416488387e-05
7.608804402201100174e+02 1.738087674215224614e-05
7.617808904452225534e+02 1.738026970352094661e-05
7.626813406703350893e+02 1.734661865847006071e-05
7.635817908954477389e+02 1.726589762289851751e-05
7.644822411205602748e+02 1.714833845811169162e-05
7.653826913456728107e+02 1.701669119307235926e-05
7.662831415707853466e+02 1.689924747823347826e-05
7.671835917958978825e+02 1.684120456216762362e-05
7.680840420210104185e+02 1.688198962489838257e-05
7.689844922461230681e+02 1.700222787002461490e-05
7.698849424712356040e+02 1.712058791588128053e-05
7.707853926963481399e+02 1.713333319947040544e-05
7.716858429214606758e+02 1.696585736769238643e-05
7.725862931465732117e+02 1.662963607959507548e-05
7.734867433716858613e+02 1.623098414377303856e-05
7.743871935967983973e+02 1.588621027835120596e-05
7.752876438219109332e+02 1.563509850562223337e-05
7.761880940470234691e+02 1.545524992570843168e-05
7.770885442721360050e+02 1.531093272106761845e-05
7.779889944972485409e+02 1.517633914292980222e-05
7.788894447223611905e+02 1.503255608004743448e-05
7.797898949474737265e+02 1.485761614835534766e-05
7.806903451725862624e+02 1.464710251907277225e-05
7.815907953976987983e+02 1.442418818128603552e-05
7.824912456228113342e+02 1.420141558546420814e-05
7.833916958479238701e+02 1.399731994899498139e-05
7.842921460730365197e+02 1.386312944283495273e-05
7.851925962981490557e+02 1.381664938468006029e-05
7.860930465232615916e+02 1.380138148214310967e-05
7.869934967483741275e+02 1.376111501313757804e-05
7.878939469734866634e+02 1.368423126807057618e-05
7.887943971985993130e+02 1.357257520998310587e-05
7.896948474237118489e+02 1.344903816976349535e-05
7.905952976488243849e+02 1.334150395446389689e-05
7.914957478739369208e+02 1.325847395743249382e-05
7.923961980990494567e+02 1.319779781440366879e-05
7.932966483241619926e+02 1.314214140837412280e-05
7.941970985492746422e+02 1.306842366739429265e-05
7.950975487743871781e+02 1.297898162348395957e-05
7.959979989994997140e+02 1.288788873158354364e-05
7.968984492246122500e+02 1.278800599482845893e-05
7.977988994497247859e+02 1.265004995214144513e-05
7.986993496748374355e+02 1.247945240301224549e-05
7.995997998999499714e+02 1.231879686273061796e-05
8.005002501250625073e+02 1.218746221835810155e-05
8.014007003501750432e+02 1.208570997760101080e-05
8.023011505752875792e+02 1.202242123753936277e-05
8.032016008004001151e+02 1.200052949256020850e-05
8.041020510255127647e+02 1.200777149068252662e-05
8.050025012506253006e+02 1.203220393703719910e-05
8.059029514757378365e+02 1.206587628681238138e-05
8.068034017008503724e+02 1.210772312399976426e-05
8.077038519259629084e+02 1.217328966029274068e-05
8.086043021510754443e+02 1.226091843825236581e-05
8.095047523761880939e+02 1.234077678798962273e-05
8.104052026013006298e+02 1.239538106858195683e-05
8.113056528264131657e+02 1.243073268449622052e-05
8.122061030515257016e+02 1.245602000441466496e-05
8.131065532766382375e+02 1.247273324294353554e-05
8.140070035017508872e+02 1.248482221026381453e-05
8.149074537268634231e+02 1.249422005367434957e-05
8.158079039519759590e+02 1.247756129509131065e-05
8.167083541770884949e+02 1.240182185781288776e-05
8.176088044022010308e+02 1.225757759689010437e-05
8.185092546273135667e+02 1.207045433877745432e-05
8.194097048524262163e+02 1.188431724657320410e-05
8.203101550775387523e+02 1.174110963136529568e-05
8.212106053026512882e+02 1.167220110667639077e-05
8.221110555277638241e+02 1.167894364444687979e-05
8.230115057528763600e+02 1.173750244388573000e-05
8.239119559779890096e+02 1.181488052614925148e-05
8.248124062031015455e+02 1.187881321548537769e-05
8.257128564282140815e+02 1.191826634419445990e-05
8.266133066533266174e+02 1.194268010573974962e-05
8.275137568784391533e+02 1.198182530079038600e-05
8.284142071035516892e+02 1.208533110926492334e-05
8.293146573286643388e+02 1.226273623713543419e-05
8.302151075537768747e+02 1.245624549037806544e-05
8.311155577788894107e+02 1.258452805197515914e-05
8.320160080040019466e+02 1.260217892556043418e-05
8.329164582291144825e+02 1.253815316637599646e-05
8.338169084542270184e+02 1.248638707337913238e-05
8.347173586793396680e+02 1.252782806747610536e-05
8.356178089044522039e+02 1.266882824797362649e-05
8.365182591295647399e+02 1.286172187914485395e-05
8.374187093546772758e+02 1.302562366464050147e-05
8.383191595797898117e+02 1.308405897638672227e-05
8.392196098049024613e+02 1.302602833934323541e-05
8.401200600300149972e+02 1.290698015614896753e-05
8.410205102551275331e+02 1.279466024690520683e-05
8.419209604802400690e+02 1.271725059043319372e-05
8.428214107053526050e+02 1.267474480836287726e-05
8.437218609304651409e+02 1.267675215500691654e-05
8.446223111555777905e+02 1.271893774216372322e-05
8.455227613806903264e+02 1.276251590811297375e-05
8.464232116058028623e+02 1.279210542384535897e-05
8.473236618309153982e+02 1.285143342628354282e-05
8.482241120560279342e+02 1.299819220374342145e-05
8.491245622811405838e+02 1.324649763625024788e-05
8.500250125062531197e+02 1.353885326307198389e-05
8.509254627313656556e+02 1.376275518277132771e-05
8.518259129564781915e+02 1.383461724238883486e-05
8.527263631815907274e+02 1.377600893424115231e-05
8.536268134067032634e+02 1.369622049296339458e-05
8.545272636318159130e+02 1.370729084791805875e-05
8.554277138569284489e+02 1.383086357227050632e-05
8.563281640820409848e+02 1.398017167062561296e-05
8.572286143071535207e+02 1.405672853129517899e-05
8.581290645322660566e+02 1.404153391231325939e-05
8.590295147573785925e+02 1.396026615815483872e-05
8.599299649824912422e+02 1.383789935256651118e-05
8.608304152076037781e+02 1.372835817103146190e-05
8.617308654327163140e+02 1.369388825058164463e-05
8.626313156578288499e+02 1.373437109249967481e-05
8.635317658829413858e+02 1.379854976598731442e-05
8.644322161080540354e+02 1.385417195722892429e-05
8.653326663331665713e+02 1.388717185076856970e-05
8.662331165582791073e+02 1.384702881259649887e-05
8.671335667833916432e+02 1.369226912380471866e-05
8.680340170085041791e+02 1.346022431744281645e-05
8.689344672336167150e+02 1.322099503491395333e-05
8.698349174587293646e+02 1.303004513518863562e-05
8.707353676838419005e+02 1.293212411428120080e-05
8.716358179089544365e+02 1.295242545717929759e-05
8.725362681340669724e+02 1.308381193645406989e-05
8.734367183591795083e+02 1.328444058596844874e-05
8.743371685842921579e+02 1.347718987112114657e-05
8.752376188094046938e+02 1.359371501014896006e-05
8.761380690345172297e+02 1.364315967622919180e-05
8.770385192596297657e+02 1.367930570988760657e-05
8.779389694847423016e+02 1.373572979220998383e-05
8.788394197098548375e+02 1.381527067616522355e-05
8.797398699349674871e+02 1.390969008019265723e-05
8.806403201600800230e+02 1.401189058204542170e-05
8.815407703851925589e+02 1.412119793775275737e-05
8.824412206103050949e+02 1.423681637222519080e-05
8.833416708354176308e+02 1.432759004030576039e-05
8.842421210605301667e+02 1.438070614473571044e-05
8.851425712856428163e+02 1.441668824733638114e-05
8.860430215107553522e+02 1.444397626458286072e-05
8.869434717358678881e+02 1.446389355113282379e-05
8.878439219609804240e+02 1.449339022519463591e-05
8.887443721860929600e+02 1.454886402281291688e-05
8.896448224112056096e+02 1.462128769201085549e-05
8.905452726363181455e+02 1.468716851862039245e-05
8.914457228614306814e+02 1.472847377824695760e-05
8.923461730865432173e+02 1.475619981115020405e-05
8.932466233116557532e+02 1.480899677437701982e-05
8.941470735367682892e+02 1.491920934525275436e-05
8.950475237618809388e+02 1.505166571226865974e-05
8.959479739869934747e+02 1.511274638351341078e-05
8.968484242121060106e+02 1.507876259428081937e-05
8.977488744372185465e+02 1.503370745310718057e-05
8.986493246623310824e+02 1.504237456729629544e-05
8.995497748874437320e+02 1.510046345112800888e-05
9.004502251125562680e+02 1.519569486097931878e-05
9.013506753376688039e+02 1.532407679601820830e-05
9.022511255627813398e+02 1.545884784401892995e-05
9.031515757878938757e+02 1.557411351100935557e-05
9.040520260130064116e+02 1.567323453201623808e-05
9.049524762381190612e+02 1.575850620899389877e-05
9.058529264632315972e+02 1.581887381975292109e-05
9.067533766883441331e+02 1.588131856104473666e-05
9.076538269134566690e+02 1.602213586406636583e-05
9.085542771385692049e+02 1.630149949281181921e-05
9.094547273636817408e+02 1.670846596550076279e-05
9.103551775887943904e+02 1.716932115263928007e-05
9.112556278139069263e+02 1.760711194470918138e-05
9.121560780390194623e+02 1.798220608387038873e-05
9.130565282641319982e+02 1.824940360229956534e-05
9.139569784892445341e+02 1.836727774990975061e-05
9.148574287143571837e+02 1.837480151456445345e-05
9.157578789394697196e+02 1.835529644981725590e-05
9.166583291645822555e+02 1.836864883917754362e-05
9.175587793896947915e+02 1.842560414104826470e-05
9.184592296148073274e+02 1.851478833742716348e-05
9.193596798399198633e+02 1.865010272425865728e-05
9.202601300650325129e+02 1.880992852079545056e-05
9.211605802901450488e+02 1.891629530850078025e-05
9.220610305152575847e+02 1.896510412784405155e-05
9.229614807403701207e+02 1.903362096855751794e-05
9.238619309654826566e+02 1.915555439710703075e-05
9.247623811905953062e+02 1.930589006499824575e-05
9.256628314157078421e+02 1.946938890261052364e-05
9.265632816408203780e+02 1.965630811136465493e-05
9.274637318659329139e+02 1.986914715276844439e-05
9.283641820910454499e+02 2.010855682870476248e-05
9.292646323161579858e+02 2.034333658424619716e-05
9.301650825412706354e+02 2.049486382121078670e-05
9.310655327663831713e+02 2.054568866942831825e-05
9.319659829914957072e+02 2.056900328692827799e-05
9.328664332166082431e+02 2.061524180373772982e-05
9.337668834417207790e+02 2.067014356251985031e-05
9.346673336668334287e+02 2.073699216396310133e-05
9.355677838919459646e+02 2.084532700051409715e-05
9.364682341170585005e+02 2.101074523095801568e-05
9.373686843421710364e+02 2.121670101795165619e-05
9.382691345672835723e+02 2.141538293495949617e-05
9.391695847923961082e+02 2.160439320811235989e-05
9.400700350175087578e+02 2.185644011470745389e-05
9.409704852426212938e+02 2.222588269051556755e-05
9.418709354677338297e+02 2.268450735257879436e-05
9.427713856928463656e+02 2.319210927518281610e-05
9.436718359179589015e+02 2.374655307254240413e-05
9.445722861430714374e+02 2.427362015812399763e-05
9.454727363681840870e+02 2.461919852353306107e-05
9.463731865932966230e+02 2.476233201001047857e-05
9.472736368184091589e+02 2.488183593503979441e-05
9.481740870435216948e+02 2.512993866618534354e-05
9.490745372686342307e+02 2.549103809164971469e-05
9.499749874937468803e+02 2.586953350206277786e-05
9.508754377188594162e+02 2.618004564079299778e-05
9.517758879439719522e+02 2.635825736460263900e-05
9.526763381690844881e+02 2.642073348931300321e-05
9.535767883941970240e+02 2.646389259898000658e-05
9.544772386193095599e+02 2.659326936292633685e-05
9.553776888444222095e+02 2.685913692155020681e-05
9.562781390695347454e+02 2.723121551626484540e-05
9.571785892946472813e+02 2.760508781324723105e-05
9.580790395197598173e+02 2.782755564153920814e-05
9.589794897448723532e+02 2.787734718336797615e-05
9.598799399699850028e+02 2.792285374034243027e-05
9.607803901950975387e+02 2.810636475907424807e-05
9.616808404202100746e+02 2.840602654202129901e-05
9.625812906453226105e+02 2.869477187180246317e-05
9.634817408704351465e+02 2.886942331621428364e-05
9.643821910955476824e+02 2.895207968202478244e-05
9.652826413206603320e+02 2.903950744764568218e-05
9.661830915457728679e+02 2.917011534600875240e-05
9.670835417708854038e+02 2.934277861518924804e-05
9.679839919959979397e+02 2.957958740968493885e-05
9.688844422211104757e+02 2.986448617273075007e-05
9.697848924462230116e+02 3.015542508169959159e-05
9.706853426713356612e+02 3.046292718477929540e-05
9.715857928964481971e+02 3.081521005492580744e-05
9.724862431215607330e+02 3.118079652238432806e-05
9.733866933466732689e+02 3.151569353893571193e-05
9.742871435717858049e+02 3.183562394626828499e-05
9.751875937968984545e+02 3.216176529058304009e-05
9.760880440220109904e+02 3.250665900744846164e-05
9.769884942471235263e+02 3.285740717309631309e-05
9.778889444722360622e+02 3.314013069075246836e-05
9.787893946973485981e+02 3.330468745579312240e-05
9.796898449224611340e+02 3.341581001150986332e-05
9.805902951475737837e+02 3.359882666636972908e-05
9.814907453726863196e+02 3.390840623075159392e-05
9.823911955977988555e+02 3.429591578459885930e-05
9.832916458229113914e+02 3.467272069591987639e-05
9.841920960480239273e+02 3.501113518056047177e-05
9.850925462731365769e+02 3.533313472390149759e-05
9.859929964982491128e+02 3.555681308181215481e-05
9.868934467233616488e+02 3.554527499740319852e-05
9.877938969484741847e+02 3.533984360495975462e-05
9.886943471735867206e+02 3.511411143445351878e-05
9.895947973986992565e+02 3.498144683490208293e-05
9.904952476238119061e+02 3.501269735513295881e-05
9.913956978489244420e+02 3.528923320755033752e-05
9.922961480740369780e+02 3.579535985687373609e-05
9.931965982991495139e+02 3.639164106184120242e-05
9.940970485242620498e+02 3.687064889768602941e-05
9.949974987493745857e+02 3.710508871739556981e-05
9.958979489744872353e+02 3.723035768012927668e-05
9.967983991995997712e+02 3.746241935704981279e-05
9.976988494247123072e+02 3.784788753107421995e-05
9.985992996498248431e+02 3.834083276689853956e-05
9.994997498749373790e+02 3.893611525429561732e-05
1.000400200100050029e+03 3.959182408527512492e-05
1.001300650325162565e+03 4.021597036282902998e-05
1.002201100550275100e+03 4.081695091521805825e-05
1.003101550775387636e+03 4.149241377855792111e-05
1.004002001000500172e+03 4.229026477890015010e-05
1.004902451225612708e+03 4.315333532430448851e-05
1.005802901450725358e+03 4.394377717909920921e-05
1.006703351675837894e+03 4.465762567844427233e-05
1.007603801900950430e+03 4.547774085896486598e-05
1.008504252126062966e+03 4.656078769582936783e-05
1.009404702351175501e+03 4.789417668042176369e-05
1.010305152576288151e+03 4.930546915775270293e-05
1.011205602801400687e+03 5.057218894586291237e-05
1.012106053026513223e+03 5.151629453214927952e-05
1.013006503251625759e+03 5.206186535063687249e-05
1.013906953476738295e+03 5.241433516485916738e-05
1.014807403701850831e+03 5.293705431329813341e-05
1.015707853926963480e+03 5.373157256123145656e-05
1.016608304152076016e+03 5.464743925124373607e-05
1.017508754377188552e+03 5.551401656744470625e-05
1.018409204602301088e+03 5.622616299199053024e-05
1.019309654827413624e+03 5.674305493770632304e-05
1.020210105052526160e+03 5.705191006396540985e-05
1.021110555277638809e+03 5.721751641448617683e-05
1.022011005502751345e+03 5.742496018672153921e-05
1.022911455727863881e+03 5.790155087635454241e-05
1.023811905952976417e+03 5.883176118917085107e-05
1.024712356178089067e+03 6.020404653575888376e-05
1.025612806403201603e+03 6.175440704254018197e-05
1.026513256628314139e+03 6.308819780052644943e-05
1.027413706853426675e+03 6.391200311656070076e-05
1.028314157078539210e+03 6.429265982592476060e-05
1.029214607303651746e+03 6.445596895916976888e-05
1.030115057528764282e+03 6.459379309691551656e-05
1.031015507753876818e+03 6.498743075823051039e-05
1.031915957978989354e+03 6.582140443449002666e-05
1.032816408204101890e+03 6.699282908001666077e-05
1.033716858429214653e+03 6.832977349549636151e-05
1.034617308654327189e+03 6.971760616756289130e-05
1.035517758879439725e+03 7.110590620273694569e-05
1.036418209104552261e+03 7.253255564891819638e-05
1.037318659329664797e+03 7.398003344241815284e-05
1.038219109554777333e+03 7.529725575581465978e-05
1.039119559779889869e+03 7.640325370718655971e-05
1.040020010005002405e+03 7.740910884378624196e-05
1.040920460230114941e+03 7.858541077362380908e-05
1.041820910455227477e+03 8.019662261935552993e-05
1.042721360680340013e+03 8.223406618764081638e-05
1.043621810905452776e+03 8.455745420269131045e-05
1.044522261130565312e+03 8.722181302304969218e-05
1.045422711355677848e+03 9.032417204468772530e-05
1.046323161580790384e+03 9.380416755813851862e-05
1.047223611805902920e+03 9.735724629637740020e-05
1.048124062031015455e+03 1.006541572421944193e-04
1.049024512256127991e+03 1.037263820855540352e-04
1.049924962481240527e+03 1.068016680838688895e-04
1.050825412706353063e+03 1.099081815444620590e-04
1.051725862931465599e+03 1.127277691300224816e-04
1.052626313156578135e+03 1.151384222054931632e-04
1.053526763381690898e+03 1.176543295175131381e-04
1.054427213606803434e+03 1.209229305057916325e-04
1.055327663831915970e+03 1.250044547414749015e-04
1.056228114057028506e+03 1.293271840131746966e-04
1.057128564282141042e+03 1.333590185822824362e-04
1.058029014507253578e+03 1.370556710375208731e-04
1.058929464732366114e+03 1.405730378481963490e-04
1.059829914957478650e+03 1.437869640085780100e-04
1.060730365182591186e+03 1.465229437118784495e-04
1.061630815407703722e+03 1.490027974506449274e-04
1.062531265632816257e+03 1.515209964008939353e-04
1.063431715857929021e+03 1.540930531208871412e-04
1.064332166083041557e+03 1.568293827736600842e-04
1.065232616308154093e+03 1.600475753481747502e-04
1.066133066533266629e+03 1.637819443118007613e-04
1.067033516758379164e+03 1.674915368210030139e-04
1.067933966983491700e+03 1.702783092164337879e-04
1.068834417208604236e+03 1.718155516892313746e-04
1.069734867433716772e+03 1.728176575307488927e-04
1.070635317658829308e+03 1.741150273250765233e-04
1.071535767883941844e+03 1.760606088518923158e-04
1.072436218109054380e+03 1.790076189200059736e-04
1.073336668334167143e+03 1.835832002018818947e-04
1.074237118559279679e+03 1.901204697485809106e-04
1.075137568784392215e+03 1.979334946038174739e-04
1.076038019009504751e+03 2.057128913615223920e-04
1.076938469234617287e+03 2.126116725148375481e-04
1.077838919459729823e+03 2.187342318432667222e-04
1.078739369684842359e+03 2.249174836045075290e-04
1.079639819909954895e+03 2.317178600457529760e-04
1.080540270135067431e+03 2.383536909521529552e-04
1.081440720360179967e+03 2.435761863981908144e-04
1.082341170585292502e+03 2.471129664667072977e-04
1.083241620810405038e+03 2.494348582105289933e-04
1.084142071035517802e+03 2.509443917581822788e-04
1.085042521260630338e+03 2.524325363089783181e-04
1.085942971485742873e+03 2.549450377530375865e-04
1.086843421710855409e+03 2.592332354495288952e-04
1.087743871935967945e+03 2.656472892245530389e-04
1.088644322161080481e+03 2.736547989659887116e-04
1.089544772386193017e+03 2.821537571205735861e-04
1.090445222611305553e+03 2.896950375358967240e-04
1.091345672836418089e+03 2.944800316168962344e-04
1.092246123061530625e+03 2.955405759903071057e-04
1.093146573286643161e+03 2.937673736238461167e-04
1.094047023511755924e+03 2.919084432138922477e-04
1.094947473736868460e+03 2.929917307165239514e-04
1.095847923961980996e+03 2.980400467916002297e-04
1.096748374187093532e+03 3.061019719546606110e-04
1.097648824412206068e+03 3.159003659095485183e-04
1.098549274637318604e+03 3.264128169447387908e-04
1.099449724862431140e+03 3.371332946494943507e-04
1.100350175087543676e+03 3.477854639008005097e-04
1.101250625312656211e+03 3.578455658078975778e-04
1.102151075537768747e+03 3.671559988767855698e-04
1.103051525762881283e+03 3.762294869699117205e-04
1.103951975987994047e+03 3.858171382927547935e-04
1.104852426213106583e+03 3.958118882469149674e-04
1.105752876438219118e+03 4.052925095299300976e-04
1.106653326663331654e+03 4.139842975637759190e-04
1.107553776888444190e+03 4.224697083789098620e-04
1.108454227113556726e+03 4.304244592166987359e-04
1.109354677338669262e+03 4.362992667901210465e-04
1.110255127563781798e+03 4.386552035741325749e-04
1.111155577788894334e+03 4.371877180900263118e-04
1.112056028014006870e+03 4.329518009848553153e-04
1.112956478239119406e+03 4.285707227395254247e-04
1.113856928464232169e+03 4.277333748870957783e-04
1.114757378689344705e+03 4.327176482171506350e-04
1.115657828914457241e+03 4.430263386594248407e-04
1.116558279139569777e+03 4.562412658775235816e-04
1.117458729364682313e+03 4.691359915452000318e-04
1.118359179589794849e+03 4.789228509458212462e-04
1.119259629814907385e+03 4.843856145135189465e-04
1.120160080040019920e+03 4.850956935376984653e-04
1.121060530265132456e+03 4.810456349451116653e-04
1.121960980490244992e+03 4.730912027640556822e-04
1.122861430715357528e+03 4.623618270092211421e-04
1.123761880940470292e+03 4.492827274669937204e-04
1.124662331165582827e+03 4.346349575808958025e-04
1.125562781390695363e+03 4.198833442128163088e-04
1.126463231615807899e+03 4.051500443100166564e-04
1.127363681840920435e+03 3.907595857100498683e-04
1.128264132066032971e+03 3.780094741814090417e-04
1.129164582291145507e+03 3.660641370390992902e-04
1.130065032516258043e+03 3.521672255294272915e-04
1.130965482741370579e+03 3.349297603065359689e-04
1.131865932966483115e+03 3.146262562379065772e-04
1.132766383191595651e+03 2.922369727246657066e-04
1.133666833416708187e+03 2.687459917323280711e-04
1.134567283641820950e+03 2.450294926980320191e-04
1.135467733866933486e+03 2.223691396401303083e-04
1.136368184092046022e+03 2.016803176389735889e-04
1.137268634317158558e+03 1.835040872212203959e-04
1.138169084542271094e+03 1.686482326517423829e-04
1.139069534767383630e+03 1.572828367346062605e-04
1.139969984992496165e+03 1.482716523571300435e-04
1.140870435217608701e+03 1.402566498960286555e-04
1.141770885442721237e+03 1.327901473943418566e-04
1.142671335667833773e+03 1.256280500380206806e-04
1.143571785892946309e+03 1.182491494757337508e-04
1.144472236118059072e+03 1.108300963303669089e-04
1.145372686343171608e+03 1.044269983747116712e-04
1.146273136568284144e+03 9.964818614738257493e-05
1.147173586793396680e+03 9.618619640930708915e-05
1.148074037018509216e+03 9.353293689494465311e-05
1.148974487243621752e+03 9.161297686143526485e-05
1.149874937468734288e+03 9.040530420679039961e-05
1.150775387693846824e+03 8.936986068029456262e-05
1.151675837918959360e+03 8.797474751803828128e-05
1.152576288144071896e+03 8.646973146687340136e-05
1.153476738369184432e+03 8.530044607350762646e-05
1.154377188594297195e+03 8.452402037477228271e-05
1.155277638819409731e+03 8.399142867661102971e-05
1.156178089044522267e+03 8.365688672067457489e-05
1.157078539269634803e+03 8.337601922587983589e-05
1.157978989494747339e+03 8.241153039920716069e-05
1.158879439719859874e+03 8.017660892129504569e-05
1.159779889944972410e+03 7.704816541937002672e-05
1.160680340170084946e+03 7.369256417839948540e-05
1.161580790395197482e+03 7.050109932108630285e-05
1.162481240620310018e+03 6.765843488632731616e-05
1.163381690845422554e+03 6.520461478870131936e-05
1.164282141070535317e+03 6.303297827120696393e-05
1.165182591295647853e+03 6.112447393472998181e-05
1.166083041520760389e+03 5.963765302023760055e-05
1.166983491745872925e+03 5.867047859813875307e-05
1.167883941970985461e+03 5.815122865130241333e-05
1.168784392196097997e+03 5.789941807069353162e-05
1.169684842421210533e+03 5.765133234749722729e-05
1.170585292646323069e+03 5.721385274463025523e-05
1.171485742871435605e+03 5.666891236282687634e-05
1.172386193096548141e+03 5.614061589688556960e-05
1.173286643321660677e+03 5.564910046897413883e-05
1.174187093546773440e+03 5.525728539176024209e-05
1.175087543771885976e+03 5.501326804600983672e-05
1.175987993996998512e+03 5.492554873450922046e-05
1.176888444222111048e+03 5.502534626258981799e-05
1.177788894447223583e+03 5.530193077665436399e-05
1.178689344672336119e+03 5.571150074298697431e-05
1.179589794897448655e+03 5.629209979496829845e-05
1.180490245122561191e+03 5.714111053793443105e-05
1.181390695347673727e+03 5.828130027100107691e-05
1.182291145572786263e+03 5.962367608047892194e-05
1.183191595797898799e+03 6.103978879342887218e-05
1.184092046023011562e+03 6.235008784051857510e-05
1.184992496248124098e+03 6.324049238706380444e-05
1.185892946473236634e+03 6.353128421116131807e-05
1.186793396698349170e+03 6.346721091122318613e-05
1.187693846923461706e+03 6.338772576534652434e-05
1.188594297148574242e+03 6.351516792413503714e-05
1.189494747373686778e+03 6.396337613916942334e-05
1.190395197598799314e+03 6.467931374789198759e-05
1.191295647823911850e+03 6.560222204288970336e-05
1.192196098049024386e+03 6.676445558329790694e-05
1.193096548274136921e+03 6.812292474305439824e-05
1.193996998499249457e+03 6.957978737591011026e-05
1.194897448724362221e+03 7.120860437827083197e-05
1.195797898949474757e+03 7.318842632597139701e-05
1.196698349174587293e+03 7.555690924037741286e-05
1.197598799399699828e+03 7.812217110413512795e-05
1.198499249624812364e+03 8.062309707073289818e-05
1.199399699849924900e+03 8.299209494162809405e-05
1.200300150075037436e+03 8.527489236456047038e-05
1.201200600300149972e+03 8.734036440290616609e-05
1.202101050525262508e+03 8.899829003822251486e-05
1.203001500750375044e+03 9.035063893337989165e-05
1.203901950975487580e+03 9.179275555316962151e-05
1.204802401200600343e+03 9.369950404164946781e-05
1.205702851425712879e+03 9.605955801291210527e-05
1.206603301650825415e+03 9.860296289912680887e-05
1.207503751875937951e+03 1.012868892310562672e-04
1.208404202101050487e+03 1.041619616794161620e-04
1.209304652326163023e+03 1.071322320683867278e-04
1.210205102551275559e+03 1.101075453361849226e-04
1.211105552776388095e+03 1.132429019989510192e-04
1.212006003001500630e+03 1.167942913713911600e-04
1.212906453226613166e+03 1.209779561428604337e-04
1.213806903451725702e+03 1.258434173844860443e-04
1.214707353676838466e+03 1.310271729613865098e-04
1.215607803901951002e+03 1.360333867838683377e-04
1.216508254127063537e+03 1.404823895923554885e-04
1.217408704352176073e+03 1.435580886840902737e-04
1.218309154577288609e+03 1.441976726150776640e-04
1.219209604802401145e+03 1.422944997721017175e-04
1.220110055027513681e+03 1.390322253686564419e-04
1.221010505252626217e+03 1.360026632183195948e-04
1.221910955477738753e+03 1.340977090870379613e-04
1.222811405702851289e+03 1.334247708106613270e-04
1.223711855927963825e+03 1.338698647847729546e-04
1.224612306153076588e+03 1.351244960827000679e-04
1.225512756378189124e+03 1.365570132203336689e-04
1.226413206603301660e+03 1.375773159663644016e-04
1.227313656828414196e+03 1.381914078369910859e-04
1.228214107053526732e+03 1.387822962101101243e-04
1.229114557278639268e+03 1.398245801164726358e-04
1.230015007503751804e+03 1.421247013319280352e-04
1.230915457728864340e+03 1.464447786633087134e-04
1.231815907953976875e+03 1.531215315736481498e-04
1.232716358179089411e+03 1.616819833005534205e-04
1.233616808404201947e+03 1.706898387352220544e-04
1.234517258629314711e+03 1.791291064472092952e-04
1.235417708854427246e+03 1.874938442887675357e-04
1.236318159079539782e+03 1.967272378043901141e-04
1.237218609304652318e+03 2.072681248848237635e-04
1.238119059529764854e+03 2.193143636398375829e-04
1.239019509754877390e+03 2.328873511730050175e-04
1.239919959979989926e+03 2.474610880197948299e-04
1.240820410205102462e+03 2.622461541444656339e-04
1.241720860430214998e+03 2.768655171623296161e-04
1.242621310655327534e+03 2.915513984816544397e-04
1.243521760880440070e+03 3.066041728794459279e-04
1.244422211105552606e+03 3.218461465230794036e-04
1.245322661330665369e+03 3.370433782003570775e-04
1.246223111555777905e+03 3.526139173169114973e-04
1.247123561780890441e+03 3.688055181515337137e-04
1.248024012006002977e+03 3.840193399851709135e-04
1.248924462231115513e+03 3.958799392171155076e-04
1.249824912456228049e+03 4.035115062592817899e-04
1.250725362681340584e+03 4.077325545894792719e-04
1.251625812906453120e+03 4.097425942343376750e-04
1.252526263131565656e+03 4.102989829790706661e-04
1.253426713356678192e+03 4.097476371117367050e-04
1.254327163581790728e+03 4.079661328788913789e-04
1.255227613806903491e+03 4.051607750551920674e-04
1.256128064032016027e+03 4.029647213393778909e-04
1.257028514257128563e+03 4.028226636423915832e-04
1.257928964482241099e+03 4.045838604599229574e-04
1.258829414707353635e+03 4.071762169691707988e-04
1.259729864932466171e+03 4.097042771581214785e-04
1.260630315157578707e+03 4.120917767413597170e-04
1.261530765382691243e+03 4.148099209682316684e-04
1.262431215607803779e+03 4.183668745380904764e-04
1.263331665832916315e+03 4.229808309554814448e-04
1.264232116058028851e+03 4.281773492876669493e-04
1.265132566283141614e+03 4.332060750443708359e-04
1.266033016508254150e+03 4.379041457239272561e-04
1.266933466733366686e+03 4.423268913034605551e-04
1.267833916958479222e+03 4.464346530602233596e-04
1.268734367183591758e+03 4.507939825435791094e-04
1.269634817408704293e+03 4.562386969774352707e-04
1.270535267633816829e+03 4.630828078834196902e-04
1.271435717858929365e+03 4.713259327497236278e-04
1.272336168084041901e+03 4.804723058788626204e-04
1.273236618309154437e+03 4.891479478458404416e-04
1.274137068534266973e+03 4.963263094627281798e-04
1.275037518759379736e+03 5.024104444697900839e-04
1.275937968984492272e+03 5.085627894000168715e-04
1.276838419209604808e+03 5.155240958230728442e-04
1.277738869434717344e+03 5.231261659280233341e-04
1.278639319659829880e+03 5.305369148985819875e-04
1.279539769884942416e+03 5.375025862264000290e-04
1.280440220110054952e+03 5.450614236313797633e-04
1.281340670335167488e+03 5.543444516305967617e-04
1.282241120560280024e+03 5.655243383155052509e-04
1.283141570785392560e+03 5.778987917144689157e-04
1.284042021010505096e+03 5.904342072451144400e-04
1.284942471235617859e+03 6.030562248324238721e-04
1.285842921460730395e+03 6.163574402100244600e-04
1.286743371685842931e+03 6.303217823797356350e-04
1.287643821910955467e+03 6.438279558441082099e-04
1.288544272136068003e+03 6.554441260966030296e-04
1.289444722361180538e+03 6.644678462856752925e-04
1.290345172586293074e+03 6.714390962808034456e-04
1.291245622811405610e+03 6.780064996419405462e-04
1.292146073036518146e+03 6.852566647875525619e-04
1.293046523261630682e+03 6.932290246675325155e-04
1.293946973486743218e+03 7.019460187286806659e-04
1.294847423711855754e+03 7.112059828988603026e-04
1.295747873936968517e+03 7.198535373830654630e-04
1.296648324162081053e+03 7.264192069975119711e-04
1.297548774387193589e+03 7.308558942683102090e-04
1.298449224612306125e+03 7.348785285917171705e-04
1.299349674837418661e+03 7.398416475266578153e-04
1.300250125062531197e+03 7.455258362481447616e-04
1.301150575287643733e+03 7.515315799516372221e-04
1.302051025512756269e+03 7.581369983607381220e-04
1.302951475737868805e+03 7.658257963542646840e-04
1.303851925962981340e+03 7.748261534761659644e-04
1.304752376188093876e+03 7.847567068525867226e-04
1.305652826413206640e+03 7.949740704510270062e-04
1.306553276638319176e+03 8.050531913485140922e-04
1.307453726863431712e+03 8.147254075011922713e-04
1.308354177088544247e+03 8.241908696124612861e-04
1.309254627313656783e+03 8.343035777052602549e-04
1.310155077538769319e+03 8.462700612678563349e-04
1.311055527763881855e+03 8.616922147062077309e-04
1.311955977988994391e+03 8.819143024852418508e-04
1.312856428214106927e+03 9.066546614340383016e-04
1.313756878439219463e+03 9.338682432768473677e-04
1.314657328664331999e+03 9.612144777059853946e-04
1.315557778889444762e+03 9.869427668878546361e-04
1.316458229114557298e+03 1.010089197100148741e-03
1.317358679339669834e+03 1.031533894180718678e-03
1.318259129564782370e+03 1.053827978300821665e-03
1.319159579789894906e+03 1.080273502244010570e-03
1.320060030015007442e+03 1.113498440957220049e-03
1.320960480240119978e+03 1.153534227646227286e-03
1.321860930465232514e+03 1.198393697752606849e-03
1.322761380690345050e+03 1.246157798464777710e-03
1.323661830915457585e+03 1.295821554586973953e-03
1.324562281140570121e+03 1.348251765112554656e-03
1.325462731365682885e+03 1.404758920763094984e-03
1.326363181590795421e+03 1.464258007263227095e-03
1.327263631815907956e+03 1.523279667067997840e-03
1.328164082041020492e+03 1.578394660172238381e-03
1.329064532266133028e+03 1.628574502129690295e-03
1.329964982491245564e+03 1.676728604230407187e-03
1.330865432716358100e+03 1.726121658857929751e-03
1.331765882941470636e+03 1.777183230541897526e-03
1.332666333166583172e+03 1.828793811019860860e-03
1.333566783391695708e+03 1.879380491500414309e-03
1.334467233616808244e+03 1.929321742293967946e-03
1.335367683841921007e+03 1.984252129016823851e-03
1.336268134067033543e+03 2.051192398319084606e-03
1.337168584292146079e+03 2.131801949004600606e-03
1.338069034517258615e+03 2.222420144393897137e-03
1.338969484742371151e+03 2.317941712309140069e-03
1.339869934967483687e+03 2.414283640565106741e-03
1.340770385192596223e+03 2.509221440225938883e-03
1.341670835417708759e+03 2.604140891227353649e-03
1.342571285642821294e+03 2.704633824577661917e-03
1.343471735867933830e+03 2.815771117187235942e-03
1.344372186093046366e+03 2.938700549709661724e-03
1.345272636318158902e+03 3.072333475116164735e-03
1.346173086543271666e+03 3.213461991095814280e-03
1.347073536768384201e+03 3.357610639442782600e-03
1.347973986993496737e+03 3.501596615779979139e-03
1.348874437218609273e+03 3.643116710405056892e-03
1.349774887443721809e+03 3.780000468292950364e-03
1.350675337668834345e+03 3.910838405668182020e-03
1.351575787893946881e+03 4.035063643345790027e-03
1.352476238119059417e+03 4.154339622661696457e-03
1.353376688344171953e+03 4.275348172354106677e-03
1.354277138569284489e+03 4.405485670195306153e-03
1.355177588794397025e+03 4.549901980414177219e-03
1.356078039019509788e+03 4.718899690925474309e-03
1.356978489244622324e+03 4.922620989618866835e-03
1.357878939469734860e+03 5.160390270373365999e-03
1.358779389694847396e+03 5.426576801315668129e-03
1.359679839919959932e+03 5.725775571734130313e-03
1.360580290145072468e+03 6.073007170907723795e-03
1.361480740370185003e+03 6.471362804660088161e-03
1.362381190595297539e+03 6.897873572098456828e-03
1.363281640820410075e+03 7.329499796263048289e-03
1.364182091045522611e+03 7.770278197759312652e-03
1.365082541270635147e+03 8.227695194153032340e-03
1.365982991495747910e+03 8.690240911447169592e-03
1.366883441720860446e+03 9.152121629262391367e-03
1.367783891945972982e+03 9.623161041965562837e-03
1.368684342171085518e+03 1.010912763233628130e-02
1.369584792396198054e+03 1.061448064826411158e-02
1.370485242621310590e+03 1.114652201722878509e-02
1.371385692846423126e+03 1.171746055031189920e-02
1.372286143071535662e+03 1.234231376744739789e-02
1.373186593296648198e+03 1.302500723810204493e-02
1.374087043521760734e+03 1.376740422354939472e-02
1.374987493746873270e+03 1.459019893512350161e-02
1.375887943971986033e+03 1.552256255470212641e-02
1.376788394197098569e+03 1.658753336695103012e-02
1.377688844422211105e+03 1.780663972589996424e-02
1.378589294647323641e+03 1.917535512611680260e-02
1.379489744872436177e+03 2.064884244463715407e-02
1.380390195097548713e+03 2.217800480568322616e-02
1.381290645322661248e+03 2.376737355351393743e-02
1.382191095547773784e+03 2.548025342463401330e-02
1.383091545772886320e+03 2.739203189949157569e-02
1.383991995997998856e+03 2.951795798389337047e-02
1.384892446223111392e+03 3.184921816912995862e-02
1.385792896448224155e+03 3.446991327518891812e-02
1.386693346673336691e+03 3.747549190638983091e-02
1.387593796898449227e+03 4.088327432192258304e-02
1.388494247123561763e+03 4.463928987978472290e-02
1.389394697348674299e+03 4.857347788344484191e-02
1.390295147573786835e+03 5.243345103768278642e-02
1.391195597798899371e+03 5.590903407427876698e-02
1.392096048024011907e+03 5.860502118628031776e-02
1.392996498249124443e+03 6.032517197130728148e-02
1.393896948474236979e+03 6.107724069798228794e-02
1.394797398699349515e+03 6.093210776910978205e-02
1.395697848924462278e+03 6.028644203251871253e-02
1.396598299149574814e+03 5.971547791908200786e-02
1.397498749374687350e+03 5.930070080619147949e-02
1.398399199599799886e+03 5.851741185406821033e-02
1.399299649824912422e+03 5.680910409858767884e-02
1.400200100050024957e+03 5.398270541858552624e-02
1.401100550275137493e+03 5.021937248328280090e-02
1.402001000500250029e+03 4.588969020862704307e-02
1.402901450725362565e+03 4.137307978845064516e-02
1.403801900950475101e+03 3.690088406846138425e-02
1.404702351175587637e+03 3.257285042495729199e-02
1.405602801400700173e+03 2.847418418978453492e-02
1.406503251625812936e+03 2.473259282452997324e-02
1.407403701850925472e+03 2.146824601424941401e-02
1.408304152076038008e+03 1.871598435581931300e-02
1.409204602301150544e+03 1.643900452022815928e-02
1.410105052526263080e+03 1.456054076860783218e-02
1.411005502751375616e+03 1.298838268818324967e-02
1.411905952976488152e+03 1.164627513533506367e-02
1.412806403201600688e+03 1.049676555605816124e-02
1.413706853426713224e+03 9.528578260101163919e-03
1.414607303651825760e+03 8.702951824210219609e-03
1.415507753876938295e+03 7.960071221640363168e-03
1.416408204102051059e+03 7.273463191659803456e-03
1.417308654327163595e+03 6.655399346179226121e-03
1.418209104552276131e+03 6.123224233554946244e-03
1.419109554777388666e+03 5.672311084595382975e-03
1.420010005002501202e+03 5.278490228909267674e-03
1.420910455227613738e+03 4.922699605260522256e-03
1.421810905452726274e+03 4.597133672447581768e-03
1.422711355677838810e+03 4.299056636592196376e-03
1.423611805902951346e+03 4.031946424891145499e-03
1.424512256128063882e+03 3.797332774695105859e-03
1.425412706353176418e+03 3.588093000661481818e-03
1.426313156578289181e+03 3.397827925713030935e-03
1.427213606803401717e+03 3.227697894084135578e-03
1.428114057028514253e+03 3.075588865861901035e-03
1.429014507253626789e+03 2.933248550907760661e-03
1.429914957478739325e+03 2.796658587619228493e-03
1.430815407703851861e+03 2.669254308133795200e-03
1.431715857928964397e+03 2.557247314765843070e-03
1.432616308154076933e+03 2.459319198530759715e-03
1.433516758379189469e+03 2.366662582349389476e-03
1.434417208604302004e+03 2.274201629208463110e-03
1.435317658829414540e+03 2.183775036216855248e-03
1.436218109054527304e+03 2.098541911372478995e-03
1.437118559279639840e+03 2.019707966026673945e-03
1.438019009504752376e+03 1.948241328069898149e-03
1.438919459729864911e+03 1.883262100890238568e-03
1.439819909954977447e+03 1.821182702616763564e-03
1.440720360180089983e+03 1.760353186913787490e-03
1.441620810405202519e+03 1.701827116841975705e-03
1.442521260630315055e+03 1.647963088257100748e-03
1.443421710855427591e+03 1.598260679538458925e-03
1.444322161080540127e+03 1.548145877456866401e-03
1.445222611305652663e+03 1.495275002160624447e-03
1.446123061530765426e+03 1.441977366702006103e-03
1.447023511755877962e+03 1.393778601590588574e-03
1.447923961980990498e+03 1.353964147701649991e-03
1.448824412206103034e+03 1.320547878682648384e-03
1.449724862431215570e+03 1.289143413020257508e-03
1.450625312656328106e+03 1.256530126284088065e-03
1.451525762881440642e+03 1.222407707921588545e-03
1.452426213106553178e+03 1.189263067840471387e-03
1.453326663331665713e+03 1.158821764286711159e-03
1.454227113556778249e+03 1.129645122598838935e-03
1.455127563781890785e+03 1.099253040222795703e-03
1.456028014007003321e+03 1.066956676045030267e-03
1.456928464232116085e+03 1.034518555153624789e-03
1.457828914457228620e+03 1.003374649234803958e-03
1.458729364682341156e+03 9.744564294185372507e-04
1.459629814907453692e+03 9.476129706266792031e-04
1.460530265132566228e+03 9.220471466577056770e-04
1.461430715357678764e+03 8.980644124109563638e-04
1.462331165582791300e+03 8.754017597697196212e-04
1.463231615807903836e+03 8.522831644555857716e-04
1.464132066033016372e+03 8.288211479897670186e-04
1.465032516258128908e+03 8.082578220477541374e-04
1.465932966483241444e+03 7.935632041657754909e-04
1.466833416708354207e+03 7.847248103800265285e-04
1.467733866933466743e+03 7.790640028399097245e-04
1.468634317158579279e+03 7.727749667501319312e-04
1.469534767383691815e+03 7.638290564203093370e-04
1.470435217608804351e+03 7.528139263784841941e-04
1.471335667833916887e+03 7.416069579595415675e-04
1.472236118059029423e+03 7.314691118199462055e-04
1.473136568284141958e+03 7.218661875156455248e-04
1.474037018509254494e+03 7.120919942728975039e-04
1.474937468734367030e+03 7.022410903010072730e-04
1.475837918959479566e+03 6.926923090453348565e-04
1.476738369184592329e+03 6.836227449554801647e-04
1.477638819409704865e+03 6.753913279788485192e-04
1.478539269634817401e+03 6.680549233540712195e-04
1.479439719859929937e+03 6.603744391835298516e-04
1.480340170085042473e+03 6.518560245004278650e-04
1.481240620310155009e+03 6.438315298328476082e-04
1.482141070535267545e+03 6.372540581926575826e-04
1.483041520760380081e+03 6.319413685663019488e-04
1.483941970985492617e+03 6.275754877154785796e-04
1.484842421210605153e+03 6.234386276550226043e-04
1.485742871435717689e+03 6.185286662031836812e-04
1.486643321660830452e+03 6.131528160840425202e-04
1.487543771885942988e+03 6.078858420253969563e-04
1.488444222111055524e+03 6.022061998995513260e-04
1.489344672336168060e+03 5.959402107504792323e-04
1.490245122561280596e+03 5.895441129427000113e-04
1.491145572786393132e+03 5.826609302610964887e-04
1.492046023011505667e+03 5.739538998925619280e-04
1.492946473236618203e+03 5.629940184389028946e-04
1.493846923461730739e+03 5.510284503600187652e-04
1.494747373686843275e+03 5.388592800698551507e-04
1.495647823911955811e+03 5.274080839667651165e-04
1.496548274137068574e+03 5.184527666822806797e-04
1.497448724362181110e+03 5.118444921449773460e-04
1.498349174587293646e+03 5.058795119578123924e-04
1.499249624812406182e+03 4.999309867507595448e-04
1.500150075037518718e+03 4.945817220614410342e-04
1.501050525262631254e+03 4.895834463001166870e-04
1.501950975487743790e+03 4.832938638174677330e-04
1.502851425712856326e+03 4.750444663862611410e-04
1.503751875937968862e+03 4.660980425965147167e-04
1.504652326163081398e+03 4.578872787121156447e-04
1.505552776388193934e+03 4.512355109054927969e-04
1.506453226613306470e+03 4.463446499122961748e-04
1.507353676838419233e+03 4.423658479197546570e-04
1.508254127063531769e+03 4.377440880440615183e-04
1.509154577288644305e+03 4.313394663038190016e-04
1.510055027513756841e+03 4.233192287533312902e-04
1.510955477738869376e+03 4.148079079811956569e-04
1.511855927963981912e+03 4.076085562597912175e-04
1.512756378189094448e+03 4.031358104360629807e-04
1.513656828414206984e+03 4.008217790540877777e-04
1.514557278639319520e+03 3.990516448473541014e-04
1.515457728864432056e+03 3.968134401647090267e-04
1.516358179089544592e+03 3.939461322768157475e-04
1.517258629314657355e+03 3.901932485465826710e-04
1.518159079539769891e+03 3.850676872322677884e-04
1.519059529764882427e+03 3.787418644542745860e-04
1.519959979989994963e+03 3.712704151482301793e-04
1.520860430215107499e+03 3.623334546773374488e-04
1.521760880440220035e+03 3.531927449061930463e-04
1.522661330665332571e+03 3.455779394494265240e-04
1.523561780890445107e+03 3.395017217282358512e-04
1.524462231115557643e+03 3.339900839968219684e-04
1.525362681340670179e+03 3.283656694275699679e-04
1.526263131565782714e+03 3.229636594492937330e-04
1.527163581790895478e+03 3.185123897283005916e-04
1.528064032016008014e+03 3.146736945549924187e-04
1.528964482241120550e+03 3.109062384254387425e-04
1.529864932466233086e+03 3.077046501844517496e-04
1.530765382691345621e+03 3.052189824273108935e-04
1.531665832916458157e+03 3.027603802191168331e-04
1.532566283141570693e+03 3.001477309831675081e-04
1.533466733366683229e+03 2.977380527198170927e-04
1.534367183591795765e+03 2.957698678596769521e-04
1.535267633816908301e+03 2.947222749532676478e-04
1.536168084042020837e+03 2.950656528222078126e-04
1.537068534267133600e+03 2.960239570851875461e-04
1.537968984492246136e+03 2.958488610840119049e-04
1.538869434717358672e+03 2.940771006168169718e-04
1.539769884942471208e+03 2.917746663977932456e-04
1.540670335167583744e+03 2.896393506760860524e-04
1.541570785392696280e+03 2.877456516933815547e-04
1.542471235617808816e+03 2.864481407094479105e-04
1.543371685842921352e+03 2.859920194851487871e-04
1.544272136068033888e+03 2.863346108067373963e-04
1.545172586293146423e+03 2.876891140569054570e-04
1.546073036518258959e+03 2.900597880714785807e-04
1.546973486743371723e+03 2.925108538545002370e-04
1.547873936968484259e+03 2.938125370717443487e-04
1.548774387193596795e+03 2.937376587385773273e-04
1.549674837418709330e+03 2.931001840719957329e-04
1.550575287643821866e+03 2.932140241742297042e-04
1.551475737868934402e+03 2.954024089845607381e-04
1.552376188094046938e+03 3.003123791430903572e-04
1.553276638319159474e+03 3.075215864597378133e-04
1.554177088544272010e+03 3.152629730745350840e-04
1.555077538769384546e+03 3.214778640542318897e-04
1.555977988994497082e+03 3.257181446466346367e-04
1.556878439219609618e+03 3.291214492161782345e-04
1.557778889444722381e+03 3.331174396702663021e-04
1.558679339669834917e+03 3.388713086569886688e-04
1.559579789894947453e+03 3.477503798517213893e-04
1.560480240120059989e+03 3.608607037659298752e-04
1.561380690345172525e+03 3.787241517052535446e-04
1.562281140570285061e+03 4.019973639110088781e-04
1.563181590795397597e+03 4.312269498548329115e-04
1.564082041020510133e+03 4.651173155071643660e-04
1.564982491245622668e+03 4.981596784704762785e-04
1.565882941470735204e+03 5.222396466079425080e-04
1.566783391695847740e+03 5.318486202281052242e-04
1.567683841920960504e+03 5.249596764001721733e-04
1.568584292146073039e+03 5.007441802562582860e-04
1.569484742371185575e+03 4.607235981488282789e-04
1.570385192596298111e+03 4.111201319103914716e-04
1.571285642821410647e+03 3.604461552717283610e-04
1.572186093046523183e+03 3.138637138936177778e-04
1.573086543271635719e+03 2.723833544437198823e-04
1.573986993496748255e+03 2.358189160595189284e-04
1.574887443721860791e+03 2.038766689357666398e-04
1.575787893946973327e+03 1.765467585069655160e-04
1.576688344172085863e+03 1.539796652818269129e-04
1.577588794397198626e+03 1.359778442881919469e-04
1.578489244622311162e+03 1.219270859971667039e-04
1.579389694847423698e+03 1.109961516850966316e-04
1.580290145072536234e+03 1.023912137076932004e-04
1.581190595297648770e+03 9.548966108064433473e-05
1.582091045522761306e+03 8.984373605176627648e-05
1.582991495747873842e+03 8.513899574778011222e-05
1.583891945972986377e+03 8.115354176066894650e-05
1.584792396198098913e+03 7.772827739079152807e-05
1.585692846423211449e+03 7.474693728604527812e-05
1.586593296648323985e+03 7.212292103592793011e-05
1.587493746873436749e+03 6.979056134218261046e-05
1.588394197098549284e+03 6.769924504946466448e-05
1.589294647323661820e+03 6.580938234778546474e-05
1.590195097548774356e+03 6.408959121259448109e-05
1.591095547773886892e+03 6.251469513128904225e-05
1.591995997998999428e+03 6.106427508177683899e-05
1.592896448224111964e+03 5.972160594884775214e-05
1.593796898449224500e+03 5.847286407424693254e-05
1.594697348674337036e+03 5.730652902780803434e-05
1.595597798899449572e+03 5.621292652624782405e-05
1.596498249124562108e+03 5.518387530697912974e-05
1.597398699349674871e+03 5.421241151482959297e-05
1.598299149574787407e+03 5.329257154872115625e-05
1.599199599799899943e+03 5.241921946724650090e-05
1.600100050025012479e+03 5.158790869251894163e-05
1.601000500250125015e+03 5.079477035643930591e-05
1.601900950475237551e+03 5.003642251921075376e-05
1.602801400700350086e+03 4.930989587006575172e-05
1.603701850925462622e+03 4.861257254067444505e-05
1.604602301150575158e+03 4.794213542356337760e-05
1.605502751375687694e+03 4.729652596180536133e-05
1.606403201600800230e+03 4.667390881225513209e-05
1.607303651825912766e+03 4.607264211851156945e-05
1.608204102051025529e+03 4.549125238741724198e-05
1.609104552276138065e+03 4.492841316309889490e-05
1.610005002501250601e+03 4.438292684917063074e-05
1.610905452726363137e+03 4.385370915302449238e-05
1.611805902951475673e+03 4.333977572379126578e-05
1.612706353176588209e+03 4.284023063334865133e-05
1.613606803401700745e+03 4.235425641208122560e-05
1.614507253626813281e+03 4.188110540124439439e-05
1.615407703851925817e+03 4.142009222440035755e-05
1.616308154077038353e+03 4.097058721337100938e-05
1.617208604302150889e+03 4.053201065112311521e-05
1.618109054527263652e+03 4.010382771608593045e-05
1.619009504752376188e+03 3.968554403060922805e-05
1.619909954977488724e+03 3.927670173132665995e-05
1.620810405202601260e+03 3.887687599166115182e-05
1.621710855427713796e+03 3.848567193713786985e-05
1.622611305652826331e+03 3.810272190284798787e-05
1.623511755877938867e+03 3.772768298971031979e-05
1.624412206103051403e+03 3.736023488232003645e-05
1.625312656328163939e+03 3.700007789634339255e-05
1.626213106553276475e+03 3.664693122781990719e-05
1.627113556778389011e+03 3.630053138044403573e-05
1.628014007003501774e+03 3.596063075008522000e-05
1.628914457228614310e+03 3.562699634849802348e-05
1.629814907453726846e+03 3.529940865050628534e-05
1.630715357678839382e+03 3.497766055093038773e-05
1.631615807903951918e+03 3.466155641923247230e-05
1.632516258129064454e+03 3.435091124134477932e-05
1.633416708354176990e+03 3.404554983940968318e-05
1.634317158579289526e+03 3.374530616127171216e-05
1.635217608804402062e+03 3.345002263252272760e-05
1.636118059029514598e+03 3.315954956473404438e-05
1.637018509254627133e+03 3.287374461423898302e-05
1.637918959479739897e+03 3.259247228646314801e-05
1.638819409704852433e+03 3.231560348136309894e-05
1.639719859929964969e+03 3.204301507601112296e-05
1.640620310155077505e+03 3.177458954080440983e-05
1.641520760380190040e+03 3.151021458614667778e-05
1.642421210605302576e+03 3.124978283678570966e-05
1.643321660830415112e+03 3.099319153128348147e-05
1.644222111055527648e+03 3.074034224435719017e-05
1.645122561280640184e+03 3.049114063005465942e-05
1.646023011505752720e+03 3.024549618394148788e-05
1.646923461730865256e+03 3.000332202264572879e-05
1.647823911955978019e+03 2.976453467927823372e-05
1.648724362181090555e+03 2.952905391338845429e-05
1.649624812406203091e+03 2.929680253423801086e-05
1.650525262631315627e+03 2.906770623629642143e-05
1.651425712856428163e+03 2.884169344596416423e-05
1.652326163081540699e+03 2.861869517861626749e-05
1.653226613306653235e+03 2.839864490514791825e-05
1.654127063531765771e+03 2.818147842727530865e-05
1.655027513756878307e+03 2.796713376091050190e-05
1.655927963981990843e+03 2.775555102699029997e-05
1.656828414207103378e+03 2.754667234919530759e-05
1.657728864432216142e+03 2.734044175804061191e-05
1.658629314657328678e+03 2.713680510086586696e-05
1.659529764882441214e+03 2.693570995729305042e-05
1.660430215107553749e+03 2.673710555975446467e-05
1.661330665332666285e+03 2.654094271872795412e-05
1.662231115557778821e+03 2.634717375234720685e-05
1.663131565782891357e+03 2.615575242007716399e-05
1.664032016008003893e+03 2.596663386017554771e-05
1.664932466233116429e+03 2.577977453067910337e-05
1.665832916458228965e+03 2.559513215367893504e-05
1.666733366683341501e+03 2.541266566265750591e-05
1.667633816908454037e+03 2.523233515269128333e-05
1.668534267133566800e+03 2.505410183332770747e-05
1.669434717358679336e+03 2.487792798396089349e-05
1.670335167583791872e+03 2.470377691154978654e-05
1.671235617808904408e+03 2.453161291052595783e-05
1.672136068034016944e+03 2.436140122475483893e-05
1.673036518259129480e+03 2.419310801142413907e-05
1.673936968484242016e+03 2.402670030673662550e-05
1.674837418709354552e+03 2.386214599330152347e-05
1.675737868934467087e+03 2.369941376911876833e-05
1.676638319159579623e+03 2.353847311806321420e-05
1.677538769384692159e+03 2.337929428177905415e-05
1.678439219609804923e+03 2.322184823290157488e-05
1.679339669834917459e+03 2.306610664953045691e-05
1.680240120060029994e+03 2.291204189088151427e-05
1.681140570285142530e+03 2.275962697405131704e-05
1.682041020510255066e+03 2.260883555183105045e-05
1.682941470735367602e+03 2.245964189151147374e-05
1.683841920960480138e+03 2.231202085462606963e-05
1.684742371185592674e+03 2.216594787757707313e-05
1.685642821410705210e+03 2.202139895310120825e-05
1.686543271635817746e+03 2.187835061252863710e-05
1.687443721860930282e+03 2.173677990879045575e-05
1.688344172086043045e+03 2.159666440013999493e-05
1.689244622311155581e+03 2.145798213454817261e-05
1.690145072536268117e+03 2.132071163473754665e-05
1.691045522761380653e+03 2.118483188382497425e-05
1.691945972986493189e+03 2.105032231154051460e-05
1.692846423211605725e+03 2.091716278099247815e-05
1.693746873436718261e+03 2.078533357595663668e-05
1.694647323661830796e+03 2.065481538865595029e-05
1.695547773886943332e+03 2.052558930801582195e-05
1.696448224112055868e+03 2.039763680836436971e-05
1.697348674337168404e+03 2.027093973856078252e-05
1.698249124562281168e+03 2.014548031153110905e-05
1.699149574787393703e+03 2.002124109419111693e-05
1.700050025012506239e+03 1.989820499773863787e-05
1.700950475237618775e+03 1.977635526829910515e-05
1.701850925462731311e+03 1.965567547790819338e-05
1.702751375687843847e+03 1.953614951581438932e-05
1.703651825912956383e+03 1.941776158009112953e-05
1.704552276138068919e+03 1.930049616953953128e-05
1.705452726363181455e+03 1.918433807587415114e-05
1.706353176588293991e+03 1.906927237617589768e-05
1.707253626813406527e+03 1.895528442560179505e-05
1.708154077038519290e+03 1.884235985034069110e-05
1.709054527263631826e+03 1.873048454080524362e-05
1.709954977488744362e+03 1.861964464504708958e-05
1.710855427713856898e+03 1.850982656239121975e-05
1.711755877938969434e+03 1.840101693727411554e-05
1.712656328164081970e+03 1.829320265328354071e-05
1.713556778389194506e+03 1.818637082738733314e-05
1.714457228614307041e+03 1.808050880434521347e-05
1.715357678839419577e+03 1.797560415129685098e-05
1.716258129064532113e+03 1.787164465251811978e-05
1.717158579289644649e+03 1.776861830433891474e-05
1.718059029514757185e+03 1.766651331021867465e-05
1.718959479739869948e+03 1.756531807596853031e-05
1.719859929964982484e+03 1.746502120512078882e-05
1.720760380190095020e+03 1.736561149443376705e-05
1.721660830415207556e+03 1.726707792953286854e-05
1.722561280640320092e+03 1.716940968067767195e-05
1.723461730865432628e+03 1.707259609865419727e-05
1.724362181090545164e+03 1.697662671078430330e-05
1.725262631315657700e+03 1.688149121705234820e-05
1.726163081540770236e+03 1.678717948634006371e-05
1.727063531765882772e+03 1.669368155276930405e-05
1.727963981990995308e+03 1.660098761214691990e-05
1.728864432216108071e+03 1.650908801850896557e-05
1.729764882441220607e+03 1.641797328076047871e-05
1.730665332666333143e+03 1.632763405940819635e-05
1.731565782891445679e+03 1.623806116338121676e-05
1.732466233116558215e+03 1.614924554693886164e-05
1.733366683341670750e+03 1.606117830666061914e-05
1.734267133566783286e+03 1.597385067851729709e-05
1.735167583791895822e+03 1.588725403501990330e-05
1.736068034017008358e+03 1.580137988244288187e-05
1.736968484242120894e+03 1.571621985811955046e-05
1.737868934467233430e+03 1.563176572780966764e-05
1.738769384692346193e+03 1.554800938313279771e-05
1.739669834917458729e+03 1.546494283906856733e-05
1.740570285142571265e+03 1.538255823152022276e-05
1.741470735367683801e+03 1.530084781493917670e-05
1.742371185592796337e+03 1.521980396001084490e-05
1.743271635817908873e+03 1.513941915139620894e-05
1.744172086043021409e+03 1.505968598553076723e-05
1.745072536268133945e+03 1.498059716847682034e-05
1.745972986493246481e+03 1.490214551382920062e-05
1.746873436718359017e+03 1.482432394067098701e-05
1.747773886943471553e+03 1.474712547157954881e-05
1.748674337168584316e+03 1.467054323067943211e-05
1.749574787393696852e+03 1.459457044174273759e-05
1.750475237618809388e+03 1.451920042633400320e-05
1.751375687843921924e+03 1.444442660199898343e-05
1.752276138069034459e+03 1.437024248049600726e-05
1.753176588294146995e+03 1.429664166606843920e-05
1.754077038519259531e+03 1.422361785375714743e-05
1.754977488744372067e+03 1.415116482775171180e-05
1.755877938969484603e+03 1.407927645978018709e-05
1.756778389194597139e+03 1.400794670753420111e-05
1.757678839419709675e+03 1.393716961313116807e-05
1.758579289644822438e+03 1.386693930160992418e-05
1.759479739869934974e+03 1.379724997946112044e-05
1.760380190095047510e+03 1.372809593318938415e-05
1.761280640320160046e+03 1.365947152790781009e-05
1.762181090545272582e+03 1.359137120596380539e-05
1.763081540770385118e+03 1.352378948559416385e-05
1.763981990995497654e+03 1.345672095961026072e-05
1.764882441220610190e+03 1.339016029411148425e-05
1.765782891445722726e+03 1.332410222722616348e-05
1.766683341670835262e+03 1.325854156787963683e-05
1.767583791895947797e+03 1.319347319458952893e-05
1.768484242121060333e+03 1.312889205428471569e-05
1.769384692346173097e+03 1.306479316115138418e-05
1.770285142571285633e+03 1.300117159550195735e-05
1.771185592796398169e+03 1.293802250266786784e-05
1.772086043021510704e+03 1.287534109191593005e-05
1.772986493246623240e+03 1.281312263538705873e-05
1.773886943471735776e+03 1.275136246705616497e-05
1.774787393696848312e+03 1.269005598171420732e-05
1.775687843921960848e+03 1.262919863397099003e-05
1.776588294147073384e+03 1.256878593727764635e-05
1.777488744372185920e+03 1.250881346296946257e-05
1.778389194597298456e+03 1.244927683932760600e-05
1.779289644822411219e+03 1.239017175066018064e-05
1.780190095047523755e+03 1.233149393640104854e-05
1.781090545272636291e+03 1.227323919022685717e-05
1.781990995497748827e+03 1.221540335919147347e-05
1.782891445722861363e+03 1.215798234287757357e-05
1.783791895947973899e+03 1.210097209256473957e-05
1.784692346173086435e+03 1.204436861041359231e-05
1.785592796398198971e+03 1.198816794866663614e-05
1.786493246623311506e+03 1.193236620886311018e-05
1.787393696848424042e+03 1.187695954107053460e-05
1.788294147073536578e+03 1.182194414312958756e-05
1.789194597298649342e+03 1.176731625991494019e-05
1.790095047523761878e+03 1.171307218260877849e-05
1.790995497748874413e+03 1.165920824798822154e-05
1.791895947973986949e+03 1.160572083772766631e-05
1.792796398199099485e+03 1.155260637771216401e-05
1.793696848424212021e+03 1.149986133736516569e-05
1.794597298649324557e+03 1.144748222898795170e-05
1.795497748874437093e+03 1.139546560711221224e-05
1.796398199099549629e+03 1.134380806786330219e-05
1.797298649324662165e+03 1.129250624833625397e-05
1.798199099549774701e+03 1.124155682598344554e-05
1.799099549774887464e+03 1.119095651801188399e-05
1.800000000000000000e+03 1.114070208079361634e-05
