0.000000000000000000e+00 1.309410455380491996e-03
9.004502251125562351e-01 1.748641425364575374e-03
1.800900450225112470e+00 2.347179970651528790e-03
2.701350675337668594e+00 3.066154476563148074e-03
3.601800900450224940e+00 3.691064798107154560e-03
4.502251125562780842e+00 3.880074626221448678e-03
5.402701350675337189e+00 3.512399678657464244e-03
6.303151575787893535e+00 2.830065937503919212e-03
7.203601800900449881e+00 2.144728478764134066e-03
8.104052026013006227e+00 1.601988672026835592e-03
9.004502251125561685e+00 1.209469994599506396e-03
9.904952476238118919e+00 9.308633699403452656e-04
1.080540270135067438e+01 7.311822784765242096e-04
1.170585292646323161e+01 5.857634869359034865e-04
1.260630315157578707e+01 4.779621012932033872e-04
1.350675337668834430e+01 3.965054841130098381e-04
1.440720360180089976e+01 3.337739406292946059e-04
1.530765382691345522e+01 2.845937025714291254e-04
1.620810405202601245e+01 2.454122096998368960e-04
1.710855427713856969e+01 2.137538455640932290e-04
1.800900450225112337e+01 1.878610561164329752e-04
1.890945472736368060e+01 1.664633917806067039e-04
1.980990495247623784e+01 1.486150317126130849e-04
2.071035517758879507e+01 1.335596910987253119e-04
2.161080540270134875e+01 1.206422900213684538e-04
2.251125562781390599e+01 1.093649552721776095e-04
2.341170585292646322e+01 9.947277639359366098e-05
2.431215607803901690e+01 9.082592759288985373e-05
2.521260630315157414e+01 8.327155517140115654e-05
2.611305652826413137e+01 7.664773142760375945e-05
2.701350675337668861e+01 7.081032831301313664e-05
2.791395697848924229e+01 6.564062359718547440e-05
2.881440720360179952e+01 6.104299341610175628e-05
2.971485742871435676e+01 5.694072005072921982e-05
3.061530765382691044e+01 5.327153385307330528e-05
3.151575787893946767e+01 4.998068279100459583e-05
3.241620810405202491e+01 4.700830926439421921e-05
3.331665832916458214e+01 4.428292709955717926e-05
3.421710855427713938e+01 4.175287412390468446e-05
3.511755877938969661e+01 3.941483867422532206e-05
3.601800900450224674e+01 3.727565136109093708e-05
3.691845922961480397e+01 3.532137815506927964e-05
3.781890945472736121e+01 3.353098265899375266e-05
3.871935967983991844e+01 3.189467958143787972e-05
3.961980990495247568e+01 3.040943326292996121e-05
4.052026013006503291e+01 2.906747316385824777e-05
4.142071035517759015e+01 2.784446941544769469e-05
4.232116058029014027e+01 2.668545704867055678e-05
4.322161080540269751e+01 2.553182809575099129e-05
4.412206103051525474e+01 2.438853410945333489e-05
4.502251125562781198e+01 2.330368270912722776e-05
4.592296148074036921e+01 2.230381840225962011e-05
4.682341170585292645e+01 2.138918094671379068e-05
4.772386193096548368e+01 2.055143282845784200e-05
4.862431215607803381e+01 1.978263627147272240e-05
4.952476238119059104e+01 1.907756388267689722e-05
5.042521260630314828e+01 1.843411136615000887e-05
5.132566283141570551e+01 1.785360164288172092e-05
5.222611305652826275e+01 1.734119405522862459e-05
5.312656328164081998e+01 1.690519063663653749e-05
5.402701350675337721e+01 1.655049698895878185e-05
5.492746373186592734e+01 1.625573700804257659e-05
5.582791395697848458e+01 1.593901915339433588e-05
5.672836418209104181e+01 1.549451948466939701e-05
5.762881440720359905e+01 1.492478958312409947e-05
5.852926463231615628e+01 1.433348262428643492e-05
5.942971485742871351e+01 1.380005208140328884e-05
6.033016508254127075e+01 1.334901585370511535e-05
6.123061530765382088e+01 1.297897628532842178e-05
6.213106553276637811e+01 1.267985937224891327e-05
6.303151575787893535e+01 1.242958170082271598e-05
6.393196598299149258e+01 1.219365527982824228e-05
6.483241620810404982e+01 1.194889850034990351e-05
6.573286643321659994e+01 1.167827812559353019e-05
6.663331665832916428e+01 1.135316849339350773e-05
6.753376688344171441e+01 1.098544765744148656e-05
6.843421710855427875e+01 1.062950438914954131e-05
6.933466733366682888e+01 1.032243997090076320e-05
7.023511755877939322e+01 1.007391392584275355e-05
7.113556778389194335e+01 9.883170059614126420e-06
7.203601800900449348e+01 9.744223968475078268e-06
7.293646823411705782e+01 9.637246832859616764e-06
7.383691845922960795e+01 9.528925755324433824e-06
7.473736868434217229e+01 9.404757459541358334e-06
7.563781890945472242e+01 9.265112578377520170e-06
7.653826913456728676e+01 9.077164269661046510e-06
7.743871935967983688e+01 8.818997801914863068e-06
7.833916958479238701e+01 8.536168533827572151e-06
7.923961980990495135e+01 8.283281206088322424e-06
8.014007003501750148e+01 8.081138563293476410e-06
8.104052026013006582e+01 7.931518541708257208e-06
8.194097048524261595e+01 7.833764691842399035e-06
8.284142071035518029e+01 7.788510456331157561e-06
8.374187093546773042e+01 7.791679399267934094e-06
8.464232116058028055e+01 7.826260089355649118e-06
8.554277138569284489e+01 7.868204505744964673e-06
8.644322161080539502e+01 7.883986871354831997e-06
8.734367183591795936e+01 7.814898581326134962e-06
8.824412206103050949e+01 7.646161968808239530e-06
8.914457228614307382e+01 7.455313648924983660e-06
9.004502251125562395e+01 7.322904395084553127e-06
9.094547273636817408e+01 7.263483860383870568e-06
9.184592296148073842e+01 7.221537588163239975e-06
9.274637318659328855e+01 7.116777434068288088e-06
9.364682341170585289e+01 6.945413479070793221e-06
9.454727363681840302e+01 6.781471308626964360e-06
9.544772386193096736e+01 6.675198822789431550e-06
9.634817408704351749e+01 6.611314143693288711e-06
9.724862431215606762e+01 6.532230535636027111e-06
9.814907453726863196e+01 6.398928468033194567e-06
9.904952476238118209e+01 6.218431925444030889e-06
9.994997498749374643e+01 6.024643012290364219e-06
1.008504252126062966e+02 5.856441382503688070e-06
1.017508754377188609e+02 5.734593919123496321e-06
1.026513256628314110e+02 5.663150711962131890e-06
1.035517758879439612e+02 5.639785338188057992e-06
1.044522261130565255e+02 5.654925176722909280e-06
1.053526763381690756e+02 5.683141090100333207e-06
1.062531265632816400e+02 5.697265355838855976e-06
1.071535767883941901e+02 5.711007761147323304e-06
1.080540270135067544e+02 5.769512802420983049e-06
1.089544772386193046e+02 5.897078993412094415e-06
1.098549274637318547e+02 6.074567039080418801e-06
1.107553776888444190e+02 6.245451068461800371e-06
1.116558279139569692e+02 6.331350121171211479e-06
1.125562781390695335e+02 6.278225314148132099e-06
1.134567283641820836e+02 6.126916734576392876e-06
1.143571785892946480e+02 5.970158663520775026e-06
1.152576288144071981e+02 5.880770970473467729e-06
1.161580790395197482e+02 5.884340051962974236e-06
1.170585292646323126e+02 5.925403190155671081e-06
1.179589794897448627e+02 5.883435847474110158e-06
1.188594297148574270e+02 5.689892353979046463e-06
1.197598799399699772e+02 5.403752751076843740e-06
1.206603301650825415e+02 5.128853834153919613e-06
1.215607803901950916e+02 4.922242104028970557e-06
1.224612306153076418e+02 4.794277908458433609e-06
1.233616808404202061e+02 4.739737600213372403e-06
1.242621310655327562e+02 4.751757930746487214e-06
1.251625812906453206e+02 4.816359901795080474e-06
1.260630315157578707e+02 4.900722307584889872e-06
1.269634817408704350e+02 4.968904870470641220e-06
1.278639319659829852e+02 5.016180600777250424e-06
1.287643821910955353e+02 5.054425085538973512e-06
1.296648324162080996e+02 5.094641963800010937e-06
1.305652826413206640e+02 5.130761634346469110e-06
1.314657328664331999e+02 5.105958527507197313e-06
1.323661830915457642e+02 4.969319976032068294e-06
1.332666333166583286e+02 4.757239671220789698e-06
1.341670835417708929e+02 4.555926358084248415e-06
1.350675337668834288e+02 4.419316181244410847e-06
1.359679839919959932e+02 4.357685805742307358e-06
1.368684342171085575e+02 4.356066788805208906e-06
1.377688844422210934e+02 4.378086809203391631e-06
1.386693346673336578e+02 4.383124843745566899e-06
1.395697848924462221e+02 4.373273916845230410e-06
1.404702351175587864e+02 4.388456057160210929e-06
1.413706853426713224e+02 4.444586933510875755e-06
1.422711355677838867e+02 4.512112688429460777e-06
1.431715857928964510e+02 4.556582348788597464e-06
1.440720360180089870e+02 4.586307644460778110e-06
1.449724862431215513e+02 4.632264987593559014e-06
1.458729364682341156e+02 4.691436129982436002e-06
1.467733866933466800e+02 4.729433675103345916e-06
1.476738369184592159e+02 4.722342025191851228e-06
1.485742871435717802e+02 4.674348125168801231e-06
1.494747373686843446e+02 4.615917662618131656e-06
1.503751875937968805e+02 4.562000006973896383e-06
1.512756378189094448e+02 4.486027889176841595e-06
1.521760880440220092e+02 4.346736325339811600e-06
1.530765382691345735e+02 4.148018761143600574e-06
1.539769884942471094e+02 3.949078804633538926e-06
1.548774387193596738e+02 3.796595730958486143e-06
1.557778889444722381e+02 3.701051035772471562e-06
1.566783391695847740e+02 3.655024170660075790e-06
1.575787893946973384e+02 3.643542412319754132e-06
1.584792396198099027e+02 3.648378287848941937e-06
1.593796898449224670e+02 3.663799810659730163e-06
1.602801400700350030e+02 3.706083496444626050e-06
1.611805902951475673e+02 3.796294516695175172e-06
1.620810405202601316e+02 3.941435489292241993e-06
1.629814907453726676e+02 4.121485492611946306e-06
1.638819409704852319e+02 4.291403613153035544e-06
1.647823911955977962e+02 4.425442520059786223e-06
1.656828414207103606e+02 4.545151102733288267e-06
1.665832916458228965e+02 4.667405070497185847e-06
1.674837418709354608e+02 4.759292117263183724e-06
1.683841920960480252e+02 4.792183013098463073e-06
1.692846423211605611e+02 4.795332975499405052e-06
1.701850925462731254e+02 4.803681684803619444e-06
1.710855427713856898e+02 4.803059024496262446e-06
1.719859929964982541e+02 4.730140029650607783e-06
1.728864432216107900e+02 4.547562947233471756e-06
1.737868934467233544e+02 4.306704913034726788e-06
1.746873436718359187e+02 4.095881376518733381e-06
1.755877938969484546e+02 3.969911131956945349e-06
1.764882441220610190e+02 3.939662769164513803e-06
1.773886943471735833e+02 3.989924673515537015e-06
1.782891445722861476e+02 4.094694726347749884e-06
1.791895947973986836e+02 4.233159479799116768e-06
1.800900450225112479e+02 4.390677476663093160e-06
1.809904952476238122e+02 4.536522415272164596e-06
1.818909454727363482e+02 4.613434321572668007e-06
1.827913956978489125e+02 4.583585580024383787e-06
1.836918459229614768e+02 4.480187516389046395e-06
1.845922961480740412e+02 4.372023137858199588e-06
1.854927463731865771e+02 4.284300639744689441e-06
1.863931965982991414e+02 4.185778264457695676e-06
1.872936468234117058e+02 4.053881180884794708e-06
1.881940970485242417e+02 3.915529489383405826e-06
1.890945472736368060e+02 3.815975060665128521e-06
1.899949974987493704e+02 3.772415507776563308e-06
1.908954477238619347e+02 3.762075799717446154e-06
1.917958979489744706e+02 3.756066425511557070e-06
1.926963481740870350e+02 3.761601845314033584e-06
1.935967983991995993e+02 3.807453077218199402e-06
1.944972486243121352e+02 3.898694568615509441e-06
1.953976988494246996e+02 4.018673656775060875e-06
1.962981490745372639e+02 4.154165972050725191e-06
1.971985992996498283e+02 4.279384417875243979e-06
1.980990495247623642e+02 4.352636705022975877e-06
1.989994997498749285e+02 4.359644176855576858e-06
1.998999499749874929e+02 4.327740196202402542e-06
2.008004002001000288e+02 4.284711064197280894e-06
2.017008504252125931e+02 4.235613520956654752e-06
2.026013006503251574e+02 4.168809913849035830e-06
2.035017508754377218e+02 4.071375355774293315e-06
2.044022011005502577e+02 3.955860786346024341e-06
2.053026513256628220e+02 3.850787651932797398e-06
2.062031015507753864e+02 3.771607396055033596e-06
2.071035517758879223e+02 3.722349952426281891e-06
2.080040020010004866e+02 3.704511729055063013e-06
2.089044522261130510e+02 3.723082239978335792e-06
2.098049024512256153e+02 3.767527232819924960e-06
2.107053526763381512e+02 3.794511406856513708e-06
2.116058029014507156e+02 3.772665828570572007e-06
2.125062531265632799e+02 3.716282877485318892e-06
2.134067033516758158e+02 3.661484864065030693e-06
2.143071535767883802e+02 3.646890914770243529e-06
2.152076038019009445e+02 3.692752004470265909e-06
2.161080540270135089e+02 3.784876067111053293e-06
2.170085042521260448e+02 3.888512033259626656e-06
2.179089544772386091e+02 3.964256068573358912e-06
2.188094047023511735e+02 3.982344391385454794e-06
2.197098549274637094e+02 3.950976386547354013e-06
2.206103051525762737e+02 3.906065452560730943e-06
2.215107553776888381e+02 3.874837440419694679e-06
2.224112056028014024e+02 3.869114233659325580e-06
2.233116558279139383e+02 3.889802809440254621e-06
2.242121060530265027e+02 3.927618617910565897e-06
2.251125562781390670e+02 3.971324018493326473e-06
2.260130065032516029e+02 4.016230499151419390e-06
2.269134567283641672e+02 4.050960044930814835e-06
2.278139069534767316e+02 4.064962616148175667e-06
2.287143571785892959e+02 4.082736628043779096e-06
2.296148074037018318e+02 4.130278159837510757e-06
2.305152576288143962e+02 4.191841008265263545e-06
2.314157078539269605e+02 4.250914353450902009e-06
2.323161580790394964e+02 4.329085783594397295e-06
2.332166083041520608e+02 4.446914395907601264e-06
2.341170585292646251e+02 4.597773867686380034e-06
2.350175087543771895e+02 4.756907710938346859e-06
2.359179589794897254e+02 4.885085595842538147e-06
2.368184092046022897e+02 4.952481646462885013e-06
2.377188594297148541e+02 4.958305722106865733e-06
2.386193096548273900e+02 4.911337932124911790e-06
2.395197598799399543e+02 4.823405140871844094e-06
2.404202101050525187e+02 4.722568828770324273e-06
2.413206603301650830e+02 4.654129264402960152e-06
2.422211105552776189e+02 4.657095933289967564e-06
2.431215607803901833e+02 4.727452383223484361e-06
2.440220110055027476e+02 4.811892764112768935e-06
2.449224612306152835e+02 4.848704396079709307e-06
2.458229114557278479e+02 4.809087374673612674e-06
2.467233616808404122e+02 4.699638588471561533e-06
2.476238119059529765e+02 4.573557338423590766e-06
2.485242621310655124e+02 4.498396087949437418e-06
2.494247123561780768e+02 4.490201970284877468e-06
2.503251625812906411e+02 4.527490643739771790e-06
2.512256128064031770e+02 4.600992706012689490e-06
2.521260630315157414e+02 4.713788724022845163e-06
2.530265132566283057e+02 4.855347753131872679e-06
2.539269634817408701e+02 4.997779289190661582e-06
2.548274137068534060e+02 5.106583590563244223e-06
2.557278639319659703e+02 5.151830121938545386e-06
2.566283141570785347e+02 5.127077468149440762e-06
2.575287643821910706e+02 5.034654355146219026e-06
2.584292146073036633e+02 4.886259572475050391e-06
2.593296648324161993e+02 4.739914782149937298e-06
2.602301150575287352e+02 4.668418148377451681e-06
2.611305652826413279e+02 4.690428935894234336e-06
2.620310155077538639e+02 4.754559428154990905e-06
2.629314657328663998e+02 4.797165196336724348e-06
2.638319159579789925e+02 4.817328560802450079e-06
2.647323661830915285e+02 4.865396572701838679e-06
2.656328164082040644e+02 4.970364630958132018e-06
2.665332666333166571e+02 5.116448810488246384e-06
2.674337168584291931e+02 5.265266090595834986e-06
2.683341670835417858e+02 5.377187262038082294e-06
2.692346173086543217e+02 5.422897405211601539e-06
2.701350675337668577e+02 5.407632085110765582e-06
2.710355177588794504e+02 5.362022543322129813e-06
2.719359679839919863e+02 5.315948701130991692e-06
2.728364182091045222e+02 5.290169825100503738e-06
2.737368684342171150e+02 5.285078453744165978e-06
2.746373186593296509e+02 5.299892962213785561e-06
2.755377688844421868e+02 5.319483790090489716e-06
2.764382191095547796e+02 5.308697136304402760e-06
2.773386693346673155e+02 5.251122465093145747e-06
2.782391195597798514e+02 5.173784550619696489e-06
2.791395697848924442e+02 5.126481472156876097e-06
2.800400200100049801e+02 5.138435443234263624e-06
2.809404702351175729e+02 5.196586559687188075e-06
2.818409204602301088e+02 5.265926163960734404e-06
2.827413706853426447e+02 5.331043293480441850e-06
2.836418209104552375e+02 5.404693654509861489e-06
2.845422711355677734e+02 5.500688017682742183e-06
2.854427213606803093e+02 5.610461119275706680e-06
2.863431715857929021e+02 5.715605716163388364e-06
2.872436218109054380e+02 5.811978110499288660e-06
2.881440720360179739e+02 5.898920924373922331e-06
2.890445222611305667e+02 5.961224333347450222e-06
2.899449724862431026e+02 5.979300799575803375e-06
2.908454227113556385e+02 5.938494418269182682e-06
2.917458729364682313e+02 5.827170717911300997e-06
2.926463231615807672e+02 5.653865228635723483e-06
2.935467733866933600e+02 5.455668337894443861e-06
2.944472236118058959e+02 5.270554375403445364e-06
2.953476738369184318e+02 5.125924262006092330e-06
2.962481240620310246e+02 5.041035062690446223e-06
2.971485742871435605e+02 5.023772420833632446e-06
2.980490245122560964e+02 5.074791746708722224e-06
2.989494747373686891e+02 5.174993899748318458e-06
2.998499249624812251e+02 5.283805901295012514e-06
3.007503751875937610e+02 5.374182969711206650e-06
3.016508254127063537e+02 5.455149143271362830e-06
3.025512756378188897e+02 5.570655211591282499e-06
3.034517258629314256e+02 5.739761269537124435e-06
3.043521760880440183e+02 5.914074406917661478e-06
3.052526263131565543e+02 6.022885620166316933e-06
3.061530765382691470e+02 6.033332099419420201e-06
3.070535267633816829e+02 5.960633744875322744e-06
3.079539769884942189e+02 5.839339736931733149e-06
3.088544272136068116e+02 5.699372497664593577e-06
3.097548774387193475e+02 5.564169085368572415e-06
3.106553276638318835e+02 5.447749906813172737e-06
3.115557778889444762e+02 5.347412951893157182e-06
3.124562281140570121e+02 5.246433259569612629e-06
3.133566783391695481e+02 5.140978082293808941e-06
3.142571285642821408e+02 5.057755457769751122e-06
3.151575787893946767e+02 5.034621059814760453e-06
3.160580290145072127e+02 5.086808968925097696e-06
3.169584792396198054e+02 5.193532930703091701e-06
3.178589294647323413e+02 5.313307106589809966e-06
3.187593796898449341e+02 5.426161627977221551e-06
3.196598299149574700e+02 5.544539523185958811e-06
3.205602801400700059e+02 5.680683289573804189e-06
3.214607303651825987e+02 5.823474513078271349e-06
3.223611805902951346e+02 5.946402840970011618e-06
3.232616308154076705e+02 6.030306949533483586e-06
3.241620810405202633e+02 6.063416388264674914e-06
3.250625312656327992e+02 6.030087594505475144e-06
3.259629814907453351e+02 5.926061697743887385e-06
3.268634317158579279e+02 5.781075938908908040e-06
3.277638819409704638e+02 5.633073332811143042e-06
3.286643321660829997e+02 5.501356322975865092e-06
3.295647823911955925e+02 5.382706483716692420e-06
3.304652326163081284e+02 5.272456567579950349e-06
3.313656828414207212e+02 5.193547586452639954e-06
3.322661330665332571e+02 5.178019420287104307e-06
3.331665832916457930e+02 5.222047325451641967e-06
3.340670335167583858e+02 5.283783993975063653e-06
3.349674837418709217e+02 5.333346063735647428e-06
3.358679339669834576e+02 5.378389793824441484e-06
3.367683841920960504e+02 5.434997171661368895e-06
3.376688344172085863e+02 5.505373623243874739e-06
3.385692846423211222e+02 5.580721599470596143e-06
3.394697348674337150e+02 5.640393233996809276e-06
3.403701850925462509e+02 5.649037814025985055e-06
3.412706353176587868e+02 5.575591915285621235e-06
3.421710855427713796e+02 5.423318242940883479e-06
3.430715357678839155e+02 5.238012840358823130e-06
3.439719859929965082e+02 5.084892277071177927e-06
3.448724362181090441e+02 5.003897037325246900e-06
3.457728864432215801e+02 4.973584291825822388e-06
3.466733366683341728e+02 4.945054860252299391e-06
3.475737868934467087e+02 4.914658978611337336e-06
3.484742371185592447e+02 4.928288617580917641e-06
3.493746873436718374e+02 5.023861298303623498e-06
3.502751375687843733e+02 5.205753635792553312e-06
3.511755877938969093e+02 5.448443447234900824e-06
3.520760380190095020e+02 5.711039215511275535e-06
3.529764882441220379e+02 5.970455113275870970e-06
3.538769384692345739e+02 6.223813333598895920e-06
3.547773886943471666e+02 6.438971202058429211e-06
3.556778389194597025e+02 6.545787897517235276e-06
3.565782891445722953e+02 6.494228003906268133e-06
3.574787393696848312e+02 6.291582359639736134e-06
3.583791895947973671e+02 6.002938794983665778e-06
3.592796398199099599e+02 5.719526207861554403e-06
3.601800900450224958e+02 5.495856461409978882e-06
3.610805402701350317e+02 5.341996762121987737e-06
3.619809904952476245e+02 5.238504317180494462e-06
3.628814407203601604e+02 5.163962626242061452e-06
3.637818909454726963e+02 5.123534521727875233e-06
3.646823411705852891e+02 5.129079915561570810e-06
3.655827913956978250e+02 5.182469167902226885e-06
3.664832416208103609e+02 5.289899215301836980e-06
3.673836918459229537e+02 5.463341194199222990e-06
3.682841420710354896e+02 5.690793686127680022e-06
3.691845922961480824e+02 5.925543905943934129e-06
3.700850425212606183e+02 6.113237165879669345e-06
3.709854927463731542e+02 6.214097888739269498e-06
3.718859429714857470e+02 6.214125613406181084e-06
3.727863931965982829e+02 6.127691251726959600e-06
3.736868434217108188e+02 5.988991202510326996e-06
3.745872936468234116e+02 5.833542229857381899e-06
3.754877438719359475e+02 5.699614660488122063e-06
3.763881940970484834e+02 5.621179009117970565e-06
3.772886443221610762e+02 5.593935054681707601e-06
3.781890945472736121e+02 5.574085504868045779e-06
3.790895447723861480e+02 5.534964018704945787e-06
3.799899949974987408e+02 5.502563382471298442e-06
3.808904452226112767e+02 5.523125624813662701e-06
3.817908954477238694e+02 5.618369506170441231e-06
3.826913456728364054e+02 5.777662710133032678e-06
3.835917958979489413e+02 5.973207813629681868e-06
3.844922461230615340e+02 6.171905476960594763e-06
3.853926963481740700e+02 6.327338434517695362e-06
3.862931465732866059e+02 6.393735099280755668e-06
3.871935967983991986e+02 6.356651162534405084e-06
3.880940470235117346e+02 6.237450989595832601e-06
3.889944972486242705e+02 6.073332459166770678e-06
3.898949474737368632e+02 5.907728377132912298e-06
3.907953976988493991e+02 5.775810331009788450e-06
3.916958479239619351e+02 5.683312247644177377e-06
3.925962981490745278e+02 5.617278363854035325e-06
3.934967483741870637e+02 5.570247691018743927e-06
3.943971985992996565e+02 5.545193996085820216e-06
3.952976488244121924e+02 5.557701354346165211e-06
3.961980990495247283e+02 5.634735241702175767e-06
3.970985492746373211e+02 5.793361571389854456e-06
3.979989994997498570e+02 6.021073296275125990e-06
3.988994497248623929e+02 6.289612400576117057e-06
3.997998999499749857e+02 6.570432259484657047e-06
4.007003501750875216e+02 6.819365461236039551e-06
4.016008004002000575e+02 6.994114938515011555e-06
4.025012506253126503e+02 7.095490980948980958e-06
4.034017008504251862e+02 7.157208555649152991e-06
4.043021510755377221e+02 7.197925294304137982e-06
4.052026013006503149e+02 7.196199045411968504e-06
4.061030515257628508e+02 7.119370319414060604e-06
4.070035017508754436e+02 6.967773876941777938e-06
4.079039519759879795e+02 6.773258994293288679e-06
4.088044022011005154e+02 6.581892604116815472e-06
4.097048524262131082e+02 6.448833567513082894e-06
4.106053026513256441e+02 6.417255592482896246e-06
4.115057528764381800e+02 6.506390557250972923e-06
4.124062031015507728e+02 6.709462928975165396e-06
4.133066533266633087e+02 6.987159126946232317e-06
4.142071035517758446e+02 7.279020705372402413e-06
4.151075537768884374e+02 7.533541198257412999e-06
4.160080040020009733e+02 7.725016781516780241e-06
4.169084542271135092e+02 7.847821456341530003e-06
4.178089044522261020e+02 7.886467106666670524e-06
4.187093546773386379e+02 7.809999984334706468e-06
4.196098049024512306e+02 7.597366635777477651e-06
4.205102551275637666e+02 7.279482861934854079e-06
4.214107053526763025e+02 6.945732385288344734e-06
4.223111555777888952e+02 6.689325885059843130e-06
4.232116058029014312e+02 6.566606159030321185e-06
4.241120560280139671e+02 6.591800488379663257e-06
4.250125062531265598e+02 6.741780873100397067e-06
4.259129564782390958e+02 6.977844599497248177e-06
4.268134067033516317e+02 7.272600686048979462e-06
4.277138569284642244e+02 7.608045959537124981e-06
4.286143071535767604e+02 7.965610789696727460e-06
4.295147573786892963e+02 8.329682790194986656e-06
4.304152076038018890e+02 8.679496255042143429e-06
4.313156578289144250e+02 8.976503845879619809e-06
4.322161080540270177e+02 9.150815875782663319e-06
4.331165582791395536e+02 9.139866701529887461e-06
4.340170085042520896e+02 8.928179591050018670e-06
4.349174587293646823e+02 8.568363682028799292e-06
4.358179089544772182e+02 8.171554588150129654e-06
4.367183591795897541e+02 7.835811714534785623e-06
4.376188094047023469e+02 7.597815768837352993e-06
4.385192596298148828e+02 7.459960132921473962e-06
4.394197098549274187e+02 7.434423160239868372e-06
4.403201600800400115e+02 7.537644185461828757e-06
4.412206103051525474e+02 7.772377865545157999e-06
4.421210605302650833e+02 8.116154047735410273e-06
4.430215107553776761e+02 8.523167720508028963e-06
4.439219609804902120e+02 8.937985415830041410e-06
4.448224112056028048e+02 9.298400903610960823e-06
4.457228614307153407e+02 9.558314322500877368e-06
4.466233116558278766e+02 9.695657886126035215e-06
4.475237618809404694e+02 9.694459123693484665e-06
4.484242121060530053e+02 9.547959221141391915e-06
4.493246623311655412e+02 9.268547927177398524e-06
4.502251125562781340e+02 8.909090847304565420e-06
4.511255627813906699e+02 8.538399848171508651e-06
4.520260130065032058e+02 8.224570961454093522e-06
4.529264632316157986e+02 8.035567223768843323e-06
4.538269134567283345e+02 8.011562388980532137e-06
4.547273636818408704e+02 8.150322942575121950e-06
4.556278139069534632e+02 8.407979615339804280e-06
4.565282641320659991e+02 8.696906202742058414e-06
4.574287143571785919e+02 8.937427758930098371e-06
4.583291645822911278e+02 9.106240497571797211e-06
4.592296148074036637e+02 9.213964851734129255e-06
4.601300650325162565e+02 9.254016427223406865e-06
4.610305152576287924e+02 9.204142809675482797e-06
4.619309654827413283e+02 9.079987044123691696e-06
4.628314157078539210e+02 8.923976882872414521e-06
4.637318659329664570e+02 8.754758038240393088e-06
4.646323161580789929e+02 8.568003102411129876e-06
4.655327663831915856e+02 8.384150656432790493e-06
4.664332166083041216e+02 8.261159370818700956e-06
4.673336668334167143e+02 8.239710395090958401e-06
4.682341170585292502e+02 8.311760677566726197e-06
4.691345672836417862e+02 8.443934413573736875e-06
4.700350175087543789e+02 8.594377559317517765e-06
4.709354677338669148e+02 8.734270697662695145e-06
4.718359179589794508e+02 8.857533342029710036e-06
4.727363681840920435e+02 8.961286310089958040e-06
4.736368184092045794e+02 9.036261180046241637e-06
4.745372686343171154e+02 9.097961575517579506e-06
4.754377188594297081e+02 9.187002246888683441e-06
4.763381690845422440e+02 9.318698208190622742e-06
4.772386193096547800e+02 9.474563410204193313e-06
4.781390695347673727e+02 9.625660531283317369e-06
4.790395197598799086e+02 9.756392297263646413e-06
4.799399699849925014e+02 9.870277281044161156e-06
4.808404202101050373e+02 9.972687316397745898e-06
4.817408704352175732e+02 1.006697156022349101e-05
4.826413206603301660e+02 1.015549245040521203e-05
4.835417708854427019e+02 1.021102294316117772e-05
4.844422211105552378e+02 1.018932908183367263e-05
4.853426713356678306e+02 1.010846735489972499e-05
4.862431215607803665e+02 1.004202018519436146e-05
4.871435717858929024e+02 1.003385676908027328e-05
4.880440220110054952e+02 1.006563102335449453e-05
4.889444722361180311e+02 1.009237540955746222e-05
4.898449224612305670e+02 1.009825515746317055e-05
4.907453726863431598e+02 1.009310777120141883e-05
4.916458229114556957e+02 1.008218778143729203e-05
4.925462731365682885e+02 1.006643769817793202e-05
4.934467233616808244e+02 1.004711861758646867e-05
4.943471735867933603e+02 1.002351553564573384e-05
4.952476238119059531e+02 1.000103885932494394e-05
4.961480740370184890e+02 9.997971662129882066e-06
4.970485242621310249e+02 1.003600909831273886e-05
4.979489744872436177e+02 1.012399164637997342e-05
4.988494247123561536e+02 1.025177146709844279e-05
4.997498749374686895e+02 1.039414974765804070e-05
5.006503251625812823e+02 1.053762445706784121e-05
5.015507753876938182e+02 1.068105287015271033e-05
5.024512256128063541e+02 1.083571384899624682e-05
5.033516758379189469e+02 1.099587307278971908e-05
5.042521260630314828e+02 1.112412053501196475e-05
5.051525762881440755e+02 1.120838985222059125e-05
5.060530265132566115e+02 1.125593180010984264e-05
5.069534767383691474e+02 1.126106395550971421e-05
5.078539269634817401e+02 1.122445784908803695e-05
5.087543771885942760e+02 1.117045441285149029e-05
5.096548274137068120e+02 1.114367786110578656e-05
5.105552776388194047e+02 1.117742478711131383e-05
5.114557278639319406e+02 1.127607626367185922e-05
5.123561780890445334e+02 1.141394237002935929e-05
5.132566283141570693e+02 1.155890034005715900e-05
5.141570785392696052e+02 1.167703204805504821e-05
5.150575287643821412e+02 1.173322866830871722e-05
5.159579789894946771e+02 1.172639938033992697e-05
5.168584292146073267e+02 1.169361266408249628e-05
5.177588794397198626e+02 1.166695744910425914e-05
5.186593296648323985e+02 1.165480638601118663e-05
5.195597798899449344e+02 1.166643789886694231e-05
5.204602301150574704e+02 1.169556400335552965e-05
5.213606803401700063e+02 1.170923273754502516e-05
5.222611305652826559e+02 1.170029688608178395e-05
5.231615807903951918e+02 1.168668819924570343e-05
5.240620310155077277e+02 1.168367322600903839e-05
5.249624812406202636e+02 1.170661691948005246e-05
5.258629314657327996e+02 1.176917591263447234e-05
5.267633816908454492e+02 1.188222146862167801e-05
5.276638319159579851e+02 1.203213094039643722e-05
5.285642821410705210e+02 1.217061123895850618e-05
5.294647323661830569e+02 1.225933112519074062e-05
5.303651825912955928e+02 1.230381591962299833e-05
5.312656328164081287e+02 1.232903968689846161e-05
5.321660830415207784e+02 1.233663365791260958e-05
5.330665332666333143e+02 1.230727692714222418e-05
5.339669834917458502e+02 1.223461585532070632e-05
5.348674337168583861e+02 1.213905506718412645e-05
5.357678839419709220e+02 1.206097272010288692e-05
5.366683341670835716e+02 1.203597211220972038e-05
5.375687843921961075e+02 1.206413502233670875e-05
5.384692346173086435e+02 1.212901097671013659e-05
5.393696848424211794e+02 1.222113032478255857e-05
5.402701350675337153e+02 1.233219447498169798e-05
5.411705852926462512e+02 1.246509014896106702e-05
5.420710355177589008e+02 1.261854280016338991e-05
5.429714857428714367e+02 1.276251269853398344e-05
5.438719359679839727e+02 1.287449930315120200e-05
5.447723861930965086e+02 1.297261146803993569e-05
5.456728364182090445e+02 1.309186078523646398e-05
5.465732866433215804e+02 1.326298606342946758e-05
5.474737368684342300e+02 1.349822669939504533e-05
5.483741870935467659e+02 1.378164290826710560e-05
5.492746373186593019e+02 1.410108507620998375e-05
5.501750875437718378e+02 1.444772507322936506e-05
5.510755377688843737e+02 1.478665944868102263e-05
5.519759879939970233e+02 1.507719203830085971e-05
5.528764382191095592e+02 1.530352400195730247e-05
5.537768884442220951e+02 1.547330208196635699e-05
5.546773386693346310e+02 1.560953851049861647e-05
5.555777888944471670e+02 1.576078332098069601e-05
5.564782391195597029e+02 1.599056372903981551e-05
5.573786893446723525e+02 1.633976657817445355e-05
5.582791395697848884e+02 1.679267733089229235e-05
5.591795897948974243e+02 1.729656094826088268e-05
5.600800400200099602e+02 1.781317126624737315e-05
5.609804902451224962e+02 1.829614202617922775e-05
5.618809404702351458e+02 1.867274349611816383e-05
5.627813906953476817e+02 1.889116859304639662e-05
5.636818409204602176e+02 1.895202611853611687e-05
5.645822911455727535e+02 1.888589245303649308e-05
5.654827413706852894e+02 1.874866509763234448e-05
5.663831915957978254e+02 1.862454226497533741e-05
5.672836418209104750e+02 1.856157492174970744e-05
5.681840920460230109e+02 1.852238445947820638e-05
5.690845422711355468e+02 1.847612122264681312e-05
5.699849924962480827e+02 1.848042783407671162e-05
5.708854427213606186e+02 1.861826744949685521e-05
5.717858929464731546e+02 1.887810683832239701e-05
5.726863431715858042e+02 1.914374132579596964e-05
5.735867933966983401e+02 1.931915100164364600e-05
5.744872436218108760e+02 1.939341809911080907e-05
5.753876938469234119e+02 1.941386525031886100e-05
5.762881440720359478e+02 1.944437438654736684e-05
5.771885942971485974e+02 1.954483929202829965e-05
5.780890445222611334e+02 1.975513710291180056e-05
5.789894947473736693e+02 2.007136655876633340e-05
5.798899449724862052e+02 2.044850328511071814e-05
5.807903951975987411e+02 2.082200289003954116e-05
5.816908454227112770e+02 2.115071063893491732e-05
5.825912956478239266e+02 2.142325249830294111e-05
5.834917458729364625e+02 2.161456812391581139e-05
5.843921960980489985e+02 2.170438927185323728e-05
5.852926463231615344e+02 2.173224250333859525e-05
5.861930965482740703e+02 2.174954902513517730e-05
5.870935467733867199e+02 2.176751161817126664e-05
5.879939969984992558e+02 2.177604808232890977e-05
5.888944472236117917e+02 2.180512230865983852e-05
5.897948974487243277e+02 2.189228596413632564e-05
5.906953476738368636e+02 2.202947287302218455e-05
5.915957978989493995e+02 2.220440315830698696e-05
5.924962481240620491e+02 2.245275123671601063e-05
5.933966983491745850e+02 2.281587253570248715e-05
5.942971485742871209e+02 2.326155774718337196e-05
5.951975987993996569e+02 2.373562198011807715e-05
5.960980490245121928e+02 2.420862465375262534e-05
5.969984992496247287e+02 2.463001511758153997e-05
5.978989494747373783e+02 2.490620691553573592e-05
5.987993996998499142e+02 2.501021810715116446e-05
5.996998499249624501e+02 2.503440814839585988e-05
6.006003001500749860e+02 2.505480190050673569e-05
6.015007503751875220e+02 2.505999223156986521e-05
6.024012006003001716e+02 2.501092867609276869e-05
6.033016508254127075e+02 2.492465060016840533e-05
6.042021010505252434e+02 2.484217670792826873e-05
6.051025512756377793e+02 2.481330511656738207e-05
6.060030015007503152e+02 2.491474286257630208e-05
6.069034517258628512e+02 2.515982166488253368e-05
6.078039019509755008e+02 2.548386740193173103e-05
6.087043521760880367e+02 2.581236564399907321e-05
6.096048024012005726e+02 2.609054739821716029e-05
6.105052526263131085e+02 2.632926031783183675e-05
6.114057028514256444e+02 2.659217887524603494e-05
6.123061530765382940e+02 2.688816791453473506e-05
6.132066033016508300e+02 2.713002843383927707e-05
6.141070535267633659e+02 2.727100623322579223e-05
6.150075037518759018e+02 2.739340829110320743e-05
6.159079539769884377e+02 2.756481848041730776e-05
6.168084042021009736e+02 2.775362186658641704e-05
6.177088544272136232e+02 2.786648156587249970e-05
6.186093046523261592e+02 2.778313224169433871e-05
6.195097548774386951e+02 2.748501372731232539e-05
6.204102051025512310e+02 2.707292863973836014e-05
6.213106553276637669e+02 2.663197579837559031e-05
6.222111055527763028e+02 2.618929573029889812e-05
6.231115557778889524e+02 2.576339420584254002e-05
6.240120060030014884e+02 2.541741657802619846e-05
6.249124562281140243e+02 2.528152845288867434e-05
6.258129064532265602e+02 2.544276194210932227e-05
6.267133566783390961e+02 2.585938133984022987e-05
6.276138069034517457e+02 2.642812081612439651e-05
6.285142571285642816e+02 2.704091681854155514e-05
6.294147073536768175e+02 2.757771333841392566e-05
6.303151575787893535e+02 2.795547048894625008e-05
6.312156078039018894e+02 2.820142275366912103e-05
6.321160580290144253e+02 2.839603864447754161e-05
6.330165082541270749e+02 2.861997484836165662e-05
6.339169584792396108e+02 2.892991826008824765e-05
6.348174087043521467e+02 2.933710807135324496e-05
6.357178589294646827e+02 2.980965043047582180e-05
6.366183091545772186e+02 3.025490797225380190e-05
6.375187593796898682e+02 3.051027618136827618e-05
6.384192096048024041e+02 3.048269201151570108e-05
6.393196598299149400e+02 3.025196906390008379e-05
6.402201100550274759e+02 3.000693737990933727e-05
6.411205602801400119e+02 2.987690822754524408e-05
6.420210105052525478e+02 2.981937550930691084e-05
6.429214607303651974e+02 2.969123271030421344e-05
6.438219109554777333e+02 2.942682016203401697e-05
6.447223611805902692e+02 2.911600881824831703e-05
6.456228114057028051e+02 2.889476766334897673e-05
6.465232616308153411e+02 2.884020567413137699e-05
6.474237118559278770e+02 2.897745179803892606e-05
6.483241620810405266e+02 2.926688981761624094e-05
6.492246123061530625e+02 2.961927387923194823e-05
6.501250625312655984e+02 2.996352252068650992e-05
6.510255127563781343e+02 3.027554803302496728e-05
6.519259629814906702e+02 3.057414035888613043e-05
6.528264132066033198e+02 3.088467952632455735e-05
6.537268634317158558e+02 3.114312302117803235e-05
6.546273136568283917e+02 3.120329412980202255e-05
6.555277638819409276e+02 3.101883642446865422e-05
6.564282141070534635e+02 3.070208599475520627e-05
6.573286643321659994e+02 3.042729826073757520e-05
6.582291145572786490e+02 3.030850907190253053e-05
6.591295647823911850e+02 3.030707059811596577e-05
6.600300150075037209e+02 3.030062768491558766e-05
6.609304652326162568e+02 3.015178206154084910e-05
6.618309154577287927e+02 2.975425632496669440e-05
6.627313656828414423e+02 2.912022227754868477e-05
6.636318159079539782e+02 2.842772103952590786e-05
6.645322661330665142e+02 2.790210256628049607e-05
6.654327163581790501e+02 2.765099348352801685e-05
6.663331665832915860e+02 2.768845958984779014e-05
6.672336168084041219e+02 2.798816264878921617e-05
6.681340670335167715e+02 2.841554648450733350e-05
6.690345172586293074e+02 2.881941139468989667e-05
6.699349674837418434e+02 2.923124655897759575e-05
6.708354177088543793e+02 2.978839533100708311e-05
6.717358679339669152e+02 3.050711904380597921e-05
6.726363181590794511e+02 3.127660800844433563e-05
6.735367683841921007e+02 3.201081508552319847e-05
6.744372186093046366e+02 3.270601946045105415e-05
6.753376688344171725e+02 3.327132351540404160e-05
6.762381190595297085e+02 3.343280446150869356e-05
6.771385692846422444e+02 3.308135755755319029e-05
6.780390195097548940e+02 3.242060623777370419e-05
6.789394697348674299e+02 3.169752747924941861e-05
6.798399199599799658e+02 3.107483902682224293e-05
6.807403701850925017e+02 3.066504163220269555e-05
6.816408204102050377e+02 3.052456209288457436e-05
6.825412706353175736e+02 3.057035357965385083e-05
6.834417208604302232e+02 3.066685029770861406e-05
6.843421710855427591e+02 3.080469459667717775e-05
6.852426213106552950e+02 3.106233768910580598e-05
6.861430715357678309e+02 3.139509249605322268e-05
6.870435217608803669e+02 3.158607138388958187e-05
6.879439719859930165e+02 3.148562390576102642e-05
6.888444222111055524e+02 3.118017940460563565e-05
6.897448724362180883e+02 3.089413291918652094e-05
6.906453226613306242e+02 3.074725727308384764e-05
6.915457728864431601e+02 3.069387041396803953e-05
6.924462231115556961e+02 3.068672434828669806e-05
6.933466733366683457e+02 3.072689119823823664e-05
6.942471235617808816e+02 3.075501293075125680e-05
6.951475737868934175e+02 3.070935952596425033e-05
6.960480240120059534e+02 3.068188322063841023e-05
6.969484742371184893e+02 3.077588661246359776e-05
6.978489244622311389e+02 3.093872759359007403e-05
6.987493746873436749e+02 3.102912845010945996e-05
6.996498249124562108e+02 3.086332943817483187e-05
7.005502751375687467e+02 3.037107674740973872e-05
7.014507253626812826e+02 2.973078923707103032e-05
7.023511755877938185e+02 2.920519042421926582e-05
7.032516258129064681e+02 2.895477759407310994e-05
7.041520760380190040e+02 2.899469039084873174e-05
7.050525262631315400e+02 2.921639553296724197e-05
7.059529764882440759e+02 2.943998773871715608e-05
7.068534267133566118e+02 2.949739282444369795e-05
7.077538769384691477e+02 2.933702868644148432e-05
7.086543271635817973e+02 2.899657149493159019e-05
7.095547773886943332e+02 2.855019417300416886e-05
7.104552276138068692e+02 2.812596676747261133e-05
7.113556778389194051e+02 2.781829206665537303e-05
7.122561280640319410e+02 2.767108121276676651e-05
7.131565782891445906e+02 2.768239431141988744e-05
7.140570285142571265e+02 2.777482928158311637e-05
7.149574787393696624e+02 2.788583674644550968e-05
7.158579289644821984e+02 2.799638545171525495e-05
7.167583791895947343e+02 2.802082130079232823e-05
7.176588294147072702e+02 2.783837674686953127e-05
7.185592796398199198e+02 2.740570929629944550e-05
7.194597298649324557e+02 2.671045560378601470e-05
7.203601800900449916e+02 2.581681596880227255e-05
7.212606303151575275e+02 2.487045007144753577e-05
7.221610805402700635e+02 2.394887018770960091e-05
7.230615307653827131e+02 2.307596732735180706e-05
7.239619809904952490e+02 2.232774516233090935e-05
7.248624312156077849e+02 2.177095753016024032e-05
7.257628814407203208e+02 2.138713332475126056e-05
7.266633316658328567e+02 2.109722741632836474e-05
7.275637818909453927e+02 2.086203862830679560e-05
7.284642321160580423e+02 2.071281768799399276e-05
7.293646823411705782e+02 2.068208896816099677e-05
7.302651325662831141e+02 2.071911744434851312e-05
7.311655827913956500e+02 2.074207106598454405e-05
7.320660330165081859e+02 2.075208219127826917e-05
7.329664832416207219e+02 2.080449346588168839e-05
7.338669334667333715e+02 2.088682794482997054e-05
7.347673836918459074e+02 2.093216277720144907e-05
7.356678339169584433e+02 2.092362337681660326e-05
7.365682841420709792e+02 2.088821555195474118e-05
7.374687343671835151e+02 2.084864361387928826e-05
7.383691845922961647e+02 2.080689296513848861e-05
7.392696348174087007e+02 2.072324431399447532e-05
7.401700850425212366e+02 2.054195897200362852e-05
7.410705352676337725e+02 2.027296075729432401e-05
7.419709854927463084e+02 1.999814600580312438e-05
7.428714357178588443e+02 1.975868529435844363e-05
7.437718859429714939e+02 1.953952622727322342e-05
7.446723361680840299e+02 1.935555807623850816e-05
7.455727863931965658e+02 1.925004998998864023e-05
7.464732366183091017e+02 1.921587266143359865e-05
7.473736868434216376e+02 1.917696562492923344e-05
7.482741370685342872e+02 1.907151116287799359e-05
7.491745872936468231e+02 1.893671099764672011e-05
7.500750375187593590e+02 1.886228010057928333e-05
7.509754877438718950e+02 1.891396108543685117e-05
7.518759379689844309e+02 1.908982219113629638e-05
7.527763881940969668e+02 1.931583880072313143e-05
7.536768384192096164e+02 1.948337349885553111e-05
7.545772886443221523e+02 1.950804119650825807e-05
7.554777388694346882e+02 1.939024896159407282e-05
7.563781890945472242e+02 1.918424617355015018e-05
7.572786393196597601e+02 1.896633090414384936e-05
7.581790895447722960e+02 1.879842847129811317e-05
7.590795397698849456e+02 1.868115772059236393e-05
7.599799899949974815e+02 1.859277110530913293e-05
7.608804402201100174e+02 1.849598595295389833e-05
7.617808904452225534e+02 1.830346702728486067e-05
7.626813406703350893e+02 1.794630483179790321e-05
7.635817908954477389e+02 1.747524800197839415e-05
7.644822411205602748e+02 1.700663838558289732e-05
7.653826913456728107e+02 1.661499869860479285e-05
7.662831415707853466e+02 1.631886020199205991e-05
7.671835917958978825e+02 1.608581690344814842e-05
7.680840420210104185e+02 1.588184929680740729e-05
7.689844922461230681e+02 1.571716915208796857e-05
7.698849424712356040e+02 1.559504144705601501e-05
7.707853926963481399e+02 1.546135765270072581e-05
7.716858429214606758e+02 1.526379690270508236e-05
7.725862931465732117e+02 1.503120655815065544e-05
7.734867433716858613e+02 1.483875876787370279e-05
7.743871935967983973e+02 1.472674593861862919e-05
7.752876438219109332e+02 1.465990730361318404e-05
7.761880940470234691e+02 1.458223572210554337e-05
7.770885442721360050e+02 1.448719274999835944e-05
7.779889944972485409e+02 1.439201269413774546e-05
7.788894447223611905e+02 1.430538534383971051e-05
7.797898949474737265e+02 1.424731567767378417e-05
7.806903451725862624e+02 1.422390489461060197e-05
7.815907953976987983e+02 1.419201563247116185e-05
7.824912456228113342e+02 1.410227449018893839e-05
7.833916958479238701e+02 1.395141292500253785e-05
7.842921460730365197e+02 1.377237452164151973e-05
7.851925962981490557e+02 1.361329036052292800e-05
7.860930465232615916e+02 1.351284298883783683e-05
7.869934967483741275e+02 1.347937018883501432e-05
7.878939469734866634e+02 1.349062685300065895e-05
7.887943971985993130e+02 1.350024646434855144e-05
7.896948474237118489e+02 1.346083047490153967e-05
7.905952976488243849e+02 1.335820948224488797e-05
7.914957478739369208e+02 1.324292721737168380e-05
7.923961980990494567e+02 1.317393153019018432e-05
7.932966483241619926e+02 1.316093752048188912e-05
7.941970985492746422e+02 1.318548717125500727e-05
7.950975487743871781e+02 1.321816736222222831e-05
7.959979989994997140e+02 1.323749561652738905e-05
7.968984492246122500e+02 1.324060065932253985e-05
7.977988994497247859e+02 1.324546691056678203e-05
7.986993496748374355e+02 1.328574736230832696e-05
7.995997998999499714e+02 1.337419906880861005e-05
8.005002501250625073e+02 1.349477053102807818e-05
8.014007003501750432e+02 1.362404125130486934e-05
8.023011505752875792e+02 1.372389293005743856e-05
8.032016008004001151e+02 1.375229536925333068e-05
8.041020510255127647e+02 1.371995431784062442e-05
8.050025012506253006e+02 1.369368209575615798e-05
8.059029514757378365e+02 1.372633509873530870e-05
8.068034017008503724e+02 1.382210839377497801e-05
8.077038519259629084e+02 1.394790804999872615e-05
8.086043021510754443e+02 1.404745597523754598e-05
8.095047523761880939e+02 1.406503202580487658e-05
8.104052026013006298e+02 1.397401557509060015e-05
8.113056528264131657e+02 1.379874870864764033e-05
8.122061030515257016e+02 1.360758085828297992e-05
8.131065532766382375e+02 1.344050158474679182e-05
8.140070035017508872e+02 1.329976620966865866e-05
8.149074537268634231e+02 1.318832283155141668e-05
8.158079039519759590e+02 1.311071657584600146e-05
8.167083541770884949e+02 1.305953335799598777e-05
8.176088044022010308e+02 1.301361867741517839e-05
8.185092546273135667e+02 1.294753345342890300e-05
8.194097048524262163e+02 1.285602100921088633e-05
8.203101550775387523e+02 1.276917771025621508e-05
8.212106053026512882e+02 1.271966056201748555e-05
8.221110555277638241e+02 1.270532373675690933e-05
8.230115057528763600e+02 1.270159168498924340e-05
8.239119559779890096e+02 1.268978871419457148e-05
8.248124062031015455e+02 1.265714375142160505e-05
8.257128564282140815e+02 1.259367090578914675e-05
8.266133066533266174e+02 1.251009202152890987e-05
8.275137568784391533e+02 1.242849134234774920e-05
8.284142071035516892e+02 1.236088312404949031e-05
8.293146573286643388e+02 1.231147831473992361e-05
8.302151075537768747e+02 1.228293981556428982e-05
8.311155577788894107e+02 1.227211805566125718e-05
8.320160080040019466e+02 1.226570026537286957e-05
8.329164582291144825e+02 1.225985345276715123e-05
8.338169084542270184e+02 1.225625896419101237e-05
8.347173586793396680e+02 1.225595746978530101e-05
8.356178089044522039e+02 1.226938783384698130e-05
8.365182591295647399e+02 1.231843735860079356e-05
8.374187093546772758e+02 1.242550103127428019e-05
8.383191595797898117e+02 1.260294418935055069e-05
8.392196098049024613e+02 1.282462283998543765e-05
8.401200600300149972e+02 1.301751093237673033e-05
8.410205102551275331e+02 1.312781886767077540e-05
8.419209604802400690e+02 1.318975312470520163e-05
8.428214107053526050e+02 1.325839179963170148e-05
8.437218609304651409e+02 1.334415233286326586e-05
8.446223111555777905e+02 1.341704695088904058e-05
8.455227613806903264e+02 1.345373063482995548e-05
8.464232116058028623e+02 1.346417703676867976e-05
8.473236618309153982e+02 1.347340616897384052e-05
8.482241120560279342e+02 1.349149866104401822e-05
8.491245622811405838e+02 1.351475394144527873e-05
8.500250125062531197e+02 1.356429961978410632e-05
8.509254627313656556e+02 1.366003476735181015e-05
8.518259129564781915e+02 1.378734878685169401e-05
8.527263631815907274e+02 1.393042485298909012e-05
8.536268134067032634e+02 1.406518615904859503e-05
8.545272636318159130e+02 1.414076379442529858e-05
8.554277138569284489e+02 1.411308250612230594e-05
8.563281640820409848e+02 1.399498996298546826e-05
8.572286143071535207e+02 1.384661542040748822e-05
8.581290645322660566e+02 1.371111059201296574e-05
8.590295147573785925e+02 1.359507367889860888e-05
8.599299649824912422e+02 1.350256712029028948e-05
8.608304152076037781e+02 1.345391927595416291e-05
8.617308654327163140e+02 1.345667312451613928e-05
8.626313156578288499e+02 1.348477223366074373e-05
8.635317658829413858e+02 1.348993116581566020e-05
8.644322161080540354e+02 1.345025540350072512e-05
8.653326663331665713e+02 1.340491654265342943e-05
8.662331165582791073e+02 1.340082331722069811e-05
8.671335667833916432e+02 1.343738029401343158e-05
8.680340170085041791e+02 1.347214404651228473e-05
8.689344672336167150e+02 1.347011250220577462e-05
8.698349174587293646e+02 1.343306337911106509e-05
8.707353676838419005e+02 1.337816876425234368e-05
8.716358179089544365e+02 1.331660256259293861e-05
8.725362681340669724e+02 1.325956955080266699e-05
8.734367183591795083e+02 1.322999642824289996e-05
8.743371685842921579e+02 1.324669150636019065e-05
8.752376188094046938e+02 1.330799834305392542e-05
8.761380690345172297e+02 1.341407072832881707e-05
8.770385192596297657e+02 1.357041954901050680e-05
8.779389694847423016e+02 1.375717015629615313e-05
8.788394197098548375e+02 1.392175775257571761e-05
8.797398699349674871e+02 1.403410628914509110e-05
8.806403201600800230e+02 1.411722744233644100e-05
8.815407703851925589e+02 1.420195277247317286e-05
8.824412206103050949e+02 1.430226740613339751e-05
8.833416708354176308e+02 1.439929048211057457e-05
8.842421210605301667e+02 1.446453395627024342e-05
8.851425712856428163e+02 1.450719488692912830e-05
8.860430215107553522e+02 1.456965305291878339e-05
8.869434717358678881e+02 1.468561736774948826e-05
8.878439219609804240e+02 1.485619434173835001e-05
8.887443721860929600e+02 1.506555008067248019e-05
8.896448224112056096e+02 1.527329531522874040e-05
8.905452726363181455e+02 1.545176779848951928e-05
8.914457228614306814e+02 1.561789127821542581e-05
8.923461730865432173e+02 1.577782344783687954e-05
8.932466233116557532e+02 1.592655287267960698e-05
8.941470735367682892e+02 1.606621357426179662e-05
8.950475237618809388e+02 1.619933197642664966e-05
8.959479739869934747e+02 1.634143132924436686e-05
8.968484242121060106e+02 1.649932646269969009e-05
8.977488744372185465e+02 1.664005175467982975e-05
8.986493246623310824e+02 1.670955117294008500e-05
8.995497748874437320e+02 1.669048238645672860e-05
9.004502251125562680e+02 1.663653067013807607e-05
9.013506753376688039e+02 1.661566121753435183e-05
9.022511255627813398e+02 1.667102290361517874e-05
9.031515757878938757e+02 1.682499451147685663e-05
9.040520260130064116e+02 1.706462493260242283e-05
9.049524762381190612e+02 1.736799260565193389e-05
9.058529264632315972e+02 1.771796824385432222e-05
9.067533766883441331e+02 1.806095787891110109e-05
9.076538269134566690e+02 1.829525773693719366e-05
9.085542771385692049e+02 1.836109120763581028e-05
9.094547273636817408e+02 1.832425874389831570e-05
9.103551775887943904e+02 1.831546429408040596e-05
9.112556278139069263e+02 1.840101665981467720e-05
9.121560780390194623e+02 1.853918742907506779e-05
9.130565282641319982e+02 1.862659282286361796e-05
9.139569784892445341e+02 1.859078995208641338e-05
9.148574287143571837e+02 1.846255323149584580e-05
9.157578789394697196e+02 1.833146569879627580e-05
9.166583291645822555e+02 1.825317672578719532e-05
9.175587793896947915e+02 1.823564717246540560e-05
9.184592296148073274e+02 1.826322306256194614e-05
9.193596798399198633e+02 1.832140968060512373e-05
9.202601300650325129e+02 1.841270024807659461e-05
9.211605802901450488e+02 1.855885000358910834e-05
9.220610305152575847e+02 1.877239228085764118e-05
9.229614807403701207e+02 1.901814666889176006e-05
9.238619309654826566e+02 1.921011505950293152e-05
9.247623811905953062e+02 1.931150752366341057e-05
9.256628314157078421e+02 1.940160920039918482e-05
9.265632816408203780e+02 1.958666932426589478e-05
9.274637318659329139e+02 1.988546902652424023e-05
9.283641820910454499e+02 2.023861364408139862e-05
9.292646323161579858e+02 2.058932103474865963e-05
9.301650825412706354e+02 2.092722740493215978e-05
9.310655327663831713e+02 2.127333647424697793e-05
9.319659829914957072e+02 2.160184146336722156e-05
9.328664332166082431e+02 2.183363886677417944e-05
9.337668834417207790e+02 2.196839064630508578e-05
9.346673336668334287e+02 2.209224890405074273e-05
9.355677838919459646e+02 2.222206387890665206e-05
9.364682341170585005e+02 2.233862753932624060e-05
9.373686843421710364e+02 2.247173585197645456e-05
9.382691345672835723e+02 2.262640204662291556e-05
9.391695847923961082e+02 2.272897277221209652e-05
9.400700350175087578e+02 2.272520776836065216e-05
9.409704852426212938e+02 2.267201836816271638e-05
9.418709354677338297e+02 2.263767623124551332e-05
9.427713856928463656e+02 2.265498998992260008e-05
9.436718359179589015e+02 2.277550951896476788e-05
9.445722861430714374e+02 2.303398760617949916e-05
9.454727363681840870e+02 2.339598540835851402e-05
9.463731865932966230e+02 2.376921403665332232e-05
9.472736368184091589e+02 2.405095405068493854e-05
9.481740870435216948e+02 2.423005113610771135e-05
9.490745372686342307e+02 2.440352192111328177e-05
9.499749874937468803e+02 2.464922959825774476e-05
9.508754377188594162e+02 2.497740301614296461e-05
9.517758879439719522e+02 2.534178232794039560e-05
9.526763381690844881e+02 2.567527978433455259e-05
9.535767883941970240e+02 2.592683936124517670e-05
9.544772386193095599e+02 2.609080378572891653e-05
9.553776888444222095e+02 2.617011647539504865e-05
9.562781390695347454e+02 2.617521612011185382e-05
9.571785892946472813e+02 2.618249428688329216e-05
9.580790395197598173e+02 2.624149234926027069e-05
9.589794897448723532e+02 2.632676349199926244e-05
9.598799399699850028e+02 2.640219520065764547e-05
9.607803901950975387e+02 2.646383861821324383e-05
9.616808404202100746e+02 2.654675865676372603e-05
9.625812906453226105e+02 2.673723393863570720e-05
9.634817408704351465e+02 2.712114534300922089e-05
9.643821910955476824e+02 2.768060140273869441e-05
9.652826413206603320e+02 2.829984634469216574e-05
9.661830915457728679e+02 2.887881083834348297e-05
9.670835417708854038e+02 2.937500467293688194e-05
9.679839919959979397e+02 2.976388224911267322e-05
9.688844422211104757e+02 3.003757998660012223e-05
9.697848924462230116e+02 3.026222966555412817e-05
9.706853426713356612e+02 3.055824720487712088e-05
9.715857928964481971e+02 3.096564820878917467e-05
9.724862431215607330e+02 3.142970232710534087e-05
9.733866933466732689e+02 3.196795789797198260e-05
9.742871435717858049e+02 3.260089288658519780e-05
9.751875937968984545e+02 3.324704953538461916e-05
9.760880440220109904e+02 3.386248422980005826e-05
9.769884942471235263e+02 3.448116242725365806e-05
9.778889444722360622e+02 3.514495953648892813e-05
9.787893946973485981e+02 3.578416976046826432e-05
9.796898449224611340e+02 3.612783158251637705e-05
9.805902951475737837e+02 3.595642901805836924e-05
9.814907453726863196e+02 3.543477697299159422e-05
9.823911955977988555e+02 3.499148174374579033e-05
9.832916458229113914e+02 3.492136746622611488e-05
9.841920960480239273e+02 3.520687668208348346e-05
9.850925462731365769e+02 3.564008274504655029e-05
9.859929964982491128e+02 3.608092486233896245e-05
9.868934467233616488e+02 3.655693999365120178e-05
9.877938969484741847e+02 3.708812312570831330e-05
9.886943471735867206e+02 3.756249868029590695e-05
9.895947973986992565e+02 3.780895068773432714e-05
9.904952476238119061e+02 3.786615206969270076e-05
9.913956978489244420e+02 3.799388751007161277e-05
9.922961480740369780e+02 3.835109756871892510e-05
9.931965982991495139e+02 3.889215871510314610e-05
9.940970485242620498e+02 3.948890381441893518e-05
9.949974987493745857e+02 4.002964689876051030e-05
9.958979489744872353e+02 4.044703343483829999e-05
9.967983991995997712e+02 4.078785045784062658e-05
9.976988494247123072e+02 4.112042265699997429e-05
9.985992996498248431e+02 4.141125089091802678e-05
9.994997498749373790e+02 4.167462491283567219e-05
1.000400200100050029e+03 4.202864474418182232e-05
1.001300650325162565e+03 4.253251684932591648e-05
1.002201100550275100e+03 4.314522722233603378e-05
1.003101550775387636e+03 4.385707124088530576e-05
1.004002001000500172e+03 4.467042940485577986e-05
1.004902451225612708e+03 4.549771142917652384e-05
1.005802901450725358e+03 4.626604264857188978e-05
1.006703351675837894e+03 4.702275320235280794e-05
1.007603801900950430e+03 4.785075074609939933e-05
1.008504252126062966e+03 4.874355690838590003e-05
1.009404702351175501e+03 4.952778172380459346e-05
1.010305152576288151e+03 5.006548395673187643e-05
1.011205602801400687e+03 5.039107622609086817e-05
1.012106053026513223e+03 5.056455288170280779e-05
1.013006503251625759e+03 5.079147390150254201e-05
1.013906953476738295e+03 5.134444208601510900e-05
1.014807403701850831e+03 5.220537184963816373e-05
1.015707853926963480e+03 5.316316438811002990e-05
1.016608304152076016e+03 5.410023830475911859e-05
1.017508754377188552e+03 5.495114506170202648e-05
1.018409204602301088e+03 5.570480634187300624e-05
1.019309654827413624e+03 5.652425172712905322e-05
1.020210105052526160e+03 5.752040576969441366e-05
1.021110555277638809e+03 5.856792563017982809e-05
1.022011005502751345e+03 5.949735236926810550e-05
1.022911455727863881e+03 6.026604061738632809e-05
1.023811905952976417e+03 6.090377355270103682e-05
1.024712356178089067e+03 6.154471858626970368e-05
1.025612806403201603e+03 6.244928903383442122e-05
1.026513256628314139e+03 6.373011381287908513e-05
1.027413706853426675e+03 6.529026370583844972e-05
1.028314157078539210e+03 6.694526914053417659e-05
1.029214607303651746e+03 6.849175528140171668e-05
1.030115057528764282e+03 6.972517374959998125e-05
1.031015507753876818e+03 7.062698768841370626e-05
1.031915957978989354e+03 7.143088974819119272e-05
1.032816408204101890e+03 7.224734166017581969e-05
1.033716858429214653e+03 7.295296399818913759e-05
1.034617308654327189e+03 7.352391921406443770e-05
1.035517758879439725e+03 7.417914108831653549e-05
1.036418209104552261e+03 7.509118037193601833e-05
1.037318659329664797e+03 7.632962676256499176e-05
1.038219109554777333e+03 7.791301579284385043e-05
1.039119559779889869e+03 7.965376146415410535e-05
1.040020010005002405e+03 8.139991546057636133e-05
1.040920460230114941e+03 8.333877438107238915e-05
1.041820910455227477e+03 8.578225752546728632e-05
1.042721360680340013e+03 8.870181170073425869e-05
1.043621810905452776e+03 9.169868059075031723e-05
1.044522261130565312e+03 9.458795152031515725e-05
1.045422711355677848e+03 9.743675309288649361e-05
1.046323161580790384e+03 1.001253913791097522e-04
1.047223611805902920e+03 1.026030597974188680e-04
1.048124062031015455e+03 1.050514933535761394e-04
1.049024512256127991e+03 1.075673057082730767e-04
1.049924962481240527e+03 1.100394097103471594e-04
1.050825412706353063e+03 1.123009884521150857e-04
1.051725862931465599e+03 1.143559111711010525e-04
1.052626313156578135e+03 1.165962105672437151e-04
1.053526763381690898e+03 1.192912690628568812e-04
1.054427213606803434e+03 1.221060902992815878e-04
1.055327663831915970e+03 1.245337483040463266e-04
1.056228114057028506e+03 1.265050704208488762e-04
1.057128564282141042e+03 1.284762298137052646e-04
1.058029014507253578e+03 1.309786967604919866e-04
1.058929464732366114e+03 1.342463743979711507e-04
1.059829914957478650e+03 1.379536039193857578e-04
1.060730365182591186e+03 1.415216082154741896e-04
1.061630815407703722e+03 1.448607229168257047e-04
1.062531265632816257e+03 1.484666811638179617e-04
1.063431715857929021e+03 1.525631042855169991e-04
1.064332166083041557e+03 1.567575383361723964e-04
1.065232616308154093e+03 1.607321109821166093e-04
1.066133066533266629e+03 1.642866817323426754e-04
1.067033516758379164e+03 1.671624963418287448e-04
1.067933966983491700e+03 1.697196874410694071e-04
1.068834417208604236e+03 1.727725935777323139e-04
1.069734867433716772e+03 1.766036957625793079e-04
1.070635317658829308e+03 1.806126932914069476e-04
1.071535767883941844e+03 1.839327573524014551e-04
1.072436218109054380e+03 1.864237984136507726e-04
1.073336668334167143e+03 1.885056661005982072e-04
1.074237118559279679e+03 1.905131780104927770e-04
1.075137568784392215e+03 1.929854216242902056e-04
1.076038019009504751e+03 1.966230258353253793e-04
1.076938469234617287e+03 2.015233461334257697e-04
1.077838919459729823e+03 2.070311403323598178e-04
1.078739369684842359e+03 2.127511137503386397e-04
1.079639819909954895e+03 2.191428785312723852e-04
1.080540270135067431e+03 2.264636867631210522e-04
1.081440720360179967e+03 2.342565459294090890e-04
1.082341170585292502e+03 2.419722135627493738e-04
1.083241620810405038e+03 2.489012760812644521e-04
1.084142071035517802e+03 2.542224642886808180e-04
1.085042521260630338e+03 2.577940412205006917e-04
1.085942971485742873e+03 2.600869643326353137e-04
1.086843421710855409e+03 2.619821752891001430e-04
1.087743871935967945e+03 2.641350218545083063e-04
1.088644322161080481e+03 2.662839669314225424e-04
1.089544772386193017e+03 2.681399211438545275e-04
1.090445222611305553e+03 2.706972035721116692e-04
1.091345672836418089e+03 2.758736681582404254e-04
1.092246123061530625e+03 2.843473469835203194e-04
1.093146573286643161e+03 2.947460475193524124e-04
1.094047023511755924e+03 3.046712938921399645e-04
1.094947473736868460e+03 3.117306856254865323e-04
1.095847923961980996e+03 3.153567721761813209e-04
1.096748374187093532e+03 3.174157539132611209e-04
1.097648824412206068e+03 3.201020868522531514e-04
1.098549274637318604e+03 3.245677241097058964e-04
1.099449724862431140e+03 3.314771428622211827e-04
1.100350175087543676e+03 3.414977186734782723e-04
1.101250625312656211e+03 3.540898069528758082e-04
1.102151075537768747e+03 3.668910828788535142e-04
1.103051525762881283e+03 3.772316792519393703e-04
1.103951975987994047e+03 3.833831270419080250e-04
1.104852426213106583e+03 3.859330240870715635e-04
1.105752876438219118e+03 3.878599883923358597e-04
1.106653326663331654e+03 3.927211010120098557e-04
1.107553776888444190e+03 4.026191553445203439e-04
1.108454227113556726e+03 4.176955937284306691e-04
1.109354677338669262e+03 4.359576600029572350e-04
1.110255127563781798e+03 4.541511883509849511e-04
1.111155577788894334e+03 4.692338472396402594e-04
1.112056028014006870e+03 4.786719055911239657e-04
1.112956478239119406e+03 4.816876450710004792e-04
1.113856928464232169e+03 4.804588025772834540e-04
1.114757378689344705e+03 4.781405909848055261e-04
1.115657828914457241e+03 4.770298599527691128e-04
1.116558279139569777e+03 4.774186410432749018e-04
1.117458729364682313e+03 4.779682983754859416e-04
1.118359179589794849e+03 4.772183178122878905e-04
1.119259629814907385e+03 4.729314235849755828e-04
1.120160080040019920e+03 4.635735276983871589e-04
1.121060530265132456e+03 4.510714614375659374e-04
1.121960980490244992e+03 4.403772498504036469e-04
1.122861430715357528e+03 4.356975659012277059e-04
1.123761880940470292e+03 4.369853600021668351e-04
1.124662331165582827e+03 4.401851955064489761e-04
1.125562781390695363e+03 4.399868177576227515e-04
1.126463231615807899e+03 4.327499489893566744e-04
1.127363681840920435e+03 4.182437017651204612e-04
1.128264132066032971e+03 3.998800860151906569e-04
1.129164582291145507e+03 3.816999259482065023e-04
1.130065032516258043e+03 3.651603695874123309e-04
1.130965482741370579e+03 3.496907989588811448e-04
1.131865932966483115e+03 3.340419886121106683e-04
1.132766383191595651e+03 3.172454385892217602e-04
1.133666833416708187e+03 2.984857657922808513e-04
1.134567283641820950e+03 2.770485628977338035e-04
1.135467733866933486e+03 2.534324644892318491e-04
1.136368184092046022e+03 2.293988017416710874e-04
1.137268634317158558e+03 2.073745598512186854e-04
1.138169084542271094e+03 1.888344925177355270e-04
1.139069534767383630e+03 1.735396900559213191e-04
1.139969984992496165e+03 1.609551641295778009e-04
1.140870435217608701e+03 1.509258124684047242e-04
1.141770885442721237e+03 1.430627061822432498e-04
1.142671335667833773e+03 1.362302573224429643e-04
1.143571785892946309e+03 1.292371816422639025e-04
1.144472236118059072e+03 1.217065406464954038e-04
1.145372686343171608e+03 1.136717382287611512e-04
1.146273136568284144e+03 1.054819884878146070e-04
1.147173586793396680e+03 9.817081146037031009e-05
1.148074037018509216e+03 9.258577071745971020e-05
1.148974487243621752e+03 8.870615703265970350e-05
1.149874937468734288e+03 8.604943404095567218e-05
1.150775387693846824e+03 8.422337493964979931e-05
1.151675837918959360e+03 8.290249711737799688e-05
1.152576288144071896e+03 8.175922101623302619e-05
1.153476738369184432e+03 8.054489178464197484e-05
1.154377188594297195e+03 7.913879852999021914e-05
1.155277638819409731e+03 7.763459328548521566e-05
1.156178089044522267e+03 7.620561738676659479e-05
1.157078539269634803e+03 7.486025780924851632e-05
1.157978989494747339e+03 7.332147757413300224e-05
1.158879439719859874e+03 7.128757977148374853e-05
1.159779889944972410e+03 6.887866042305063833e-05
1.160680340170084946e+03 6.658338548097303845e-05
1.161580790395197482e+03 6.478440789787080268e-05
1.162481240620310018e+03 6.350892052238461133e-05
1.163381690845422554e+03 6.258969092814322386e-05
1.164282141070535317e+03 6.188103536582111074e-05
1.165182591295647853e+03 6.124636748943500350e-05
1.166083041520760389e+03 6.043404726028292441e-05
1.166983491745872925e+03 5.924206725661178529e-05
1.167883941970985461e+03 5.781284655186637561e-05
1.168784392196097997e+03 5.649012419873604928e-05
1.169684842421210533e+03 5.550787239104702515e-05
1.170585292646323069e+03 5.489966754093244026e-05
1.171485742871435605e+03 5.460679677004845651e-05
1.172386193096548141e+03 5.454356818866177930e-05
1.173286643321660677e+03 5.457243009846247239e-05
1.174187093546773440e+03 5.461171102852914135e-05
1.175087543771885976e+03 5.475565475712840512e-05
1.175987993996998512e+03 5.515364770410853985e-05
1.176888444222111048e+03 5.587412198468538115e-05
1.177788894447223583e+03 5.686345891499234581e-05
1.178689344672336119e+03 5.792735674688899070e-05
1.179589794897448655e+03 5.884196679111623366e-05
1.180490245122561191e+03 5.956079837320904074e-05
1.181390695347673727e+03 6.018033236160406875e-05
1.182291145572786263e+03 6.077682653564562626e-05
1.183191595797898799e+03 6.140550258650236256e-05
1.184092046023011562e+03 6.216587802121706439e-05
1.184992496248124098e+03 6.305974372530256911e-05
1.185892946473236634e+03 6.397423323278496755e-05
1.186793396698349170e+03 6.479791247836868531e-05
1.187693846923461706e+03 6.547203339439229899e-05
1.188594297148574242e+03 6.609557728588455147e-05
1.189494747373686778e+03 6.686481757282990038e-05
1.190395197598799314e+03 6.782171976018984416e-05
1.191295647823911850e+03 6.892545181215018770e-05
1.192196098049024386e+03 7.026947481465975888e-05
1.193096548274136921e+03 7.191315110694371736e-05
1.193996998499249457e+03 7.355391250038354140e-05
1.194897448724362221e+03 7.479321725965578217e-05
1.195797898949474757e+03 7.572722228069758005e-05
1.196698349174587293e+03 7.675189195196168270e-05
1.197598799399699828e+03 7.813518023116499040e-05
1.198499249624812364e+03 8.001353399455692756e-05
1.199399699849924900e+03 8.235329887769535456e-05
1.200300150075037436e+03 8.489244489836592306e-05
1.201200600300149972e+03 8.736662477855604281e-05
1.202101050525262508e+03 8.971899254299242664e-05
1.203001500750375044e+03 9.202938054353533202e-05
1.203901950975487580e+03 9.439253244132425255e-05
1.204802401200600343e+03 9.679423348312380770e-05
1.205702851425712879e+03 9.914691480024413067e-05
1.206603301650825415e+03 1.013300564811526615e-04
1.207503751875937951e+03 1.032316897978877699e-04
1.208404202101050487e+03 1.050098459972466326e-04
1.209304652326163023e+03 1.071985554166854214e-04
1.210205102551275559e+03 1.102824387677359423e-04
1.211105552776388095e+03 1.143457883694606598e-04
1.212006003001500630e+03 1.191260998949583781e-04
1.212906453226613166e+03 1.242894248267004858e-04
1.213806903451725702e+03 1.295054531941761166e-04
1.214707353676838466e+03 1.343390888945391389e-04
1.215607803901951002e+03 1.382850648575259880e-04
1.216508254127063537e+03 1.410571571151091324e-04
1.217408704352176073e+03 1.425440170483969376e-04
1.218309154577288609e+03 1.423563822859872394e-04
1.219209604802401145e+03 1.402136698886173225e-04
1.220110055027513681e+03 1.366476155944430369e-04
1.221010505252626217e+03 1.328012773923920335e-04
1.221910955477738753e+03 1.296154793931151010e-04
1.222811405702851289e+03 1.275769592236530490e-04
1.223711855927963825e+03 1.269498128652315127e-04
1.224612306153076588e+03 1.279088720030455996e-04
1.225512756378189124e+03 1.306644554436069356e-04
1.226413206603301660e+03 1.351727105854381192e-04
1.227313656828414196e+03 1.406529663955533244e-04
1.228214107053526732e+03 1.457867724019566204e-04
1.229114557278639268e+03 1.498420202256241197e-04
1.230015007503751804e+03 1.532607265798124083e-04
1.230915457728864340e+03 1.569001483248750521e-04
1.231815907953976875e+03 1.614081090884090521e-04
1.232716358179089411e+03 1.674629681478604683e-04
1.233616808404201947e+03 1.756898665556707033e-04
1.234517258629314711e+03 1.857933130579160583e-04
1.235417708854427246e+03 1.965632604012520156e-04
1.236318159079539782e+03 2.073256371206284019e-04
1.237218609304652318e+03 2.183247592996765112e-04
1.238119059529764854e+03 2.299042037828707725e-04
1.239019509754877390e+03 2.424687164629486173e-04
1.239919959979989926e+03 2.563030263329894886e-04
1.240820410205102462e+03 2.709919427025872648e-04
1.241720860430214998e+03 2.853275266845732203e-04
1.242621310655327534e+03 2.983251618804014455e-04
1.243521760880440070e+03 3.103028293438783334e-04
1.244422211105552606e+03 3.224330510532059414e-04
1.245322661330665369e+03 3.357031146786783045e-04
1.246223111555777905e+03 3.499731601466450821e-04
1.247123561780890441e+03 3.642516715377473453e-04
1.248024012006002977e+03 3.775974326378949883e-04
1.248924462231115513e+03 3.895733188506421158e-04
1.249824912456228049e+03 3.997772299684560935e-04
1.250725362681340584e+03 4.076975438176100807e-04
1.251625812906453120e+03 4.133407770890239305e-04
1.252526263131565656e+03 4.172109356537655103e-04
1.253426713356678192e+03 4.197125791698267175e-04
1.254327163581790728e+03 4.210731926539719840e-04
1.255227613806903491e+03 4.217486875556110252e-04
1.256128064032016027e+03 4.219087669501822633e-04
1.257028514257128563e+03 4.212163760484591095e-04
1.257928964482241099e+03 4.193999949562103981e-04
1.258829414707353635e+03 4.169797557067770428e-04
1.259729864932466171e+03 4.149556259724686844e-04
1.260630315157578707e+03 4.140321864477864051e-04
1.261530765382691243e+03 4.145960247611256443e-04
1.262431215607803779e+03 4.170268965946981451e-04
1.263331665832916315e+03 4.212945315006907986e-04
1.264232116058028851e+03 4.265914729367659033e-04
1.265132566283141614e+03 4.322390780916522918e-04
1.266033016508254150e+03 4.383835205147896706e-04
1.266933466733366686e+03 4.454986961384451295e-04
1.267833916958479222e+03 4.538110488615380617e-04
1.268734367183591758e+03 4.632705392495066487e-04
1.269634817408704293e+03 4.732970165069792876e-04
1.270535267633816829e+03 4.830349375770959003e-04
1.271435717858929365e+03 4.922181438320012096e-04
1.272336168084041901e+03 5.010092289092492627e-04
1.273236618309154437e+03 5.089412186747787562e-04
1.274137068534266973e+03 5.154272717746652150e-04
1.275037518759379736e+03 5.210298396621054718e-04
1.275937968984492272e+03 5.268481041686703340e-04
1.276838419209604808e+03 5.331140064278220387e-04
1.277738869434717344e+03 5.394826199660141637e-04
1.278639319659829880e+03 5.461247210242368890e-04
1.279539769884942416e+03 5.535472898319979650e-04
1.280440220110054952e+03 5.616702523820221900e-04
1.281340670335167488e+03 5.698702999776077398e-04
1.282241120560280024e+03 5.776994381803677355e-04
1.283141570785392560e+03 5.850410325495892291e-04
1.284042021010505096e+03 5.920628435644715009e-04
1.284942471235617859e+03 5.995851067831443112e-04
1.285842921460730395e+03 6.088171472837353333e-04
1.286743371685842931e+03 6.207375549001048183e-04
1.287643821910955467e+03 6.353085782531658465e-04
1.288544272136068003e+03 6.511210153066517275e-04
1.289444722361180538e+03 6.663533198459002617e-04
1.290345172586293074e+03 6.798252767729499402e-04
1.291245622811405610e+03 6.916070838073021428e-04
1.292146073036518146e+03 7.026920051207554774e-04
1.293046523261630682e+03 7.133614228011189067e-04
1.293946973486743218e+03 7.226283445973096789e-04
1.294847423711855754e+03 7.299999830347042584e-04
1.295747873936968517e+03 7.365953092196849501e-04
1.296648324162081053e+03 7.438289357468688603e-04
1.297548774387193589e+03 7.519069918360224859e-04
1.298449224612306125e+03 7.605040249874638753e-04
1.299349674837418661e+03 7.693734920915871588e-04
1.300250125062531197e+03 7.783521193122086091e-04
1.301150575287643733e+03 7.880426087339561202e-04
1.302051025512756269e+03 7.991347898925285111e-04
1.302951475737868805e+03 8.109495282803617748e-04
1.303851925962981340e+03 8.215232285709363766e-04
1.304752376188093876e+03 8.296737041032373671e-04
1.305652826413206640e+03 8.358591781851942414e-04
1.306553276638319176e+03 8.406377223632395188e-04
1.307453726863431712e+03 8.439090705353461189e-04
1.308354177088544247e+03 8.464644460856852147e-04
1.309254627313656783e+03 8.502341769007266568e-04
1.310155077538769319e+03 8.570441363956946002e-04
1.311055527763881855e+03 8.676220822994167069e-04
1.311955977988994391e+03 8.811707133543457762e-04
1.312856428214106927e+03 8.967989286449410844e-04
1.313756878439219463e+03 9.153341901660795674e-04
1.314657328664331999e+03 9.377579763264137043e-04
1.315557778889444762e+03 9.644687702880886402e-04
1.316458229114557298e+03 9.959782423913357465e-04
1.317358679339669834e+03 1.032525000509502012e-03
1.318259129564782370e+03 1.072785933572973629e-03
1.319159579789894906e+03 1.113546319205228419e-03
1.320060030015007442e+03 1.152527666805721511e-03
1.320960480240119978e+03 1.190333169912641265e-03
1.321860930465232514e+03 1.228491996798817491e-03
1.322761380690345050e+03 1.268711394466108490e-03
1.323661830915457585e+03 1.312234125955659110e-03
1.324562281140570121e+03 1.359153107199079355e-03
1.325462731365682885e+03 1.408472742019568208e-03
1.326363181590795421e+03 1.458063566303144029e-03
1.327263631815907956e+03 1.506325612773191328e-03
1.328164082041020492e+03 1.554194077253983003e-03
1.329064532266133028e+03 1.604208786778216125e-03
1.329964982491245564e+03 1.659176116270955808e-03
1.330865432716358100e+03 1.719582331501113550e-03
1.331765882941470636e+03 1.781936784407353114e-03
1.332666333166583172e+03 1.843703468816377568e-03
1.333566783391695708e+03 1.908049471775863370e-03
1.334467233616808244e+03 1.978880004767003768e-03
1.335367683841921007e+03 2.053015599913733322e-03
1.336268134067033543e+03 2.123481850319876990e-03
1.337168584292146079e+03 2.189144474666054798e-03
1.338069034517258615e+03 2.254757378691890374e-03
1.338969484742371151e+03 2.322815511787074735e-03
1.339869934967483687e+03 2.391726605805619046e-03
1.340770385192596223e+03 2.463584090876502070e-03
1.341670835417708759e+03 2.545429920035653226e-03
1.342571285642821294e+03 2.639946446077032736e-03
1.343471735867933830e+03 2.744025543072825188e-03
1.344372186093046366e+03 2.854172336849223734e-03
1.345272636318158902e+03 2.969763405364147027e-03
1.346173086543271666e+03 3.093618001687245198e-03
1.347073536768384201e+03 3.228407247371688649e-03
1.347973986993496737e+03 3.372954695235586605e-03
1.348874437218609273e+03 3.521549176711272471e-03
1.349774887443721809e+03 3.667023251705379353e-03
1.350675337668834345e+03 3.807493514202800466e-03
1.351575787893946881e+03 3.950815838387063648e-03
1.352476238119059417e+03 4.113521054342514187e-03
1.353376688344171953e+03 4.306574976056138336e-03
1.354277138569284489e+03 4.524125795862893318e-03
1.355177588794397025e+03 4.750773436778813440e-03
1.356078039019509788e+03 4.969900760227117555e-03
1.356978489244622324e+03 5.169775873153785971e-03
1.357878939469734860e+03 5.353301987415817059e-03
1.358779389694847396e+03 5.535810270354570711e-03
1.359679839919959932e+03 5.729175611944801669e-03
1.360580290145072468e+03 5.938582006564795991e-03
1.361480740370185003e+03 6.169176006526322191e-03
1.362381190595297539e+03 6.419846817190104533e-03
1.363281640820410075e+03 6.678162662155201837e-03
1.364182091045522611e+03 6.935573770148065545e-03
1.365082541270635147e+03 7.206829364488524098e-03
1.365982991495747910e+03 7.517837734942631363e-03
1.366883441720860446e+03 7.887219795172355913e-03
1.367783891945972982e+03 8.334589967178011177e-03
1.368684342171085518e+03 8.873561666053721153e-03
1.369584792396198054e+03 9.493239492734216814e-03
1.370485242621310590e+03 1.016938117941538523e-02
1.371385692846423126e+03 1.089489961284168841e-02
1.372286143071535662e+03 1.169610333126443191e-02
1.373186593296648198e+03 1.261543327950753746e-02
1.374087043521760734e+03 1.365535859400664707e-02
1.374987493746873270e+03 1.473631626383426797e-02
1.375887943971986033e+03 1.577412797418770163e-02
1.376788394197098569e+03 1.679122250923446857e-02
1.377688844422211105e+03 1.787197951611192021e-02
1.378589294647323641e+03 1.905149156504018504e-02
1.379489744872436177e+03 2.035291297840230093e-02
1.380390195097548713e+03 2.184826887462538308e-02
1.381290645322661248e+03 2.360163192111442224e-02
1.382191095547773784e+03 2.561576033688761633e-02
1.383091545772886320e+03 2.784879360734428613e-02
1.383991995997998856e+03 3.023868754637616674e-02
1.384892446223111392e+03 3.272104397312640411e-02
1.385792896448224155e+03 3.521782933411445743e-02
1.386693346673336691e+03 3.763856976304151558e-02
1.387593796898449227e+03 4.000515710974122258e-02
1.388494247123561763e+03 4.254215731826044289e-02
1.389394697348674299e+03 4.551963252340718302e-02
1.390295147573786835e+03 4.899408934766953660e-02
1.391195597798899371e+03 5.267387535386715974e-02
1.392096048024011907e+03 5.614579617239419396e-02
1.392996498249124443e+03 5.923052910396365417e-02
1.393896948474236979e+03 6.183070811881853646e-02
1.394797398699349515e+03 6.365681511652375446e-02
1.395697848924462278e+03 6.448005638029334630e-02
1.396598299149574814e+03 6.438389284574731752e-02
1.397498749374687350e+03 6.350326762089895938e-02
1.398399199599799886e+03 6.177006466312231353e-02
1.399299649824912422e+03 5.908305976004574189e-02
1.400200100050024957e+03 5.558692531645591933e-02
1.401100550275137493e+03 5.153745580860136233e-02
1.402001000500250029e+03 4.710132056206893514e-02
1.402901450725362565e+03 4.236531676836922944e-02
1.403801900950475101e+03 3.749094936040121839e-02
1.404702351175587637e+03 3.272476393769196967e-02
1.405602801400700173e+03 2.832005452609438062e-02
1.406503251625812936e+03 2.447089061743238855e-02
1.407403701850925472e+03 2.125599757043247079e-02
1.408304152076038008e+03 1.861307312365347022e-02
1.409204602301150544e+03 1.640824100930713195e-02
1.410105052526263080e+03 1.452960234224505952e-02
1.411005502751375616e+03 1.291550954625601301e-02
1.411905952976488152e+03 1.153847988730837340e-02
1.412806403201600688e+03 1.036968653183603130e-02
1.413706853426713224e+03 9.366620828505738822e-03
1.414607303651825760e+03 8.499015324410694877e-03
1.415507753876938295e+03 7.748090856604072409e-03
1.416408204102051059e+03 7.089716960388577072e-03
1.417308654327163595e+03 6.502398807149548099e-03
1.418209104552276131e+03 5.978448133954420395e-03
1.419109554777388666e+03 5.521996267312863187e-03
1.420010005002501202e+03 5.135311614378141286e-03
1.420910455227613738e+03 4.806775123753791179e-03
1.421810905452726274e+03 4.515842266146140663e-03
1.422711355677838810e+03 4.252674275565462500e-03
1.423611805902951346e+03 4.020077879008918109e-03
1.424512256128063882e+03 3.816080212497509078e-03
1.425412706353176418e+03 3.631341769947000857e-03
1.426313156578289181e+03 3.460296346273511892e-03
1.427213606803401717e+03 3.299692418579319979e-03
1.428114057028514253e+03 3.145772545647854395e-03
1.429014507253626789e+03 2.999685403825995845e-03
1.429914957478739325e+03 2.862442725444730093e-03
1.430815407703851861e+03 2.730015574111589564e-03
1.431715857928964397e+03 2.600156686814690359e-03
1.432616308154076933e+03 2.475980663646257327e-03
1.433516758379189469e+03 2.362263259497732627e-03
1.434417208604302004e+03 2.261403076963930392e-03
1.435317658829414540e+03 2.171123407529693648e-03
1.436218109054527304e+03 2.086036072458134858e-03
1.437118559279639840e+03 2.001591539229036036e-03
1.438019009504752376e+03 1.916407106253329665e-03
1.438919459729864911e+03 1.834214244761666474e-03
1.439819909954977447e+03 1.761702899783244196e-03
1.440720360180089983e+03 1.701182136454053653e-03
1.441620810405202519e+03 1.649422082973780188e-03
1.442521260630315055e+03 1.603843316386753580e-03
1.443421710855427591e+03 1.564479379986796282e-03
1.444322161080540127e+03 1.530445499234653253e-03
1.445222611305652663e+03 1.497882764234588666e-03
1.446123061530765426e+03 1.462172025801625024e-03
1.447023511755877962e+03 1.423487301843273222e-03
1.447923961980990498e+03 1.385773531134013806e-03
1.448824412206103034e+03 1.349934259635485754e-03
1.449724862431215570e+03 1.312715880613274681e-03
1.450625312656328106e+03 1.272679358411424322e-03
1.451525762881440642e+03 1.233350457104871777e-03
1.452426213106553178e+03 1.198308187979478480e-03
1.453326663331665713e+03 1.168100654403914996e-03
1.454227113556778249e+03 1.140554724556851153e-03
1.455127563781890785e+03 1.113796401683221204e-03
1.456028014007003321e+03 1.087978093035680367e-03
1.456928464232116085e+03 1.063224121325056755e-03
1.457828914457228620e+03 1.038206428784222823e-03
1.458729364682341156e+03 1.012274856563940943e-03
1.459629814907453692e+03 9.863935368036838743e-04
1.460530265132566228e+03 9.599039501247922258e-04
1.461430715357678764e+03 9.320714136861003776e-04
1.462331165582791300e+03 9.047014669856296874e-04
1.463231615807903836e+03 8.793470335910692120e-04
1.464132066033016372e+03 8.568997053059614717e-04
1.465032516258128908e+03 8.381293163877902731e-04
1.465932966483241444e+03 8.222045300972031026e-04
1.466833416708354207e+03 8.072449122031282853e-04
1.467733866933466743e+03 7.933932146672291810e-04
1.468634317158579279e+03 7.824083666802720367e-04
1.469534767383691815e+03 7.739088013133349313e-04
1.470435217608804351e+03 7.650755832304310076e-04
1.471335667833916887e+03 7.546379752189647785e-04
1.472236118059029423e+03 7.426462500868205195e-04
1.473136568284141958e+03 7.287820893322985872e-04
1.474037018509254494e+03 7.135140585116638836e-04
1.474937468734367030e+03 6.985026445489922377e-04
1.475837918959479566e+03 6.846306885034350196e-04
1.476738369184592329e+03 6.712964117687111876e-04
1.477638819409704865e+03 6.583155377490030160e-04
1.478539269634817401e+03 6.453279551450693836e-04
1.479439719859929937e+03 6.314750257936733438e-04
1.480340170085042473e+03 6.174196962658644273e-04
1.481240620310155009e+03 6.052159174991392568e-04
1.482141070535267545e+03 5.959777258566608315e-04
1.483041520760380081e+03 5.888326814965306110e-04
1.483941970985492617e+03 5.824680431583687456e-04
1.484842421210605153e+03 5.762736130046846412e-04
1.485742871435717689e+03 5.692372106941791157e-04
1.486643321660830452e+03 5.606848559181139323e-04
1.487543771885942988e+03 5.517867925383904571e-04
1.488444222111055524e+03 5.432896551540237736e-04
1.489344672336168060e+03 5.341299435807080834e-04
1.490245122561280596e+03 5.240495322766725635e-04
1.491145572786393132e+03 5.142324588191159391e-04
1.492046023011505667e+03 5.053570491185272861e-04
1.492946473236618203e+03 4.973175328206148275e-04
1.493846923461730739e+03 4.900971048471786757e-04
1.494747373686843275e+03 4.840575626034464458e-04
1.495647823911955811e+03 4.788685086015807965e-04
1.496548274137068574e+03 4.735221234426676925e-04
1.497448724362181110e+03 4.680201303689193086e-04
1.498349174587293646e+03 4.635361965795284952e-04
1.499249624812406182e+03 4.608385518004865238e-04
1.500150075037518718e+03 4.593955557606935712e-04
1.501050525262631254e+03 4.577909178530916194e-04
1.501950975487743790e+03 4.545548246072917092e-04
1.502851425712856326e+03 4.493693858437736795e-04
1.503751875937968862e+03 4.427706424938248979e-04
1.504652326163081398e+03 4.349636108579122838e-04
1.505552776388193934e+03 4.261887026498839483e-04
1.506453226613306470e+03 4.173617185511168184e-04
1.507353676838419233e+03 4.099860269063127774e-04
1.508254127063531769e+03 4.050850103645161726e-04
1.509154577288644305e+03 4.017003611116881927e-04
1.510055027513756841e+03 3.976732054409984948e-04
1.510955477738869376e+03 3.919733708948678198e-04
1.511855927963981912e+03 3.851197349147673444e-04
1.512756378189094448e+03 3.784434578020059482e-04
1.513656828414206984e+03 3.729999005395680982e-04
1.514557278639319520e+03 3.687016514248197185e-04
1.515457728864432056e+03 3.645455434143661587e-04
1.516358179089544592e+03 3.595524772345993483e-04
1.517258629314657355e+03 3.533561081582119699e-04
1.518159079539769891e+03 3.465483938394233300e-04
1.519059529764882427e+03 3.406142621720352091e-04
1.519959979989994963e+03 3.368422697152131744e-04
1.520860430215107499e+03 3.351611764467513055e-04
1.521760880440220035e+03 3.344982823160910453e-04
1.522661330665332571e+03 3.341552174734725407e-04
1.523561780890445107e+03 3.336969003439578876e-04
1.524462231115557643e+03 3.325297089110619336e-04
1.525362681340670179e+03 3.304743473516957267e-04
1.526263131565782714e+03 3.281969728644982165e-04
1.527163581790895478e+03 3.264272820513896872e-04
1.528064032016008014e+03 3.252223650583864175e-04
1.528964482241120550e+03 3.237923430584615137e-04
1.529864932466233086e+03 3.213364996814639858e-04
1.530765382691345621e+03 3.180843480365412633e-04
1.531665832916458157e+03 3.146683383768260605e-04
1.532566283141570693e+03 3.118596770220489881e-04
1.533466733366683229e+03 3.105951977241905261e-04
1.534367183591795765e+03 3.106803553735580279e-04
1.535267633816908301e+03 3.108719323726750507e-04
1.536168084042020837e+03 3.102943620471802343e-04
1.537068534267133600e+03 3.090334334905174151e-04
1.537968984492246136e+03 3.080017749879137082e-04
1.538869434717358672e+03 3.078452470246473239e-04
1.539769884942471208e+03 3.083155577689996392e-04
1.540670335167583744e+03 3.086322968663206788e-04
1.541570785392696280e+03 3.085062628267765139e-04
1.542471235617808816e+03 3.083985868840916013e-04
1.543371685842921352e+03 3.085699320668422929e-04
1.544272136068033888e+03 3.088125102486145705e-04
1.545172586293146423e+03 3.091929716776156104e-04
1.546073036518258959e+03 3.096751409594671132e-04
1.546973486743371723e+03 3.093102643457352747e-04
1.547873936968484259e+03 3.072519718305543202e-04
1.548774387193596795e+03 3.043215632827119530e-04
1.549674837418709330e+03 3.022392728567829486e-04
1.550575287643821866e+03 3.015264978839986634e-04
1.551475737868934402e+03 3.015571385080551090e-04
1.552376188094046938e+03 3.020709665748472195e-04
1.553276638319159474e+03 3.033929437037569425e-04
1.554177088544272010e+03 3.053341969765150559e-04
1.555077538769384546e+03 3.070435660093920869e-04
1.555977988994497082e+03 3.083535097208018423e-04
1.556878439219609618e+03 3.103176692893659032e-04
1.557778889444722381e+03 3.144299514566967625e-04
1.558679339669834917e+03 3.220457546143687378e-04
1.559579789894947453e+03 3.336130701625711933e-04
1.560480240120059989e+03 3.491136115581765123e-04
1.561380690345172525e+03 3.684612057428258741e-04
1.562281140570285061e+03 3.903002918618146645e-04
1.563181590795397597e+03 4.125181007418001118e-04
1.564082041020510133e+03 4.342128483572601561e-04
1.564982491245622668e+03 4.558286844251442996e-04
1.565882941470735204e+03 4.765557145352779852e-04
1.566783391695847740e+03 4.912714005840468834e-04
1.567683841920960504e+03 4.925253173136670461e-04
1.568584292146073039e+03 4.767591734142034550e-04
1.569484742371185575e+03 4.454691087642729651e-04
1.570385192596298111e+03 4.012687310679543097e-04
1.571285642821410647e+03 3.490046198292865104e-04
1.572186093046523183e+03 2.971074575545099732e-04
1.573086543271635719e+03 2.522970027711666108e-04
1.573986993496748255e+03 2.162150525322396964e-04
1.574887443721860791e+03 1.873383185797787966e-04
1.575787893946973327e+03 1.638274578769531109e-04
1.576688344172085863e+03 1.446335722273818210e-04
1.577588794397198626e+03 1.290958288764139806e-04
1.578489244622311162e+03 1.166458773162300992e-04
1.579389694847423698e+03 1.067431727850876066e-04
1.580290145072536234e+03 9.884935996844493257e-05
1.581190595297648770e+03 9.247919680289501876e-05
1.582091045522761306e+03 8.724950621362209061e-05
1.582991495747873842e+03 8.287943063069155077e-05
1.583891945972986377e+03 7.916759626335890100e-05
1.584792396198098913e+03 7.596892579643833312e-05
1.585692846423211449e+03 7.317729783515461797e-05
1.586593296648323985e+03 7.071367238760865686e-05
1.587493746873436749e+03 6.851811964336621539e-05
1.588394197098549284e+03 6.654443993940820502e-05
1.589294647323661820e+03 6.475647839664654441e-05
1.590195097548774356e+03 6.312555516356716575e-05
1.591095547773886892e+03 6.162864095519893692e-05
1.591995997998999428e+03 6.024703925064468698e-05
1.592896448224111964e+03 5.896541910237033685e-05
1.593796898449224500e+03 5.777109476327758078e-05
1.594697348674337036e+03 5.665348187957404587e-05
1.595597798899449572e+03 5.560368188956957877e-05
1.596498249124562108e+03 5.461416080219325944e-05
1.597398699349674871e+03 5.367849833890899424e-05
1.598299149574787407e+03 5.279119014952137596e-05
1.599199599799899943e+03 5.194749049401801712e-05
1.600100050025012479e+03 5.114328608640131502e-05
1.601000500250125015e+03 5.037499415826495684e-05
1.601900950475237551e+03 4.963947950871333163e-05
1.602801400700350086e+03 4.893398655757326562e-05
1.603701850925462622e+03 4.825608334333523759e-05
1.604602301150575158e+03 4.760361509756718453e-05
1.605502751375687694e+03 4.697466554763337043e-05
1.606403201600800230e+03 4.636752449489834412e-05
1.607303651825912766e+03 4.578066051842046843e-05
1.608204102051025529e+03 4.521269788795977010e-05
1.609104552276138065e+03 4.466239695188993090e-05
1.610005002501250601e+03 4.412863740791276895e-05
1.610905452726363137e+03 4.361040397654742225e-05
1.611805902951475673e+03 4.310677408623386385e-05
1.612706353176588209e+03 4.261690724967943532e-05
1.613606803401700745e+03 4.214003586786098816e-05
1.614507253626813281e+03 4.167545724380097150e-05
1.615407703851925817e+03 4.122252662527341118e-05
1.616308154077038353e+03 4.078065112569386857e-05
1.617208604302150889e+03 4.034928439708239102e-05
1.618109054527263652e+03 3.992792194914663673e-05
1.619009504752376188e+03 3.951609702521061205e-05
1.619909954977488724e+03 3.911337695946004873e-05
1.620810405202601260e+03 3.871935995141140974e-05
1.621710855427713796e+03 3.833367220305043861e-05
1.622611305652826331e+03 3.795596537204829678e-05
1.623511755877938867e+03 3.758591430114981185e-05
1.624412206103051403e+03 3.722321498947600934e-05
1.625312656328163939e+03 3.686758277621224127e-05
1.626213106553276475e+03 3.651875071121404322e-05
1.627113556778389011e+03 3.617646809045801704e-05
1.628014007003501774e+03 3.584049913719665806e-05
1.628914457228614310e+03 3.551062181216957522e-05
1.629814907453726846e+03 3.518662673833458876e-05
1.630715357678839382e+03 3.486831622745395720e-05
1.631615807903951918e+03 3.455550339740094315e-05
1.632516258129064454e+03 3.424801137045531928e-05
1.633416708354176990e+03 3.394567254400133284e-05
1.634317158579289526e+03 3.364832792608216311e-05
1.635217608804402062e+03 3.335582652913533048e-05
1.636118059029514598e+03 3.306802481601983353e-05
1.637018509254627133e+03 3.278478619310338642e-05
1.637918959479739897e+03 3.250598054577874958e-05
1.638819409704852433e+03 3.223148381227968498e-05
1.639719859929964969e+03 3.196117759213179738e-05
1.640620310155077505e+03 3.169494878596119925e-05
1.641520760380190040e+03 3.143268926373373498e-05
1.642421210605302576e+03 3.117429555881242659e-05
1.643321660830415112e+03 3.091966858548245519e-05
1.644222111055527648e+03 3.066871337784418151e-05
1.645122561280640184e+03 3.042133884817863746e-05
1.646023011505752720e+03 3.017745756308687574e-05
1.646923461730865256e+03 2.993698553587007520e-05
1.647823911955978019e+03 2.969984203376208076e-05
1.648724362181090555e+03 2.946594939877114733e-05
1.649624812406203091e+03 2.923523288099500611e-05
1.650525262631315627e+03 2.900762048338641704e-05
1.651425712856428163e+03 2.878304281704289900e-05
1.652326163081540699e+03 2.856143296617406208e-05
1.653226613306653235e+03 2.834272636198324679e-05
1.654127063531765771e+03 2.812686066476395981e-05
1.655027513756878307e+03 2.791377565357738676e-05
1.655927963981990843e+03 2.770341312293218063e-05
1.656828414207103378e+03 2.749571678593599875e-05
1.657728864432216142e+03 2.729063218343688395e-05
1.658629314657328678e+03 2.708810659871274212e-05
1.659529764882441214e+03 2.688808897730443067e-05
1.660430215107553749e+03 2.669052985161861151e-05
1.661330665332666285e+03 2.649538126996504175e-05
1.662231115557778821e+03 2.630259672971145416e-05
1.663131565782891357e+03 2.611213111427105503e-05
1.664032016008003893e+03 2.592394063365801628e-05
1.664932466233116429e+03 2.573798276836610803e-05
1.665832916458228965e+03 2.555421621634907119e-05
1.666733366683341501e+03 2.537260084289388176e-05
1.667633816908454037e+03 2.519309763319540671e-05
1.668534267133566800e+03 2.501566864745860262e-05
1.669434717358679336e+03 2.484027697836159511e-05
1.670335167583791872e+03 2.466688671073223496e-05
1.671235617808904408e+03 2.449546288329552097e-05
1.672136068034016944e+03 2.432597145236370652e-05
1.673036518259129480e+03 2.415837925734831630e-05
1.673936968484242016e+03 2.399265398798304771e-05
1.674837418709354552e+03 2.382876415315278559e-05
1.675737868934467087e+03 2.366667905123313084e-05
1.676638319159579623e+03 2.350636874185183642e-05
1.677538769384692159e+03 2.334780401898555699e-05
1.678439219609804923e+03 2.319095638531696655e-05
1.679339669834917459e+03 2.303579802777948747e-05
1.680240120060029994e+03 2.288230179421997765e-05
1.681140570285142530e+03 2.273044117111907043e-05
1.682041020510255066e+03 2.258019026230735423e-05
1.682941470735367602e+03 2.243152376862403216e-05
1.683841920960480138e+03 2.228441696846660607e-05
1.684742371185592674e+03 2.213884569918245722e-05
1.685642821410705210e+03 2.199478633925670221e-05
1.686543271635817746e+03 2.185221579125674752e-05
1.687443721860930282e+03 2.171111146548933426e-05
1.688344172086043045e+03 2.157145126433655783e-05
1.689244622311155581e+03 2.143321356723585614e-05
1.690145072536268117e+03 2.129637721626743570e-05
1.691045522761380653e+03 2.116092150232265389e-05
1.691945972986493189e+03 2.102682615182167500e-05
1.692846423211605725e+03 2.089407131395425038e-05
1.693746873436718261e+03 2.076263754841732074e-05
1.694647323661830796e+03 2.063250581362516118e-05
1.695547773886943332e+03 2.050365745537103540e-05
1.696448224112055868e+03 2.037607419591437558e-05
1.697348674337168404e+03 2.024973812347987103e-05
1.698249124562281168e+03 2.012463168214303753e-05
1.699149574787393703e+03 2.000073766208791887e-05
1.700050025012506239e+03 1.987803919021805186e-05
1.700950475237618775e+03 1.975651972110619033e-05
1.701850925462731311e+03 1.963616302826528507e-05
1.702751375687843847e+03 1.951695319572921005e-05
1.703651825912956383e+03 1.939887460992597261e-05
1.704552276138068919e+03 1.928191195183381228e-05
1.705452726363181455e+03 1.916605018940554478e-05
1.706353176588293991e+03 1.905127457025197611e-05
1.707253626813406527e+03 1.893757061456929940e-05
1.708154077038519290e+03 1.882492410830543305e-05
1.709054527263631826e+03 1.871332109655007031e-05
1.709954977488744362e+03 1.860274787714317877e-05
1.710855427713856898e+03 1.849319099448980312e-05
1.711755877938969434e+03 1.838463723357570625e-05
1.712656328164081970e+03 1.827707361417250175e-05
1.713556778389194506e+03 1.817048738522720580e-05
1.714457228614307041e+03 1.806486601942838195e-05
1.715357678839419577e+03 1.796019720793951723e-05
1.716258129064532113e+03 1.785646885529673962e-05
1.717158579289644649e+03 1.775366907446275210e-05
1.718059029514757185e+03 1.765178618202872647e-05
1.718959479739869948e+03 1.755080869356349273e-05
1.719859929964982484e+03 1.745072531909958196e-05
1.720760380190095020e+03 1.735152495875354753e-05
1.721660830415207556e+03 1.725319669847506597e-05
1.722561280640320092e+03 1.715572980592043633e-05
1.723461730865432628e+03 1.705911372644426782e-05
1.724362181090545164e+03 1.696333807920683828e-05
1.725262631315657700e+03 1.686839265339307460e-05
1.726163081540770236e+03 1.677426740453601979e-05
1.727063531765882772e+03 1.668095245094683982e-05
1.727963981990995308e+03 1.658843807024091449e-05
1.728864432216108071e+03 1.649671469596187919e-05
1.729764882441220607e+03 1.640577291429760366e-05
1.730665332666333143e+03 1.631560346088569869e-05
1.731565782891445679e+03 1.622619721770512542e-05
1.732466233116558215e+03 1.613754521005170836e-05
1.733366683341670750e+03 1.604963860359338130e-05
1.734267133566783286e+03 1.596246870150455966e-05
1.735167583791895822e+03 1.587602694167430971e-05
1.736068034017008358e+03 1.579030489398922278e-05
1.736968484242120894e+03 1.570529425768407570e-05
1.737868934467233430e+03 1.562098685876396739e-05
1.738769384692346193e+03 1.553737464748908840e-05
1.739669834917458729e+03 1.545444969592575890e-05
1.740570285142571265e+03 1.537220419555790761e-05
1.741470735367683801e+03 1.529063045495917452e-05
1.742371185592796337e+03 1.520972089752202062e-05
1.743271635817908873e+03 1.512946805924429025e-05
1.744172086043021409e+03 1.504986458656919573e-05
1.745072536268133945e+03 1.497090323427829244e-05
1.745972986493246481e+03 1.489257686343559259e-05
1.746873436718359017e+03 1.481487843938161508e-05
1.747773886943471553e+03 1.473780102977503512e-05
1.748674337168584316e+03 1.466133780268110368e-05
1.749574787393696852e+03 1.458548202470584056e-05
1.750475237618809388e+03 1.451022705917313143e-05
1.751375687843921924e+03 1.443556636434558253e-05
1.752276138069034459e+03 1.436149349168598218e-05
1.753176588294146995e+03 1.428800208415953334e-05
1.754077038519259531e+03 1.421508587457451774e-05
1.754977488744372067e+03 1.414273868396146621e-05
1.755877938969484603e+03 1.407095441998896303e-05
1.756778389194597139e+03 1.399972707541505805e-05
1.757678839419709675e+03 1.392905072657388129e-05
1.758579289644822438e+03 1.385891953189584598e-05
1.759479739869934974e+03 1.378932773046062483e-05
1.760380190095047510e+03 1.372026964058256612e-05
1.761280640320160046e+03 1.365173965842687047e-05
1.762181090545272582e+03 1.358373225665581375e-05
1.763081540770385118e+03 1.351624198310529531e-05
1.763981990995497654e+03 1.344926345948925198e-05
1.764882441220610190e+03 1.338279138013183440e-05
1.765782891445722726e+03 1.331682051072789627e-05
1.766683341670835262e+03 1.325134568712853376e-05
1.767583791895947797e+03 1.318636181415312179e-05
1.768484242121060333e+03 1.312186386442627684e-05
1.769384692346173097e+03 1.305784687723938025e-05
1.770285142571285633e+03 1.299430595743585748e-05
1.771185592796398169e+03 1.293123627431863436e-05
1.772086043021510704e+03 1.286863306058250285e-05
1.772986493246623240e+03 1.280649161126600252e-05
1.773886943471735776e+03 1.274480728272601088e-05
1.774787393696848312e+03 1.268357549163345033e-05
1.775687843921960848e+03 1.262279171398851073e-05
1.776588294147073384e+03 1.256245148415692236e-05
1.777488744372185920e+03 1.250255039392397434e-05
1.778389194597298456e+03 1.244308409156951057e-05
1.779289644822411219e+03 1.238404828095919212e-05
1.780190095047523755e+03 1.232543872065605966e-05
1.781090545272636291e+03 1.226725122304757280e-05
1.781990995497748827e+03 1.220948165349112325e-05
1.782891445722861363e+03 1.215212592947566873e-05
1.783791895947973899e+03 1.209518001980005680e-05
1.784692346173086435e+03 1.203863994376692732e-05
1.785592796398198971e+03 1.198250177039282880e-05
1.786493246623311506e+03 1.192676161763262253e-05
1.787393696848424042e+03 1.187141565161937048e-05
1.788294147073536578e+03 1.181646008591871418e-05
1.789194597298649342e+03 1.176189118079720600e-05
1.790095047523761878e+03 1.170770524250463164e-05
1.790995497748874413e+03 1.165389862256944819e-05
1.791895947973986949e+03 1.160046771710833365e-05
1.792796398199099485e+03 1.154740896614763561e-05
1.793696848424212021e+03 1.149471885295787104e-05
1.794597298649324557e+03 1.144239390340100100e-05
1.795497748874437093e+03 1.139043068528920295e-05
1.796398199099549629e+03 1.133882580775519328e-05
1.797298649324662165e+03 1.128757592063480126e-05
1.798199099549774701e+03 1.123667771386073907e-05
1.799099549774887464e+03 1.118612791686647021e-05
1.800000000000000000e+03 1.113592329800222430e-05
