0.000000000000000000e+00 9.981651031632239168e-04
9.004502251125562351e-01 1.312254079901569847e-03
1.800900450225112470e+00 1.740767621399418518e-03
2.701350675337668594e+00 2.267592839211719780e-03
3.601800900450224940e+00 2.767576050561627258e-03
4.502251125562780842e+00 3.048820289327570411e-03
5.402701350675337189e+00 3.100662101104284356e-03
6.303151575787893535e+00 3.065663862708155937e-03
7.203601800900449881e+00 2.922965489866191473e-03
8.104052026013006227e+00 2.558394281309828155e-03
9.004502251125561685e+00 2.050077015519010965e-03
9.904952476238118919e+00 1.568486334980959867e-03
1.080540270135067438e+01 1.189571418759070983e-03
1.170585292646323161e+01 9.122270719910229985e-04
1.260630315157578707e+01 7.130584525191748305e-04
1.350675337668834430e+01 5.691289778958958951e-04
1.440720360180089976e+01 4.633192632582854649e-04
1.530765382691345522e+01 3.839378484409840752e-04
1.620810405202601245e+01 3.231970468957683583e-04
1.710855427713856969e+01 2.759045297213447438e-04
1.800900450225112337e+01 2.385546789866342036e-04
1.890945472736368060e+01 2.087397130214221192e-04
1.980990495247623784e+01 1.847376945901684528e-04
2.071035517758879507e+01 1.651467519795102030e-04
2.161080540270134875e+01 1.486034812448543238e-04
2.251125562781390599e+01 1.339333636249237709e-04
2.341170585292646322e+01 1.206249044921145366e-04
2.431215607803901690e+01 1.087704500700450386e-04
2.521260630315157414e+01 9.848381783169338427e-05
2.611305652826413137e+01 8.964825441246566950e-05
2.701350675337668861e+01 8.204011245969768953e-05
2.791395697848924229e+01 7.544429871853930263e-05
2.881440720360179952e+01 6.968759900818357559e-05
2.971485742871435676e+01 6.463756006275569175e-05
3.061530765382691044e+01 6.019340296393829758e-05
3.151575787893946767e+01 5.627306336698772456e-05
3.241620810405202491e+01 5.279199484369987496e-05
3.331665832916458214e+01 4.964709675359673958e-05
3.421710855427713938e+01 4.675535897123771299e-05
3.511755877938969661e+01 4.410599772953931918e-05
3.601800900450224674e+01 4.170029801696457141e-05
3.691845922961480397e+01 3.947406704060143855e-05
3.781890945472736121e+01 3.735666069878975200e-05
3.871935967983991844e+01 3.536948904378771108e-05
3.961980990495247568e+01 3.357334704917311655e-05
4.052026013006503291e+01 3.198823152162921259e-05
4.142071035517759015e+01 3.057984674299428984e-05
4.232116058029014027e+01 2.925551426196260768e-05
4.322161080540269751e+01 2.791457503256499173e-05
4.412206103051525474e+01 2.655876879598471067e-05
4.502251125562781198e+01 2.526576843336500062e-05
4.592296148074036921e+01 2.408317288202791712e-05
4.682341170585292645e+01 2.301427669002826715e-05
4.772386193096548368e+01 2.204620246256097698e-05
4.862431215607803381e+01 2.116569305919275334e-05
4.952476238119059104e+01 2.036326151824728521e-05
5.042521260630314828e+01 1.963363073303672898e-05
5.132566283141570551e+01 1.897572030552056583e-05
5.222611305652826275e+01 1.839286129413032205e-05
5.312656328164081998e+01 1.789245074557264568e-05
5.402701350675337721e+01 1.748143887914349769e-05
5.492746373186592734e+01 1.714877232013369780e-05
5.582791395697848458e+01 1.683327658352053109e-05
5.672836418209104181e+01 1.643099162305445204e-05
5.762881440720359905e+01 1.589071202503437351e-05
5.852926463231615628e+01 1.527039685784631326e-05
5.942971485742871351e+01 1.467123657034922292e-05
6.033016508254127075e+01 1.415453958713864605e-05
6.123061530765382088e+01 1.373488568068243087e-05
6.213106553276637811e+01 1.340473719780314383e-05
6.303151575787893535e+01 1.313868390835394008e-05
6.393196598299149258e+01 1.289140780127402084e-05
6.483241620810404982e+01 1.262602421506167519e-05
6.573286643321659994e+01 1.232307734618272576e-05
6.663331665832916428e+01 1.195982146671864983e-05
6.753376688344171441e+01 1.155421881367498511e-05
6.843421710855427875e+01 1.116586768457775120e-05
6.933466733366682888e+01 1.083585935165791878e-05
7.023511755877939322e+01 1.057574262955133689e-05
7.113556778389194335e+01 1.038522543519004301e-05
7.203601800900449348e+01 1.025638890671444938e-05
7.293646823411705782e+01 1.016137750162309209e-05
7.383691845922960795e+01 1.005500681449379630e-05
7.473736868434217229e+01 9.921994434944368858e-06
7.563781890945472242e+01 9.771734576489829024e-06
7.653826913456728676e+01 9.570257200748873101e-06
7.743871935967983688e+01 9.287786889810355169e-06
7.833916958479238701e+01 8.974813753588865189e-06
7.923961980990495135e+01 8.698888982349795704e-06
8.014007003501750148e+01 8.488875996149613875e-06
8.104052026013006582e+01 8.350337416470606110e-06
8.194097048524261595e+01 8.285143177123546442e-06
8.284142071035518029e+01 8.291909461823478321e-06
8.374187093546773042e+01 8.346389693220022764e-06
8.464232116058028055e+01 8.380912250221388848e-06
8.554277138569284489e+01 8.327026932575989955e-06
8.644322161080539502e+01 8.178503340202813958e-06
8.734367183591795936e+01 7.950821503195674709e-06
8.824412206103050949e+01 7.668046628204185181e-06
8.914457228614307382e+01 7.387012643745804863e-06
9.004502251125562395e+01 7.157031761610653746e-06
9.094547273636817408e+01 6.990400955196182351e-06
9.184592296148073842e+01 6.871645278067404040e-06
9.274637318659328855e+01 6.777680460687895978e-06
9.364682341170585289e+01 6.706556631686384887e-06
9.454727363681840302e+01 6.679693260285077707e-06
9.544772386193096736e+01 6.707856627973472176e-06
9.634817408704351749e+01 6.758623862930273760e-06
9.724862431215606762e+01 6.752006264364044347e-06
9.814907453726863196e+01 6.630684741447766516e-06
9.904952476238118209e+01 6.417841897229186397e-06
9.994997498749374643e+01 6.173595028841923462e-06
1.008504252126062966e+02 5.951213703937692714e-06
1.017508754377188609e+02 5.775867092637539356e-06
1.026513256628314110e+02 5.649474420188785681e-06
1.035517758879439612e+02 5.565787856113332297e-06
1.044522261130565255e+02 5.514892857844604662e-06
1.053526763381690756e+02 5.479399182559561189e-06
1.062531265632816400e+02 5.441430757916202274e-06
1.071535767883941901e+02 5.406038323341607321e-06
1.080540270135067544e+02 5.397376331255598114e-06
1.089544772386193046e+02 5.432203905907729987e-06
1.098549274637318547e+02 5.510462543323343159e-06
1.107553776888444190e+02 5.616839840673064077e-06
1.116558279139569692e+02 5.715361486117873737e-06
1.125562781390695335e+02 5.754618768863141218e-06
1.134567283641820836e+02 5.716342223831456193e-06
1.143571785892946480e+02 5.623083610943368595e-06
1.152576288144071981e+02 5.518692670799103671e-06
1.161580790395197482e+02 5.451019829728229613e-06
1.170585292646323126e+02 5.421051430915646705e-06
1.179589794897448627e+02 5.376442282138448971e-06
1.188594297148574270e+02 5.268219043357771851e-06
1.197598799399699772e+02 5.102859861456746284e-06
1.206603301650825415e+02 4.934460525800550103e-06
1.215607803901950916e+02 4.809937348903137714e-06
1.224612306153076418e+02 4.746345026144992820e-06
1.233616808404202061e+02 4.745615367926666203e-06
1.242621310655327562e+02 4.803992217925312464e-06
1.251625812906453206e+02 4.907977223330348273e-06
1.260630315157578707e+02 5.032711289315761901e-06
1.269634817408704350e+02 5.150575556023636587e-06
1.278639319659829852e+02 5.240582645394894277e-06
1.287643821910955353e+02 5.297090686147467544e-06
1.296648324162080996e+02 5.325057034900093473e-06
1.305652826413206640e+02 5.325941998893744484e-06
1.314657328664331999e+02 5.273473682709373603e-06
1.323661830915457642e+02 5.151713920160737039e-06
1.332666333166583286e+02 5.009192381435479581e-06
1.341670835417708929e+02 4.891373463544024129e-06
1.350675337668834288e+02 4.786780938865009263e-06
1.359679839919959932e+02 4.686197149110194595e-06
1.368684342171085575e+02 4.608015270086007182e-06
1.377688844422210934e+02 4.543400716380249226e-06
1.386693346673336578e+02 4.459501975017192546e-06
1.395697848924462221e+02 4.359973105690709554e-06
1.404702351175587864e+02 4.285046739796910496e-06
1.413706853426713224e+02 4.260354269855450685e-06
1.422711355677838867e+02 4.281515921189400008e-06
1.431715857928964510e+02 4.331669470355796155e-06
1.440720360180089870e+02 4.406917178959051736e-06
1.449724862431215513e+02 4.522216615961374250e-06
1.458729364682341156e+02 4.687243982001319970e-06
1.467733866933466800e+02 4.872947811426472906e-06
1.476738369184592159e+02 5.014867877251059176e-06
1.485742871435717802e+02 5.082768540484721039e-06
1.494747373686843446e+02 5.115429591802188964e-06
1.503751875937968805e+02 5.133085345417474293e-06
1.512756378189094448e+02 5.089249230883643809e-06
1.521760880440220092e+02 4.933353425820271779e-06
1.530765382691345735e+02 4.677930683269422708e-06
1.539769884942471094e+02 4.404948052651667539e-06
1.548774387193596738e+02 4.192157147862362496e-06
1.557778889444722381e+02 4.065503252321621606e-06
1.566783391695847740e+02 4.010596238834018596e-06
1.575787893946973384e+02 3.988866829621273145e-06
1.584792396198099027e+02 3.958543023125017176e-06
1.593796898449224670e+02 3.909917119565273776e-06
1.602801400700350030e+02 3.872442699919308961e-06
1.611805902951475673e+02 3.872102716368442242e-06
1.620810405202601316e+02 3.904274104584257193e-06
1.629814907453726676e+02 3.954359890954122236e-06
1.638819409704852319e+02 4.015910546089439785e-06
1.647823911955977962e+02 4.077980356523634140e-06
1.656828414207103606e+02 4.129933262184182872e-06
1.665832916458228965e+02 4.159549984767764846e-06
1.674837418709354608e+02 4.141535854394703703e-06
1.683841920960480252e+02 4.079401305526676017e-06
1.692846423211605611e+02 4.019302681008588579e-06
1.701850925462731254e+02 3.996027025751607523e-06
1.710855427713856898e+02 4.002725774456413882e-06
1.719859929964982541e+02 3.996167779118265353e-06
1.728864432216107900e+02 3.932614870066618498e-06
1.737868934467233544e+02 3.814603184619378424e-06
1.746873436718359187e+02 3.686811655062832519e-06
1.755877938969484546e+02 3.595052640252906081e-06
1.764882441220610190e+02 3.557998567378032558e-06
1.773886943471735833e+02 3.572596859429247965e-06
1.782891445722861476e+02 3.628888144920738660e-06
1.791895947973986836e+02 3.717925208488527498e-06
1.800900450225112479e+02 3.837363148150505509e-06
1.809904952476238122e+02 3.983400477898014786e-06
1.818909454727363482e+02 4.132842665819167814e-06
1.827913956978489125e+02 4.248853671575827676e-06
1.836918459229614768e+02 4.311266640010024449e-06
1.845922961480740412e+02 4.345913493432022274e-06
1.854927463731865771e+02 4.383522781324388198e-06
1.863931965982991414e+02 4.391894305921055396e-06
1.872936468234117058e+02 4.332166897417758648e-06
1.881940970485242417e+02 4.239800034080338069e-06
1.890945472736368060e+02 4.176518217347940876e-06
1.899949974987493704e+02 4.161771212184879213e-06
1.908954477238619347e+02 4.161764973199699457e-06
1.917958979489744706e+02 4.120943933992102401e-06
1.926963481740870350e+02 4.031303238918078623e-06
1.935967983991995993e+02 3.949404034891603672e-06
1.944972486243121352e+02 3.918128193358246559e-06
1.953976988494246996e+02 3.937861464151654468e-06
1.962981490745372639e+02 4.006023237163628730e-06
1.971985992996498283e+02 4.127300689527768995e-06
1.980990495247623642e+02 4.289637048441981058e-06
1.989994997498749285e+02 4.460921665487248142e-06
1.998999499749874929e+02 4.596723739060266607e-06
2.008004002001000288e+02 4.654865685574776265e-06
2.017008504252125931e+02 4.635520477892873924e-06
2.026013006503251574e+02 4.585906082527435812e-06
2.035017508754377218e+02 4.554571963768041646e-06
2.044022011005502577e+02 4.554962869599188033e-06
2.053026513256628220e+02 4.532956405923907741e-06
2.062031015507753864e+02 4.421150032851618913e-06
2.071035517758879223e+02 4.241085296821854003e-06
2.080040020010004866e+02 4.064325455767453251e-06
2.089044522261130510e+02 3.936830499986723859e-06
2.098049024512256153e+02 3.871843425191919253e-06
2.107053526763381512e+02 3.840900058987634422e-06
2.116058029014507156e+02 3.791963489624786622e-06
2.125062531265632799e+02 3.704889062476258055e-06
2.134067033516758158e+02 3.608732177750252661e-06
2.143071535767883802e+02 3.546298951146039430e-06
2.152076038019009445e+02 3.546748556448604129e-06
2.161080540270135089e+02 3.614018085091882217e-06
2.170085042521260448e+02 3.718994516620437977e-06
2.179089544772386091e+02 3.807599363430361023e-06
2.188094047023511735e+02 3.837870333028294273e-06
2.197098549274637094e+02 3.815019732330169954e-06
2.206103051525762737e+02 3.768339675988392600e-06
2.215107553776888381e+02 3.718552445958109497e-06
2.224112056028014024e+02 3.695768043797857663e-06
2.233116558279139383e+02 3.729808920240100824e-06
2.242121060530265027e+02 3.816101943977632444e-06
2.251125562781390670e+02 3.912575584131054607e-06
2.260130065032516029e+02 3.968352529527050208e-06
2.269134567283641672e+02 3.958719015271365581e-06
2.278139069534767316e+02 3.898948623923071033e-06
2.287143571785892959e+02 3.836834963475539686e-06
2.296148074037018318e+02 3.811721323876579385e-06
2.305152576288143962e+02 3.820824651712375535e-06
2.314157078539269605e+02 3.847907557554665367e-06
2.323161580790394964e+02 3.889979467223508464e-06
2.332166083041520608e+02 3.941818262844112024e-06
2.341170585292646251e+02 3.999043911029199661e-06
2.350175087543771895e+02 4.064114402083753898e-06
2.359179589794897254e+02 4.134191860885411018e-06
2.368184092046022897e+02 4.193617859465423908e-06
2.377188594297148541e+02 4.224885144494067849e-06
2.386193096548273900e+02 4.226829792032435000e-06
2.395197598799399543e+02 4.210645726163268177e-06
2.404202101050525187e+02 4.189502492293239856e-06
2.413206603301650830e+02 4.189421092378060377e-06
2.422211105552776189e+02 4.232035114966992712e-06
2.431215607803901833e+02 4.301310797607231885e-06
2.440220110055027476e+02 4.359625771763630842e-06
2.449224612306152835e+02 4.392313802218088275e-06
2.458229114557278479e+02 4.418523795400664528e-06
2.467233616808404122e+02 4.453248036354905282e-06
2.476238119059529765e+02 4.507693687909330236e-06
2.485242621310655124e+02 4.591102880534468725e-06
2.494247123561780768e+02 4.674293127968556370e-06
2.503251625812906411e+02 4.720874734268635672e-06
2.512256128064031770e+02 4.741781363928755865e-06
2.521260630315157414e+02 4.771061976023303646e-06
2.530265132566283057e+02 4.812966867925308640e-06
2.539269634817408701e+02 4.854726278850801510e-06
2.548274137068534060e+02 4.896290736594019430e-06
2.557278639319659703e+02 4.934894684471437949e-06
2.566283141570785347e+02 4.947728405065039100e-06
2.575287643821910706e+02 4.890497735827198778e-06
2.584292146073036633e+02 4.727594836040932619e-06
2.593296648324161993e+02 4.491434412008706435e-06
2.602301150575287352e+02 4.270193012656603699e-06
2.611305652826413279e+02 4.127205864168714717e-06
2.620310155077538639e+02 4.059069037768816274e-06
2.629314657328663998e+02 4.016868578564485387e-06
2.638319159579789925e+02 3.960937602208245042e-06
2.647323661830915285e+02 3.900136680659448405e-06
2.656328164082040644e+02 3.877589713477027145e-06
2.665332666333166571e+02 3.929087821287698946e-06
2.674337168584291931e+02 4.056365432004901566e-06
2.683341670835417858e+02 4.216478076771757000e-06
2.692346173086543217e+02 4.348454089422221110e-06
2.701350675337668577e+02 4.421971644182743360e-06
2.710355177588794504e+02 4.449858969044222825e-06
2.719359679839919863e+02 4.453542773561376011e-06
2.728364182091045222e+02 4.435515506221641688e-06
2.737368684342171150e+02 4.389001988264260560e-06
2.746373186593296509e+02 4.322686794149930213e-06
2.755377688844421868e+02 4.243988655846343858e-06
2.764382191095547796e+02 4.148090954393248752e-06
2.773386693346673155e+02 4.052105669058414620e-06
2.782391195597798514e+02 3.984162058236212201e-06
2.791395697848924442e+02 3.948805105066227374e-06
2.800400200100049801e+02 3.932158156371012774e-06
2.809404702351175729e+02 3.919879649644348679e-06
2.818409204602301088e+02 3.912155808574322425e-06
2.827413706853426447e+02 3.932404590457045170e-06
2.836418209104552375e+02 3.997265867767182088e-06
2.845422711355677734e+02 4.102242161195231171e-06
2.854427213606803093e+02 4.242343727537303422e-06
2.863431715857929021e+02 4.405487702049867443e-06
2.872436218109054380e+02 4.550594680305959599e-06
2.881440720360179739e+02 4.639380426733560959e-06
2.890445222611305667e+02 4.675917767432004760e-06
2.899449724862431026e+02 4.693220820123061973e-06
2.908454227113556385e+02 4.715844405504512152e-06
2.917458729364682313e+02 4.747712113870255715e-06
2.926463231615807672e+02 4.775172829812606188e-06
2.935467733866933600e+02 4.762435216961795090e-06
2.944472236118058959e+02 4.678976813557212227e-06
2.953476738369184318e+02 4.539679467327459631e-06
2.962481240620310246e+02 4.400205434136114641e-06
2.971485742871435605e+02 4.316174020130113214e-06
2.980490245122560964e+02 4.302424482350306742e-06
2.989494747373686891e+02 4.331934368097168366e-06
2.998499249624812251e+02 4.378627175240158295e-06
3.007503751875937610e+02 4.450557520394706620e-06
3.016508254127063537e+02 4.558212616639927315e-06
3.025512756378188897e+02 4.679456917039815778e-06
3.034517258629314256e+02 4.788714557607994073e-06
3.043521760880440183e+02 4.881537443404130600e-06
3.052526263131565543e+02 4.953059795985731218e-06
3.061530765382691470e+02 4.985053894518404245e-06
3.070535267633816829e+02 4.963553075722398333e-06
3.079539769884942189e+02 4.907612964140535731e-06
3.088544272136068116e+02 4.853636682328701589e-06
3.097548774387193475e+02 4.813879984883049640e-06
3.106553276638318835e+02 4.782467600786723935e-06
3.115557778889444762e+02 4.742442263876061829e-06
3.124562281140570121e+02 4.665198438969360893e-06
3.133566783391695481e+02 4.544657274729322999e-06
3.142571285642821408e+02 4.411263774047757942e-06
3.151575787893946767e+02 4.312453035623715885e-06
3.160580290145072127e+02 4.279118041019027688e-06
3.169584792396198054e+02 4.312213611351511382e-06
3.178589294647323413e+02 4.410792901876855026e-06
3.187593796898449341e+02 4.586548928244129799e-06
3.196598299149574700e+02 4.840872752960981689e-06
3.205602801400700059e+02 5.134843440071733928e-06
3.214607303651825987e+02 5.385446627835863103e-06
3.223611805902951346e+02 5.515117906765751966e-06
3.232616308154076705e+02 5.494179028499328889e-06
3.241620810405202633e+02 5.353632971378066526e-06
3.250625312656327992e+02 5.166595723901993161e-06
3.259629814907453351e+02 4.991888504727047581e-06
3.268634317158579279e+02 4.851127863188239500e-06
3.277638819409704638e+02 4.743185072848191498e-06
3.286643321660829997e+02 4.648352476973999181e-06
3.295647823911955925e+02 4.549707817359890446e-06
3.304652326163081284e+02 4.472363201981400720e-06
3.313656828414207212e+02 4.463324072238135029e-06
3.322661330665332571e+02 4.545818040748119790e-06
3.331665832916457930e+02 4.703090672523175787e-06
3.340670335167583858e+02 4.893239064110305124e-06
3.349674837418709217e+02 5.086166443111264590e-06
3.358679339669834576e+02 5.274875990981406712e-06
3.367683841920960504e+02 5.442204806382874170e-06
3.376688344172085863e+02 5.553098461863051674e-06
3.385692846423211222e+02 5.577795934777162952e-06
3.394697348674337150e+02 5.506199923908434938e-06
3.403701850925462509e+02 5.356035186173733654e-06
3.412706353176587868e+02 5.169051292305549462e-06
3.421710855427713796e+02 4.988610996401544069e-06
3.430715357678839155e+02 4.828716092519340002e-06
3.439719859929965082e+02 4.685603215044235440e-06
3.448724362181090441e+02 4.571227008435604577e-06
3.457728864432215801e+02 4.487443264530210267e-06
3.466733366683341728e+02 4.415321324025499668e-06
3.475737868934467087e+02 4.363974246583570149e-06
3.484742371185592447e+02 4.367815686588695806e-06
3.493746873436718374e+02 4.439012891175577695e-06
3.502751375687843733e+02 4.554123883169864486e-06
3.511755877938969093e+02 4.677511356044638434e-06
3.520760380190095020e+02 4.793453619580893003e-06
3.529764882441220379e+02 4.906012681830709630e-06
3.538769384692345739e+02 5.020593250247921167e-06
3.547773886943471666e+02 5.125734691194024394e-06
3.556778389194597025e+02 5.193792467759579367e-06
3.565782891445722953e+02 5.202819550689086244e-06
3.574787393696848312e+02 5.163436844532365936e-06
3.583791895947973671e+02 5.126148548221766209e-06
3.592796398199099599e+02 5.130666325530803771e-06
3.601800900450224958e+02 5.169833708223391304e-06
3.610805402701350317e+02 5.211847283376996058e-06
3.619809904952476245e+02 5.223511034392651491e-06
3.628814407203601604e+02 5.178129616796125727e-06
3.637818909454726963e+02 5.088897056120677640e-06
3.646823411705852891e+02 5.025951103412605849e-06
3.655827913956978250e+02 5.056897935405751280e-06
3.664832416208103609e+02 5.196638383115834656e-06
3.673836918459229537e+02 5.426587741818150136e-06
3.682841420710354896e+02 5.712462072085198385e-06
3.691845922961480824e+02 6.000735697896950498e-06
3.700850425212606183e+02 6.247957949482533464e-06
3.709854927463731542e+02 6.441163479009268686e-06
3.718859429714857470e+02 6.560957911813828251e-06
3.727863931965982829e+02 6.569611744245330384e-06
3.736868434217108188e+02 6.466526070607078427e-06
3.745872936468234116e+02 6.315729709107083207e-06
3.754877438719359475e+02 6.173037259266137510e-06
3.763881940970484834e+02 6.034985104183405495e-06
3.772886443221610762e+02 5.880152231221173096e-06
3.781890945472736121e+02 5.705541774744517362e-06
3.790895447723861480e+02 5.544789120217995118e-06
3.799899949974987408e+02 5.447800074736675369e-06
3.808904452226112767e+02 5.439289383883645823e-06
3.817908954477238694e+02 5.508027096195948013e-06
3.826913456728364054e+02 5.631388205192131084e-06
3.835917958979489413e+02 5.789384995414433625e-06
3.844922461230615340e+02 5.946208857761193115e-06
3.853926963481740700e+02 6.062412386448772886e-06
3.862931465732866059e+02 6.114803472645272436e-06
3.871935967983991986e+02 6.106355668870580684e-06
3.880940470235117346e+02 6.058004071217836023e-06
3.889944972486242705e+02 5.988270943620085781e-06
3.898949474737368632e+02 5.909325112209116281e-06
3.907953976988493991e+02 5.831910540976499950e-06
3.916958479239619351e+02 5.753113283034339597e-06
3.925962981490745278e+02 5.660050288988863859e-06
3.934967483741870637e+02 5.565919815284187102e-06
3.943971985992996565e+02 5.518985125576990532e-06
3.952976488244121924e+02 5.560995453728394246e-06
3.961980990495247283e+02 5.671117772371832528e-06
3.970985492746373211e+02 5.784972186707664047e-06
3.979989994997498570e+02 5.885390982731238584e-06
3.988994497248623929e+02 6.001967697393917239e-06
3.997998999499749857e+02 6.151662264767600126e-06
4.007003501750875216e+02 6.327345444414370701e-06
4.016008004002000575e+02 6.500277344215703952e-06
4.025012506253126503e+02 6.629421839021000198e-06
4.034017008504251862e+02 6.685976331658990604e-06
4.043021510755377221e+02 6.667397601085884886e-06
4.052026013006503149e+02 6.591431467131196950e-06
4.061030515257628508e+02 6.488062659596347559e-06
4.070035017508754436e+02 6.385916552787526378e-06
4.079039519759879795e+02 6.303228263704981063e-06
4.088044022011005154e+02 6.250342457544501858e-06
4.097048524262131082e+02 6.248373411653731954e-06
4.106053026513256441e+02 6.324591229000618997e-06
4.115057528764381800e+02 6.486632724770270995e-06
4.124062031015507728e+02 6.721728054710934095e-06
4.133066533266633087e+02 6.996421996352338818e-06
4.142071035517758446e+02 7.268111895049798314e-06
4.151075537768884374e+02 7.507174273764074591e-06
4.160080040020009733e+02 7.685384568917670480e-06
4.169084542271135092e+02 7.780335000656734906e-06
4.178089044522261020e+02 7.778815502637103109e-06
4.187093546773386379e+02 7.651928587305847503e-06
4.196098049024512306e+02 7.392918276748427084e-06
4.205102551275637666e+02 7.058120975431886626e-06
4.214107053526763025e+02 6.724360701707424981e-06
4.223111555777888952e+02 6.445119428978981292e-06
4.232116058029014312e+02 6.255694121703699986e-06
4.241120560280139671e+02 6.188109514567041639e-06
4.250125062531265598e+02 6.260135893163017496e-06
4.259129564782390958e+02 6.473918092275219591e-06
4.268134067033516317e+02 6.816556608891954729e-06
4.277138569284642244e+02 7.237436056513934569e-06
4.286143071535767604e+02 7.655275551302707696e-06
4.295147573786892963e+02 8.006707393371280759e-06
4.304152076038018890e+02 8.270450441966916018e-06
4.313156578289144250e+02 8.450494689030889098e-06
4.322161080540270177e+02 8.557540388512911684e-06
4.331165582791395536e+02 8.584037084360895910e-06
4.340170085042520896e+02 8.500713298472201753e-06
4.349174587293646823e+02 8.284609124054488689e-06
4.358179089544772182e+02 7.967433980663127867e-06
4.367183591795897541e+02 7.623833175984544007e-06
4.376188094047023469e+02 7.326507975661416573e-06
4.385192596298148828e+02 7.125293709330173589e-06
4.394197098549274187e+02 7.041753895614808920e-06
4.403201600800400115e+02 7.075991446538617438e-06
4.412206103051525474e+02 7.207829822027906155e-06
4.421210605302650833e+02 7.402311191523834702e-06
4.430215107553776761e+02 7.628117853002093161e-06
4.439219609804902120e+02 7.859780798780015407e-06
4.448224112056028048e+02 8.060345885747753107e-06
4.457228614307153407e+02 8.186047011931757862e-06
4.466233116558278766e+02 8.219010062248252515e-06
4.475237618809404694e+02 8.160400071033264448e-06
4.484242121060530053e+02 8.006430219143805595e-06
4.493246623311655412e+02 7.774503207530335952e-06
4.502251125562781340e+02 7.524587930012541988e-06
4.511255627813906699e+02 7.330476923445589082e-06
4.520260130065032058e+02 7.231046385382009223e-06
4.529264632316157986e+02 7.230221619308703279e-06
4.538269134567283345e+02 7.338642392436563285e-06
4.547273636818408704e+02 7.564540471721547677e-06
4.556278139069534632e+02 7.870902346465943650e-06
4.565282641320659991e+02 8.173290559073252584e-06
4.574287143571785919e+02 8.389125681613364671e-06
4.583291645822911278e+02 8.489848885933385200e-06
4.592296148074036637e+02 8.501149224368031220e-06
4.601300650325162565e+02 8.469221690646955996e-06
4.610305152576287924e+02 8.422085962164585187e-06
4.619309654827413283e+02 8.341127271746781509e-06
4.628314157078539210e+02 8.193429166667279327e-06
4.637318659329664570e+02 7.992847031995003651e-06
4.646323161580789929e+02 7.798364189258571378e-06
4.655327663831915856e+02 7.675708525542891743e-06
4.664332166083041216e+02 7.663260881852009099e-06
4.673336668334167143e+02 7.738344579030127394e-06
4.682341170585292502e+02 7.842556822287208076e-06
4.691345672836417862e+02 7.944824294117906112e-06
4.700350175087543789e+02 8.048904366464560393e-06
4.709354677338669148e+02 8.167798684133269470e-06
4.718359179589794508e+02 8.307535960636191707e-06
4.727363681840920435e+02 8.464255653624327199e-06
4.736368184092045794e+02 8.617908592905786476e-06
4.745372686343171154e+02 8.735812553513581038e-06
4.754377188594297081e+02 8.790285331735680067e-06
4.763381690845422440e+02 8.789938763227394901e-06
4.772386193096547800e+02 8.785195291774601614e-06
4.781390695347673727e+02 8.821008424997598110e-06
4.790395197598799086e+02 8.904426749938533020e-06
4.799399699849925014e+02 9.016355135407121482e-06
4.808404202101050373e+02 9.140432995182825413e-06
4.817408704352175732e+02 9.257758162011723961e-06
4.826413206603301660e+02 9.344817530067240589e-06
4.835417708854427019e+02 9.419875168635255159e-06
4.844422211105552378e+02 9.536890026143918670e-06
4.853426713356678306e+02 9.710524228971540689e-06
4.862431215607803665e+02 9.907989572880197376e-06
4.871435717858929024e+02 1.008845402563820252e-05
4.880440220110054952e+02 1.024202697197123429e-05
4.889444722361180311e+02 1.039988533112325387e-05
4.898449224612305670e+02 1.058654426081764453e-05
4.907453726863431598e+02 1.078389975433057404e-05
4.916458229114556957e+02 1.094989497939927404e-05
4.925462731365682885e+02 1.104455900646582645e-05
4.934467233616808244e+02 1.105512888144620710e-05
4.943471735867933603e+02 1.100885257967429306e-05
4.952476238119059531e+02 1.093949934319005036e-05
4.961480740370184890e+02 1.086864871267034621e-05
4.970485242621310249e+02 1.081960569830227371e-05
4.979489744872436177e+02 1.082033820472518267e-05
4.988494247123561536e+02 1.087702854359319167e-05
4.997498749374686895e+02 1.097626005844965168e-05
5.006503251625812823e+02 1.110203521800093960e-05
5.015507753876938182e+02 1.123227886168397518e-05
5.024512256128063541e+02 1.133570507982217174e-05
5.033516758379189469e+02 1.137632425688111558e-05
5.042521260630314828e+02 1.134901226129981028e-05
5.051525762881440755e+02 1.128306695155395752e-05
5.060530265132566115e+02 1.121363470911452150e-05
5.069534767383691474e+02 1.118283516276518687e-05
5.078539269634817401e+02 1.122317612829396213e-05
5.087543771885942760e+02 1.132889395841231655e-05
5.096548274137068120e+02 1.145936764528445333e-05
5.105552776388194047e+02 1.157326233159629135e-05
5.114557278639319406e+02 1.166952298767575896e-05
5.123561780890445334e+02 1.178382225898136624e-05
5.132566283141570693e+02 1.195231847457711891e-05
5.141570785392696052e+02 1.216775326470569753e-05
5.150575287643821412e+02 1.239599862017322338e-05
5.159579789894946771e+02 1.259550615997678139e-05
5.168584292146073267e+02 1.270318686447246691e-05
5.177588794397198626e+02 1.267655586991921011e-05
5.186593296648323985e+02 1.256728173498284532e-05
5.195597798899449344e+02 1.246305528671023708e-05
5.204602301150574704e+02 1.239066927426066416e-05
5.213606803401700063e+02 1.234335463739314350e-05
5.222611305652826559e+02 1.231349946184784397e-05
5.231615807903951918e+02 1.229674437715625035e-05
5.240620310155077277e+02 1.230160228743666287e-05
5.249624812406202636e+02 1.233737383951605090e-05
5.258629314657327996e+02 1.239186382996163637e-05
5.267633816908454492e+02 1.245137422604997432e-05
5.276638319159579851e+02 1.252191497343990690e-05
5.285642821410705210e+02 1.259141126248344812e-05
5.294647323661830569e+02 1.264384583599026739e-05
5.303651825912955928e+02 1.270737379741905537e-05
5.312656328164081287e+02 1.282452509122290631e-05
5.321660830415207784e+02 1.298546008575137113e-05
5.330665332666333143e+02 1.312391113064305827e-05
5.339669834917458502e+02 1.317939284774287878e-05
5.348674337168583861e+02 1.315563250359602293e-05
5.357678839419709220e+02 1.310256677171409576e-05
5.366683341670835716e+02 1.304807272772386199e-05
5.375687843921961075e+02 1.298166555460491782e-05
5.384692346173086435e+02 1.289942284702380510e-05
5.393696848424211794e+02 1.283590404574907735e-05
5.402701350675337153e+02 1.283198170948064097e-05
5.411705852926462512e+02 1.290159832261187110e-05
5.420710355177589008e+02 1.303508995022099948e-05
5.429714857428714367e+02 1.320391145488882487e-05
5.438719359679839727e+02 1.337809530732310399e-05
5.447723861930965086e+02 1.354385054798237050e-05
5.456728364182090445e+02 1.369309100685806980e-05
5.465732866433215804e+02 1.383549051510973855e-05
5.474737368684342300e+02 1.400712512666708248e-05
5.483741870935467659e+02 1.423008488579376521e-05
5.492746373186593019e+02 1.450587480098936959e-05
5.501750875437718378e+02 1.481972292548667698e-05
5.510755377688843737e+02 1.513521836277328249e-05
5.519759879939970233e+02 1.543451837183833141e-05
5.528764382191095592e+02 1.572910284764422081e-05
5.537768884442220951e+02 1.602683261285281453e-05
5.546773386693346310e+02 1.631873019350772497e-05
5.555777888944471670e+02 1.658277817827237118e-05
5.564782391195597029e+02 1.679729383285186078e-05
5.573786893446723525e+02 1.697006981171638343e-05
5.582791395697848884e+02 1.712692515967411178e-05
5.591795897948974243e+02 1.728253410331223483e-05
5.600800400200099602e+02 1.744984022150098557e-05
5.609804902451224962e+02 1.763896898404245176e-05
5.618809404702351458e+02 1.780171720908937068e-05
5.627813906953476817e+02 1.788411993210211860e-05
5.636818409204602176e+02 1.791952712632144948e-05
5.645822911455727535e+02 1.797508391842391327e-05
5.654827413706852894e+02 1.808338991896316837e-05
5.663831915957978254e+02 1.825863891437776770e-05
5.672836418209104750e+02 1.851394399838315920e-05
5.681840920460230109e+02 1.883400143738450259e-05
5.690845422711355468e+02 1.917367113013181273e-05
5.699849924962480827e+02 1.949309014181518313e-05
5.708854427213606186e+02 1.977686583217962610e-05
5.717858929464731546e+02 1.995552776138279113e-05
5.726863431715858042e+02 1.991200697042258281e-05
5.735867933966983401e+02 1.963351533064872862e-05
5.744872436218108760e+02 1.924364025187631856e-05
5.753876938469234119e+02 1.890113852812791063e-05
5.762881440720359478e+02 1.871132030104163141e-05
5.771885942971485974e+02 1.868597438602182418e-05
5.780890445222611334e+02 1.875322645379643078e-05
5.789894947473736693e+02 1.882211796734147225e-05
5.798899449724862052e+02 1.885956610296152543e-05
5.807903951975987411e+02 1.893491511035605849e-05
5.816908454227112770e+02 1.916101027470409001e-05
5.825912956478239266e+02 1.956453815263920574e-05
5.834917458729364625e+02 2.003984731662846719e-05
5.843921960980489985e+02 2.045343560586573544e-05
5.852926463231615344e+02 2.075879559124701003e-05
5.861930965482740703e+02 2.097708526287623312e-05
5.870935467733867199e+02 2.115641959457261389e-05
5.879939969984992558e+02 2.135314193329908492e-05
5.888944472236117917e+02 2.157136379378778903e-05
5.897948974487243277e+02 2.176488627118503566e-05
5.906953476738368636e+02 2.193745005991912543e-05
5.915957978989493995e+02 2.216596220443120557e-05
5.924962481240620491e+02 2.254752322768695239e-05
5.933966983491745850e+02 2.312643505611556525e-05
5.942971485742871209e+02 2.377864215555415287e-05
5.951975987993996569e+02 2.425485211578063118e-05
5.960980490245121928e+02 2.442746549450074543e-05
5.969984992496247287e+02 2.441723939239766623e-05
5.978989494747373783e+02 2.442053946760036205e-05
5.987993996998499142e+02 2.450971865920892340e-05
5.996998499249624501e+02 2.465963820088516706e-05
6.006003001500749860e+02 2.482702955051759589e-05
6.015007503751875220e+02 2.494579424210863468e-05
6.024012006003001716e+02 2.497063628419601630e-05
6.033016508254127075e+02 2.495133002110114402e-05
6.042021010505252434e+02 2.499010213553777576e-05
6.051025512756377793e+02 2.514896878435332069e-05
6.060030015007503152e+02 2.544316693442701249e-05
6.069034517258628512e+02 2.586341418026841688e-05
6.078039019509755008e+02 2.634105446165155550e-05
6.087043521760880367e+02 2.673955338628332984e-05
6.096048024012005726e+02 2.698534649713662663e-05
6.105052526263131085e+02 2.711759152304729159e-05
6.114057028514256444e+02 2.717348566779383563e-05
6.123061530765382940e+02 2.714514605871704678e-05
6.132066033016508300e+02 2.702070789976626696e-05
6.141070535267633659e+02 2.684670773180603841e-05
6.150075037518759018e+02 2.666407308799961546e-05
6.159079539769884377e+02 2.654193970030835933e-05
6.168084042021009736e+02 2.665676446599828979e-05
6.177088544272136232e+02 2.710587179398480330e-05
6.186093046523261592e+02 2.778575783786235180e-05
6.195097548774386951e+02 2.849334115812778595e-05
6.204102051025512310e+02 2.911005593075271264e-05
6.213106553276637669e+02 2.958059827746948130e-05
6.222111055527763028e+02 2.986324095059927783e-05
6.231115557778889524e+02 2.996447539563771480e-05
6.240120060030014884e+02 2.989307637025471104e-05
6.249124562281140243e+02 2.971317794366023561e-05
6.258129064532265602e+02 2.956962906402287175e-05
6.267133566783390961e+02 2.954309627010580407e-05
6.276138069034517457e+02 2.959812501083651480e-05
6.285142571285642816e+02 2.964060222471013044e-05
6.294147073536768175e+02 2.963370281768605357e-05
6.303151575787893535e+02 2.964248443500774858e-05
6.312156078039018894e+02 2.978146827187891951e-05
6.321160580290144253e+02 3.012934517890160461e-05
6.330165082541270749e+02 3.066065246649863680e-05
6.339169584792396108e+02 3.123444698753227359e-05
6.348174087043521467e+02 3.162959176294692431e-05
6.357178589294646827e+02 3.166727247060228056e-05
6.366183091545772186e+02 3.139989298735370817e-05
6.375187593796898682e+02 3.105084175968504261e-05
6.384192096048024041e+02 3.080067289447539286e-05
6.393196598299149400e+02 3.070868197199834134e-05
6.402201100550274759e+02 3.080797753703154413e-05
6.411205602801400119e+02 3.114259799827446190e-05
6.420210105052525478e+02 3.167831305256283976e-05
6.429214607303651974e+02 3.226290568033740472e-05
6.438219109554777333e+02 3.276058164421543533e-05
6.447223611805902692e+02 3.313376660626343029e-05
6.456228114057028051e+02 3.333102364857514648e-05
6.465232616308153411e+02 3.330021439666695397e-05
6.474237118559278770e+02 3.317206905956005236e-05
6.483241620810405266e+02 3.313557241730152701e-05
6.492246123061530625e+02 3.319048929961020714e-05
6.501250625312655984e+02 3.323779362023561641e-05
6.510255127563781343e+02 3.323879963856172842e-05
6.519259629814906702e+02 3.323342349669243149e-05
6.528264132066033198e+02 3.328359548943367595e-05
6.537268634317158558e+02 3.340535833198488258e-05
6.546273136568283917e+02 3.357637725672920449e-05
6.555277638819409276e+02 3.381274201438664852e-05
6.564282141070534635e+02 3.415424336673155765e-05
6.573286643321659994e+02 3.453879440962925900e-05
6.582291145572786490e+02 3.479208687059488666e-05
6.591295647823911850e+02 3.481361093702666295e-05
6.600300150075037209e+02 3.461322424417168206e-05
6.609304652326162568e+02 3.421574707488041656e-05
6.618309154577287927e+02 3.369250400361639090e-05
6.627313656828414423e+02 3.310633714297114486e-05
6.636318159079539782e+02 3.250539866871809540e-05
6.645322661330665142e+02 3.194477035977825140e-05
6.654327163581790501e+02 3.140744347652670704e-05
6.663331665832915860e+02 3.085850119085573252e-05
6.672336168084041219e+02 3.037675900350309257e-05
6.681340670335167715e+02 3.007582558896575156e-05
6.690345172586293074e+02 2.994352418439489964e-05
6.699349674837418434e+02 2.987446059959223858e-05
6.708354177088543793e+02 2.978778670700244434e-05
6.717358679339669152e+02 2.964981317942683422e-05
6.726363181590794511e+02 2.950398253003109190e-05
6.735367683841921007e+02 2.941351096338880566e-05
6.744372186093046366e+02 2.936877799298941890e-05
6.753376688344171725e+02 2.933705491227040320e-05
6.762381190595297085e+02 2.937663593571918571e-05
6.771385692846422444e+02 2.956239892726028739e-05
6.780390195097548940e+02 2.982965675486219957e-05
6.789394697348674299e+02 3.005553928544330713e-05
6.798399199599799658e+02 3.018228704958382316e-05
6.807403701850925017e+02 3.020382978280903866e-05
6.816408204102050377e+02 3.013265006165825253e-05
6.825412706353175736e+02 3.001106041686589477e-05
6.834417208604302232e+02 2.990420924018165254e-05
6.843421710855427591e+02 2.983937227244110122e-05
6.852426213106552950e+02 2.982681694995858125e-05
6.861430715357678309e+02 2.985215799562003025e-05
6.870435217608803669e+02 2.981926996244697609e-05
6.879439719859930165e+02 2.968951622643351091e-05
6.888444222111055524e+02 2.961784247338926650e-05
6.897448724362180883e+02 2.975915102453141644e-05
6.906453226613306242e+02 3.003283404561267120e-05
6.915457728864431601e+02 3.022242514626524164e-05
6.924462231115556961e+02 3.016747755250762716e-05
6.933466733366683457e+02 2.984862871713542094e-05
6.942471235617808816e+02 2.936426322139817802e-05
6.951475737868934175e+02 2.882081274355078275e-05
6.960480240120059534e+02 2.828782292160388203e-05
6.969484742371184893e+02 2.781706856964832308e-05
6.978489244622311389e+02 2.749023304266993195e-05
6.987493746873436749e+02 2.734703412667150441e-05
6.996498249124562108e+02 2.729696369666790765e-05
7.005502751375687467e+02 2.721161402721728663e-05
7.014507253626812826e+02 2.705245052872551662e-05
7.023511755877938185e+02 2.690823777466311853e-05
7.032516258129064681e+02 2.688141217421262998e-05
7.041520760380190040e+02 2.698987802359416411e-05
7.050525262631315400e+02 2.716640204911834974e-05
7.059529764882440759e+02 2.732438627559190063e-05
7.068534267133566118e+02 2.737579893459206191e-05
7.077538769384691477e+02 2.723136727534919595e-05
7.086543271635817973e+02 2.688395319392997224e-05
7.095547773886943332e+02 2.644009977421450235e-05
7.104552276138068692e+02 2.599888047963496240e-05
7.113556778389194051e+02 2.559129284920386377e-05
7.122561280640319410e+02 2.525324955525723054e-05
7.131565782891445906e+02 2.502920018292042499e-05
7.140570285142571265e+02 2.490431718620732997e-05
7.149574787393696624e+02 2.480481879042212973e-05
7.158579289644821984e+02 2.467212994314289229e-05
7.167583791895947343e+02 2.450883737258513747e-05
7.176588294147072702e+02 2.435274761416219742e-05
7.185592796398199198e+02 2.419499662331607600e-05
7.194597298649324557e+02 2.396634766877135659e-05
7.203601800900449916e+02 2.363996432139583236e-05
7.212606303151575275e+02 2.327171847220374317e-05
7.221610805402700635e+02 2.293057960996201463e-05
7.230615307653827131e+02 2.263283475182965005e-05
7.239619809904952490e+02 2.238951403426739007e-05
7.248624312156077849e+02 2.221960388328752750e-05
7.257628814407203208e+02 2.210727913789969817e-05
7.266633316658328567e+02 2.199243717254431213e-05
7.275637818909453927e+02 2.182194503690206269e-05
7.284642321160580423e+02 2.160327493752860821e-05
7.293646823411705782e+02 2.139221321714971722e-05
7.302651325662831141e+02 2.124268298308220002e-05
7.311655827913956500e+02 2.112701705975617814e-05
7.320660330165081859e+02 2.097655247695805612e-05
7.329664832416207219e+02 2.076500301644298993e-05
7.338669334667333715e+02 2.049540903611446428e-05
7.347673836918459074e+02 2.020024400792779523e-05
7.356678339169584433e+02 1.993570711124930937e-05
7.365682841420709792e+02 1.974349226840748834e-05
7.374687343671835151e+02 1.962604363719583784e-05
7.383691845922961647e+02 1.950084306048364358e-05
7.392696348174087007e+02 1.928046917844655333e-05
7.401700850425212366e+02 1.898621178110586374e-05
7.410705352676337725e+02 1.871745702304881409e-05
7.419709854927463084e+02 1.856155099523092118e-05
7.428714357178588443e+02 1.855728251900463579e-05
7.437718859429714939e+02 1.864676690097837443e-05
7.446723361680840299e+02 1.868366639286897745e-05
7.455727863931965658e+02 1.859753159086296803e-05
7.464732366183091017e+02 1.847136838322210989e-05
7.473736868434216376e+02 1.838707752824544591e-05
7.482741370685342872e+02 1.833525953924581436e-05
7.491745872936468231e+02 1.830158788217293460e-05
7.500750375187593590e+02 1.828632316541966736e-05
7.509754877438718950e+02 1.825659213154605523e-05
7.518759379689844309e+02 1.815420188796877142e-05
7.527763881940969668e+02 1.796733593608414238e-05
7.536768384192096164e+02 1.777989037030321939e-05
7.545772886443221523e+02 1.764980586393743653e-05
7.554777388694346882e+02 1.754746415319543846e-05
7.563781890945472242e+02 1.743111573839700178e-05
7.572786393196597601e+02 1.727421823631556573e-05
7.581790895447722960e+02 1.706499764029647593e-05
7.590795397698849456e+02 1.681597717602398694e-05
7.599799899949974815e+02 1.652963793203045343e-05
7.608804402201100174e+02 1.622093444292796037e-05
7.617808904452225534e+02 1.595085122647705650e-05
7.626813406703350893e+02 1.579461441067452697e-05
7.635817908954477389e+02 1.577995440271014828e-05
7.644822411205602748e+02 1.583988913832475661e-05
7.653826913456728107e+02 1.586816773703710103e-05
7.662831415707853466e+02 1.579965893223532291e-05
7.671835917958978825e+02 1.563376164212788727e-05
7.680840420210104185e+02 1.543469358814619094e-05
7.689844922461230681e+02 1.527620195282364620e-05
7.698849424712356040e+02 1.516939250566139572e-05
7.707853926963481399e+02 1.507746562061701212e-05
7.716858429214606758e+02 1.499071779261853613e-05
7.725862931465732117e+02 1.492606342691267229e-05
7.734867433716858613e+02 1.488525787483240796e-05
7.743871935967983973e+02 1.489056524736148489e-05
7.752876438219109332e+02 1.497917419329296876e-05
7.761880940470234691e+02 1.514505798209315615e-05
7.770885442721360050e+02 1.532681037272780997e-05
7.779889944972485409e+02 1.543971597456058958e-05
7.788894447223611905e+02 1.544650253492813754e-05
7.797898949474737265e+02 1.533859236296191943e-05
7.806903451725862624e+02 1.511495819120819962e-05
7.815907953976987983e+02 1.485245895425796099e-05
7.824912456228113342e+02 1.468812762306417457e-05
7.833916958479238701e+02 1.469433514251682209e-05
7.842921460730365197e+02 1.481842935114915121e-05
7.851925962981490557e+02 1.492544472095088329e-05
7.860930465232615916e+02 1.492304948850479357e-05
7.869934967483741275e+02 1.481975293534606974e-05
7.878939469734866634e+02 1.464847078194969865e-05
7.887943971985993130e+02 1.444000833722724273e-05
7.896948474237118489e+02 1.424851851476462942e-05
7.905952976488243849e+02 1.409877820851551796e-05
7.914957478739369208e+02 1.396340330739155224e-05
7.923961980990494567e+02 1.381514032496625054e-05
7.932966483241619926e+02 1.367333011159959142e-05
7.941970985492746422e+02 1.357778347846391003e-05
7.950975487743871781e+02 1.354960225328313629e-05
7.959979989994997140e+02 1.358623592974815353e-05
7.968984492246122500e+02 1.366641360840691077e-05
7.977988994497247859e+02 1.376524234212585005e-05
7.986993496748374355e+02 1.386964273798798227e-05
7.995997998999499714e+02 1.396114137880051475e-05
8.005002501250625073e+02 1.401619694443705765e-05
8.014007003501750432e+02 1.402282157373095982e-05
8.023011505752875792e+02 1.397913892922100338e-05
8.032016008004001151e+02 1.390718982647905532e-05
8.041020510255127647e+02 1.382832164026464269e-05
8.050025012506253006e+02 1.373716566619435777e-05
8.059029514757378365e+02 1.364595911478184021e-05
8.068034017008503724e+02 1.358825333085759449e-05
8.077038519259629084e+02 1.356551661079765842e-05
8.086043021510754443e+02 1.353526372514699944e-05
8.095047523761880939e+02 1.345088484988533899e-05
8.104052026013006298e+02 1.328330437156407336e-05
8.113056528264131657e+02 1.302580433898532223e-05
8.122061030515257016e+02 1.271240924663926711e-05
8.131065532766382375e+02 1.240560500719245893e-05
8.140070035017508872e+02 1.214331278253482279e-05
8.149074537268634231e+02 1.193686186410998443e-05
8.158079039519759590e+02 1.180209678934051926e-05
8.167083541770884949e+02 1.173807645392948264e-05
8.176088044022010308e+02 1.171639882352267336e-05
8.185092546273135667e+02 1.171860078263810422e-05
8.194097048524262163e+02 1.173935254498100011e-05
8.203101550775387523e+02 1.177822390461423150e-05
8.212106053026512882e+02 1.184992578297671239e-05
8.221110555277638241e+02 1.195415619778836243e-05
8.230115057528763600e+02 1.205489238220221311e-05
8.239119559779890096e+02 1.212972075837966156e-05
8.248124062031015455e+02 1.220304021511384353e-05
8.257128564282140815e+02 1.228011226017311105e-05
8.266133066533266174e+02 1.232208244436968032e-05
8.275137568784391533e+02 1.229913074276240465e-05
8.284142071035516892e+02 1.223062654053670843e-05
8.293146573286643388e+02 1.217548344632213343e-05
8.302151075537768747e+02 1.215258321622675709e-05
8.311155577788894107e+02 1.212151710130852243e-05
8.320160080040019466e+02 1.206407784354110204e-05
8.329164582291144825e+02 1.201423495304402893e-05
8.338169084542270184e+02 1.201249790535655523e-05
8.347173586793396680e+02 1.206295110093105059e-05
8.356178089044522039e+02 1.215218209630094207e-05
8.365182591295647399e+02 1.227979986109313293e-05
8.374187093546772758e+02 1.242349457249866009e-05
8.383191595797898117e+02 1.254680482630835072e-05
8.392196098049024613e+02 1.266113931316363870e-05
8.401200600300149972e+02 1.279938036950089977e-05
8.410205102551275331e+02 1.295043800898360551e-05
8.419209604802400690e+02 1.309383132080464319e-05
8.428214107053526050e+02 1.324037546745130969e-05
8.437218609304651409e+02 1.340486636665595962e-05
8.446223111555777905e+02 1.357846059879694799e-05
8.455227613806903264e+02 1.371145429419733955e-05
8.464232116058028623e+02 1.374414347212676651e-05
8.473236618309153982e+02 1.366351361534737887e-05
8.482241120560279342e+02 1.352781818973863657e-05
8.491245622811405838e+02 1.340417992309710602e-05
8.500250125062531197e+02 1.330820858482217478e-05
8.509254627313656556e+02 1.323907420014491253e-05
8.518259129564781915e+02 1.320360423323832764e-05
8.527263631815907274e+02 1.319896163450689556e-05
8.536268134067032634e+02 1.319558460229304563e-05
8.545272636318159130e+02 1.317065258926964852e-05
8.554277138569284489e+02 1.311992372508755603e-05
8.563281640820409848e+02 1.304725957777540594e-05
8.572286143071535207e+02 1.297616037151616058e-05
8.581290645322660566e+02 1.293263438365859476e-05
8.590295147573785925e+02 1.293192714213092186e-05
8.599299649824912422e+02 1.297698573609579047e-05
8.608304152076037781e+02 1.304375908512250984e-05
8.617308654327163140e+02 1.309233278235175384e-05
8.626313156578288499e+02 1.313136306086754682e-05
8.635317658829413858e+02 1.320848076938872444e-05
8.644322161080540354e+02 1.333233714559094078e-05
8.653326663331665713e+02 1.345862788826822456e-05
8.662331165582791073e+02 1.352051325116514631e-05
8.671335667833916432e+02 1.350951801261527087e-05
8.680340170085041791e+02 1.349481508114221167e-05
8.689344672336167150e+02 1.353124304913246571e-05
8.698349174587293646e+02 1.362753716574322864e-05
8.707353676838419005e+02 1.375194860164136234e-05
8.716358179089544365e+02 1.384398366087925445e-05
8.725362681340669724e+02 1.388101295250647163e-05
8.734367183591795083e+02 1.391392820083426023e-05
8.743371685842921579e+02 1.399557011743932572e-05
8.752376188094046938e+02 1.410374967861982331e-05
8.761380690345172297e+02 1.417608239900092485e-05
8.770385192596297657e+02 1.418670495083724337e-05
8.779389694847423016e+02 1.417176137869708934e-05
8.788394197098548375e+02 1.416548037942507356e-05
8.797398699349674871e+02 1.414621752834205756e-05
8.806403201600800230e+02 1.409333348773734753e-05
8.815407703851925589e+02 1.402469358422749290e-05
8.824412206103050949e+02 1.396276615792687545e-05
8.833416708354176308e+02 1.392262699685858351e-05
8.842421210605301667e+02 1.391849722416675528e-05
8.851425712856428163e+02 1.394610373026190169e-05
8.860430215107553522e+02 1.398929119072054939e-05
8.869434717358678881e+02 1.404717422392376665e-05
8.878439219609804240e+02 1.413672453046585578e-05
8.887443721860929600e+02 1.428425439725751944e-05
8.896448224112056096e+02 1.451343882406585517e-05
8.905452726363181455e+02 1.481448922864875830e-05
8.914457228614306814e+02 1.513897498454474395e-05
8.923461730865432173e+02 1.542875303751190625e-05
8.932466233116557532e+02 1.565864654057075043e-05
8.941470735367682892e+02 1.583755313923222694e-05
8.950475237618809388e+02 1.598605398512243224e-05
8.959479739869934747e+02 1.613376509608466521e-05
8.968484242121060106e+02 1.627322602196493628e-05
8.977488744372185465e+02 1.636236064545005793e-05
8.986493246623310824e+02 1.640494652192740952e-05
8.995497748874437320e+02 1.644397822823793391e-05
9.004502251125562680e+02 1.649546522398239181e-05
9.013506753376688039e+02 1.658261168115499155e-05
9.022511255627813398e+02 1.674699786755195368e-05
9.031515757878938757e+02 1.698051915564973400e-05
9.040520260130064116e+02 1.722810648062643514e-05
9.049524762381190612e+02 1.743143889667759348e-05
9.058529264632315972e+02 1.756096565651280562e-05
9.067533766883441331e+02 1.766789405988604010e-05
9.076538269134566690e+02 1.782959474812101003e-05
9.085542771385692049e+02 1.804158233610423975e-05
9.094547273636817408e+02 1.821687464407586784e-05
9.103551775887943904e+02 1.831026850130769047e-05
9.112556278139069263e+02 1.834818693432739366e-05
9.121560780390194623e+02 1.834460854216822789e-05
9.130565282641319982e+02 1.832965370708001065e-05
9.139569784892445341e+02 1.837475649868172535e-05
9.148574287143571837e+02 1.850532996568305568e-05
9.157578789394697196e+02 1.867885025442531406e-05
9.166583291645822555e+02 1.884777634587089497e-05
9.175587793896947915e+02 1.899082337455263036e-05
9.184592296148073274e+02 1.909303283903285238e-05
9.193596798399198633e+02 1.914736472233982833e-05
9.202601300650325129e+02 1.917795363300417064e-05
9.211605802901450488e+02 1.921904285097018173e-05
9.220610305152575847e+02 1.929794812825119484e-05
9.229614807403701207e+02 1.942328407713736648e-05
9.238619309654826566e+02 1.955952155595457991e-05
9.247623811905953062e+02 1.966117306959984368e-05
9.256628314157078421e+02 1.974378938605896789e-05
9.265632816408203780e+02 1.987757024150389143e-05
9.274637318659329139e+02 2.010957905149847894e-05
9.283641820910454499e+02 2.042782830088795402e-05
9.292646323161579858e+02 2.079900706972501230e-05
9.301650825412706354e+02 2.116885174105910262e-05
9.310655327663831713e+02 2.149281216908681904e-05
9.319659829914957072e+02 2.178669116121261431e-05
9.328664332166082431e+02 2.209361347965462601e-05
9.337668834417207790e+02 2.243284686770804801e-05
9.346673336668334287e+02 2.277653133872484963e-05
9.355677838919459646e+02 2.305711533817651597e-05
9.364682341170585005e+02 2.327549324459650667e-05
9.373686843421710364e+02 2.350107123937907492e-05
9.382691345672835723e+02 2.372820389798941510e-05
9.391695847923961082e+02 2.390811535836767315e-05
9.400700350175087578e+02 2.406157858723743909e-05
9.409704852426212938e+02 2.422209552606420066e-05
9.418709354677338297e+02 2.439222932596412209e-05
9.427713856928463656e+02 2.460595530852323815e-05
9.436718359179589015e+02 2.490936134197507400e-05
9.445722861430714374e+02 2.524836340184845180e-05
9.454727363681840870e+02 2.548332092307855406e-05
9.463731865932966230e+02 2.556457869008596747e-05
9.472736368184091589e+02 2.555711900950363678e-05
9.481740870435216948e+02 2.547279711254879771e-05
9.490745372686342307e+02 2.526709342670540180e-05
9.499749874937468803e+02 2.498122187485279715e-05
9.508754377188594162e+02 2.475085604155546700e-05
9.517758879439719522e+02 2.469913018655048290e-05
9.526763381690844881e+02 2.489235452645517804e-05
9.535767883941970240e+02 2.535469984872364902e-05
9.544772386193095599e+02 2.605450661213043546e-05
9.553776888444222095e+02 2.688143698558144031e-05
9.562781390695347454e+02 2.767757561584708724e-05
9.571785892946472813e+02 2.828794343198538512e-05
9.580790395197598173e+02 2.859513745263329683e-05
9.589794897448723532e+02 2.868057319740807291e-05
9.598799399699850028e+02 2.880786321506372653e-05
9.607803901950975387e+02 2.911102764269021638e-05
9.616808404202100746e+02 2.947202446962700659e-05
9.625812906453226105e+02 2.976321867454123933e-05
9.634817408704351465e+02 3.005704611595668227e-05
9.643821910955476824e+02 3.037764512465166745e-05
9.652826413206603320e+02 3.054733899000347107e-05
9.661830915457728679e+02 3.044664469567917901e-05
9.670835417708854038e+02 3.017559206549843981e-05
9.679839919959979397e+02 2.991717802790667472e-05
9.688844422211104757e+02 2.975452705553645888e-05
9.697848924462230116e+02 2.966464287478548585e-05
9.706853426713356612e+02 2.967726237250696775e-05
9.715857928964481971e+02 2.988450208668402746e-05
9.724862431215607330e+02 3.030880280816365127e-05
9.733866933466732689e+02 3.087748867142175768e-05
9.742871435717858049e+02 3.154448157774578169e-05
9.751875937968984545e+02 3.227399280658771469e-05
9.760880440220109904e+02 3.292364832614162257e-05
9.769884942471235263e+02 3.335415751884036444e-05
9.778889444722360622e+02 3.355360252387281749e-05
9.787893946973485981e+02 3.359329038818032078e-05
9.796898449224611340e+02 3.362910623121081197e-05
9.805902951475737837e+02 3.376808692461331273e-05
9.814907453726863196e+02 3.393993301108631317e-05
9.823911955977988555e+02 3.409765232181056376e-05
9.832916458229113914e+02 3.431302305511303681e-05
9.841920960480239273e+02 3.461605612938535516e-05
9.850925462731365769e+02 3.493470611498323777e-05
9.859929964982491128e+02 3.516077513247094748e-05
9.868934467233616488e+02 3.523689838394615303e-05
9.877938969484741847e+02 3.524232149135544788e-05
9.886943471735867206e+02 3.533069512108299055e-05
9.895947973986992565e+02 3.565709879907207394e-05
9.904952476238119061e+02 3.631342605263454071e-05
9.913956978489244420e+02 3.727004689030799582e-05
9.922961480740369780e+02 3.838393728002011189e-05
9.931965982991495139e+02 3.948159636789754656e-05
9.940970485242620498e+02 4.040220289663406806e-05
9.949974987493745857e+02 4.104881123034893203e-05
9.958979489744872353e+02 4.151032591599605542e-05
9.967983991995997712e+02 4.198516500599877208e-05
9.976988494247123072e+02 4.261565463200220891e-05
9.985992996498248431e+02 4.333673690277042547e-05
9.994997498749373790e+02 4.393476428971563214e-05
1.000400200100050029e+03 4.430399185122879278e-05
1.001300650325162565e+03 4.454863828078062027e-05
1.002201100550275100e+03 4.485320958950668517e-05
1.003101550775387636e+03 4.530618175098340703e-05
1.004002001000500172e+03 4.590969533850468092e-05
1.004902451225612708e+03 4.658973214934032442e-05
1.005802901450725358e+03 4.719333651676428377e-05
1.006703351675837894e+03 4.772174773532374451e-05
1.007603801900950430e+03 4.838256450539488103e-05
1.008504252126062966e+03 4.924255004727683734e-05
1.009404702351175501e+03 5.012594619035704117e-05
1.010305152576288151e+03 5.097649338109509488e-05
1.011205602801400687e+03 5.194945367077661175e-05
1.012106053026513223e+03 5.305715880443535805e-05
1.013006503251625759e+03 5.414138243186220842e-05
1.013906953476738295e+03 5.520020290809013068e-05
1.014807403701850831e+03 5.626426142632356384e-05
1.015707853926963480e+03 5.726255150561942011e-05
1.016608304152076016e+03 5.814152806362078918e-05
1.017508754377188552e+03 5.884539792446998936e-05
1.018409204602301088e+03 5.935730961514569716e-05
1.019309654827413624e+03 5.975236862408622496e-05
1.020210105052526160e+03 6.011618295778636378e-05
1.021110555277638809e+03 6.054775418465230572e-05
1.022011005502751345e+03 6.124288779578147780e-05
1.022911455727863881e+03 6.227159587362287837e-05
1.023811905952976417e+03 6.342689660812215102e-05
1.024712356178089067e+03 6.454872283870465607e-05
1.025612806403201603e+03 6.570148802860365368e-05
1.026513256628314139e+03 6.692041197225439566e-05
1.027413706853426675e+03 6.806566744709494109e-05
1.028314157078539210e+03 6.905037509030603521e-05
1.029214607303651746e+03 6.992475895790501675e-05
1.030115057528764282e+03 7.070914382637240553e-05
1.031015507753876818e+03 7.152535370555815970e-05
1.031915957978989354e+03 7.267219176353678352e-05
1.032816408204101890e+03 7.436623369584765251e-05
1.033716858429214653e+03 7.644615050413672047e-05
1.034617308654327189e+03 7.855410707249344329e-05
1.035517758879439725e+03 8.058327674682586549e-05
1.036418209104552261e+03 8.278377951659257486e-05
1.037318659329664797e+03 8.535978443334372794e-05
1.038219109554777333e+03 8.818083268272707703e-05
1.039119559779889869e+03 9.096589201626684835e-05
1.040020010005002405e+03 9.349890393739506084e-05
1.040920460230114941e+03 9.576578505722711408e-05
1.041820910455227477e+03 9.789794633023737262e-05
1.042721360680340013e+03 9.996155988942754568e-05
1.043621810905452776e+03 1.018899540694216644e-04
1.044522261130565312e+03 1.034890521527105336e-04
1.045422711355677848e+03 1.045846358076164899e-04
1.046323161580790384e+03 1.053403931884601885e-04
1.047223611805902920e+03 1.061736388359057261e-04
1.048124062031015455e+03 1.072781091328728760e-04
1.049024512256127991e+03 1.086121049807964453e-04
1.049924962481240527e+03 1.101668285871645539e-04
1.050825412706353063e+03 1.121283771022785973e-04
1.051725862931465599e+03 1.147941926380581870e-04
1.052626313156578135e+03 1.180855265515688181e-04
1.053526763381690898e+03 1.214723058807491067e-04
1.054427213606803434e+03 1.244507590599402990e-04
1.055327663831915970e+03 1.269601771251461380e-04
1.056228114057028506e+03 1.293171062118693188e-04
1.057128564282141042e+03 1.318613021721595985e-04
1.058029014507253578e+03 1.347727085744793271e-04
1.058929464732366114e+03 1.380263357605245500e-04
1.059829914957478650e+03 1.416335460762499509e-04
1.060730365182591186e+03 1.456733727959128185e-04
1.061630815407703722e+03 1.499477437919843762e-04
1.062531265632816257e+03 1.539390811540176061e-04
1.063431715857929021e+03 1.574715005902348295e-04
1.064332166083041557e+03 1.612639102860963420e-04
1.065232616308154093e+03 1.661721282054367393e-04
1.066133066533266629e+03 1.722341146896749710e-04
1.067033516758379164e+03 1.787547346515774361e-04
1.067933966983491700e+03 1.848112465686475555e-04
1.068834417208604236e+03 1.898790361999138103e-04
1.069734867433716772e+03 1.940605238494498975e-04
1.070635317658829308e+03 1.976485875635182140e-04
1.071535767883941844e+03 2.007492012795534207e-04
1.072436218109054380e+03 2.035760600988078379e-04
1.073336668334167143e+03 2.064688494649188867e-04
1.074237118559279679e+03 2.090741154016028899e-04
1.075137568784392215e+03 2.102009157807079530e-04
1.076038019009504751e+03 2.094716351905108128e-04
1.076938469234617287e+03 2.084171315028021307e-04
1.077838919459729823e+03 2.088859633294810078e-04
1.078739369684842359e+03 2.113257626861515933e-04
1.079639819909954895e+03 2.148821655941806274e-04
1.080540270135067431e+03 2.183511217808147724e-04
1.081440720360179967e+03 2.211427150856546352e-04
1.082341170585292502e+03 2.237162523578946696e-04
1.083241620810405038e+03 2.263334232408836951e-04
1.084142071035517802e+03 2.284343193597965715e-04
1.085042521260630338e+03 2.300529296816640219e-04
1.085942971485742873e+03 2.323712372043459159e-04
1.086843421710855409e+03 2.366227772262853644e-04
1.087743871935967945e+03 2.429168087696690508e-04
1.088644322161080481e+03 2.503319877584002048e-04
1.089544772386193017e+03 2.577520889791974721e-04
1.090445222611305553e+03 2.644957695180677102e-04
1.091345672836418089e+03 2.705433950907523656e-04
1.092246123061530625e+03 2.758293037576439342e-04
1.093146573286643161e+03 2.798900941983827420e-04
1.094047023511755924e+03 2.831838626619540803e-04
1.094947473736868460e+03 2.869180716409665895e-04
1.095847923961980996e+03 2.911731970909947143e-04
1.096748374187093532e+03 2.955253071619107479e-04
1.097648824412206068e+03 3.009428382194299619e-04
1.098549274637318604e+03 3.088205114453213300e-04
1.099449724862431140e+03 3.188449752677029528e-04
1.100350175087543676e+03 3.302332085156242355e-04
1.101250625312656211e+03 3.428529861186800838e-04
1.102151075537768747e+03 3.559175845524730777e-04
1.103051525762881283e+03 3.683796363398245881e-04
1.103951975987994047e+03 3.800471699864100953e-04
1.104852426213106583e+03 3.908972585320400904e-04
1.105752876438219118e+03 4.007028992369960230e-04
1.106653326663331654e+03 4.094313363112418529e-04
1.107553776888444190e+03 4.167525515813888504e-04
1.108454227113556726e+03 4.223374335816548514e-04
1.109354677338669262e+03 4.271832388091419824e-04
1.110255127563781798e+03 4.332046941304886238e-04
1.111155577788894334e+03 4.410453778851242774e-04
1.112056028014006870e+03 4.501284418542167323e-04
1.112956478239119406e+03 4.604257225767375227e-04
1.113856928464232169e+03 4.714239222120592161e-04
1.114757378689344705e+03 4.808750325031932449e-04
1.115657828914457241e+03 4.871049198177192555e-04
1.116558279139569777e+03 4.904160880150994694e-04
1.117458729364682313e+03 4.919676330611002331e-04
1.118359179589794849e+03 4.934138834999377606e-04
1.119259629814907385e+03 4.958779770670483991e-04
1.120160080040019920e+03 4.989132544515371233e-04
1.121060530265132456e+03 5.000152202113177435e-04
1.121960980490244992e+03 4.967679010203330603e-04
1.122861430715357528e+03 4.882632952731003062e-04
1.123761880940470292e+03 4.749918017571107547e-04
1.124662331165582827e+03 4.598768000824718046e-04
1.125562781390695363e+03 4.462810407951392716e-04
1.126463231615807899e+03 4.347039659824582908e-04
1.127363681840920435e+03 4.241525543037308593e-04
1.128264132066032971e+03 4.146203754292178086e-04
1.129164582291145507e+03 4.061582073226847867e-04
1.130065032516258043e+03 3.973905742403559651e-04
1.130965482741370579e+03 3.858599604675518524e-04
1.131865932966483115e+03 3.694330848418054137e-04
1.132766383191595651e+03 3.470953057532688503e-04
1.133666833416708187e+03 3.189214347047497405e-04
1.134567283641820950e+03 2.876730092358011515e-04
1.135467733866933486e+03 2.583492705793360121e-04
1.136368184092046022e+03 2.337654676520759542e-04
1.137268634317158558e+03 2.123656547885178169e-04
1.138169084542271094e+03 1.912978068816640178e-04
1.139069534767383630e+03 1.705753252028508805e-04
1.139969984992496165e+03 1.523322274671077355e-04
1.140870435217608701e+03 1.377365804992427883e-04
1.141770885442721237e+03 1.263075969258857913e-04
1.142671335667833773e+03 1.169794274413370514e-04
1.143571785892946309e+03 1.089120934625859949e-04
1.144472236118059072e+03 1.018753482882717545e-04
1.145372686343171608e+03 9.609638409294293977e-05
1.146273136568284144e+03 9.167212364787504615e-05
1.147173586793396680e+03 8.828792124528142538e-05
1.148074037018509216e+03 8.557285310352541713e-05
1.148974487243621752e+03 8.339937066696120102e-05
1.149874937468734288e+03 8.180121524121693796e-05
1.150775387693846824e+03 8.088063644496823142e-05
1.151675837918959360e+03 8.066150670726908542e-05
1.152576288144071896e+03 8.099091562417327819e-05
1.153476738369184432e+03 8.156616476460930277e-05
1.154377188594297195e+03 8.186431709539196422e-05
1.155277638819409731e+03 8.123188811703287312e-05
1.156178089044522267e+03 7.937524144666331324e-05
1.157078539269634803e+03 7.658124615095491562e-05
1.157978989494747339e+03 7.346916280336017306e-05
1.158879439719859874e+03 7.062775098197571579e-05
1.159779889944972410e+03 6.835626081778767651e-05
1.160680340170084946e+03 6.657605696864580505e-05
1.161580790395197482e+03 6.502081146275176754e-05
1.162481240620310018e+03 6.354812005365906660e-05
1.163381690845422554e+03 6.216091199379711937e-05
1.164282141070535317e+03 6.091859544578115084e-05
1.165182591295647853e+03 5.989740014630720832e-05
1.166083041520760389e+03 5.911268283515137026e-05
1.166983491745872925e+03 5.854574931987579047e-05
1.167883941970985461e+03 5.821724559654745470e-05
1.168784392196097997e+03 5.813093068106445585e-05
1.169684842421210533e+03 5.815241903926296653e-05
1.170585292646323069e+03 5.805324852051517637e-05
1.171485742871435605e+03 5.772812996297230285e-05
1.172386193096548141e+03 5.732695437434901235e-05
1.173286643321660677e+03 5.704526909912814657e-05
1.174187093546773440e+03 5.697077262798560924e-05
1.175087543771885976e+03 5.718087492610203178e-05
1.175987993996998512e+03 5.774121781159430360e-05
1.176888444222111048e+03 5.851528017698476682e-05
1.177788894447223583e+03 5.915651107957876432e-05
1.178689344672336119e+03 5.949775304041738619e-05
1.179589794897448655e+03 5.976485313865860814e-05
1.180490245122561191e+03 6.021242036062750388e-05
1.181390695347673727e+03 6.084052493260806959e-05
1.182291145572786263e+03 6.146936853046182066e-05
1.183191595797898799e+03 6.186956063078341507e-05
1.184092046023011562e+03 6.193558227032679869e-05
1.184992496248124098e+03 6.175527739447224092e-05
1.185892946473236634e+03 6.145094302201875266e-05
1.186793396698349170e+03 6.118146831189907571e-05
1.187693846923461706e+03 6.115013008214211572e-05
1.188594297148574242e+03 6.149986877301801870e-05
1.189494747373686778e+03 6.227175214136798729e-05
1.190395197598799314e+03 6.343483252239981690e-05
1.191295647823911850e+03 6.491109746294722045e-05
1.192196098049024386e+03 6.665690608412405140e-05
1.193096548274136921e+03 6.872422095221351738e-05
1.193996998499249457e+03 7.119232935392429281e-05
1.194897448724362221e+03 7.398708624808023287e-05
1.195797898949474757e+03 7.672648999149637604e-05
1.196698349174587293e+03 7.894443112055281298e-05
1.197598799399699828e+03 8.054823811848921603e-05
1.198499249624812364e+03 8.185007168438666826e-05
1.199399699849924900e+03 8.322855098164756477e-05
1.200300150075037436e+03 8.487423694351950681e-05
1.201200600300149972e+03 8.683568074463251661e-05
1.202101050525262508e+03 8.913388313610973515e-05
1.203001500750375044e+03 9.163686183071353963e-05
1.203901950975487580e+03 9.399250528249534608e-05
1.204802401200600343e+03 9.590317045851352179e-05
1.205702851425712879e+03 9.753205197707936591e-05
1.206603301650825415e+03 9.933343148123277501e-05
1.207503751875937951e+03 1.016018890173056593e-04
1.208404202101050487e+03 1.044030206303626489e-04
1.209304652326163023e+03 1.077248625935125966e-04
1.210205102551275559e+03 1.116195785640633064e-04
1.211105552776388095e+03 1.160117404241372288e-04
1.212006003001500630e+03 1.206111824791213192e-04
1.212906453226613166e+03 1.254044832096845802e-04
1.213806903451725702e+03 1.305590630056707030e-04
1.214707353676838466e+03 1.358394541894815822e-04
1.215607803901951002e+03 1.407290867867225844e-04
1.216508254127063537e+03 1.447328817887872342e-04
1.217408704352176073e+03 1.471587490042177684e-04
1.218309154577288609e+03 1.468539330988609122e-04
1.219209604802401145e+03 1.432298275846895057e-04
1.220110055027513681e+03 1.376542920912093404e-04
1.221010505252626217e+03 1.324833047384319700e-04
1.221910955477738753e+03 1.291912546642706998e-04
1.222811405702851289e+03 1.280361522588016956e-04
1.223711855927963825e+03 1.287060133578630443e-04
1.224612306153076588e+03 1.308069740242271534e-04
1.225512756378189124e+03 1.338849742628192042e-04
1.226413206603301660e+03 1.373633332841774025e-04
1.227313656828414196e+03 1.405762243494963954e-04
1.228214107053526732e+03 1.430793450908001774e-04
1.229114557278639268e+03 1.452272278264790878e-04
1.230015007503751804e+03 1.479825543707780772e-04
1.230915457728864340e+03 1.522314133419346949e-04
1.231815907953976875e+03 1.583189299800821575e-04
1.232716358179089411e+03 1.660114553064175752e-04
1.233616808404201947e+03 1.747688973711311567e-04
1.234517258629314711e+03 1.839760385880282009e-04
1.235417708854427246e+03 1.934004618333738830e-04
1.236318159079539782e+03 2.031272937293331689e-04
1.237218609304652318e+03 2.133633946274596672e-04
1.238119059529764854e+03 2.245482773207003720e-04
1.239019509754877390e+03 2.373944994051192391e-04
1.239919959979989926e+03 2.522929279294090278e-04
1.240820410205102462e+03 2.684151348312035319e-04
1.241720860430214998e+03 2.846029522169963438e-04
1.242621310655327534e+03 3.007443922839607192e-04
1.243521760880440070e+03 3.170171735923328952e-04
1.244422211105552606e+03 3.332880795570742510e-04
1.245322661330665369e+03 3.498375845573904264e-04
1.246223111555777905e+03 3.670534257735519378e-04
1.247123561780890441e+03 3.845919287707409706e-04
1.248024012006002977e+03 4.008424973441190625e-04
1.248924462231115513e+03 4.137775448026189177e-04
1.249824912456228049e+03 4.224079413338343095e-04
1.250725362681340584e+03 4.268759455061278815e-04
1.251625812906453120e+03 4.277793428305058849e-04
1.252526263131565656e+03 4.260589171023331954e-04
1.253426713356678192e+03 4.229948968658371264e-04
1.254327163581790728e+03 4.193407745705164842e-04
1.255227613806903491e+03 4.148615018934970699e-04
1.256128064032016027e+03 4.100894995325575542e-04
1.257028514257128563e+03 4.066408227088419121e-04
1.257928964482241099e+03 4.054943677766242633e-04
1.258829414707353635e+03 4.063907682678674182e-04
1.259729864932466171e+03 4.082352187460213614e-04
1.260630315157578707e+03 4.098075356157117647e-04
1.261530765382691243e+03 4.109178278177578743e-04
1.262431215607803779e+03 4.126067004080751117e-04
1.263331665832916315e+03 4.159729658065284695e-04
1.264232116058028851e+03 4.213602264042956656e-04
1.265132566283141614e+03 4.285856382228418076e-04
1.266033016508254150e+03 4.373594496695996903e-04
1.266933466733366686e+03 4.472802391132269808e-04
1.267833916958479222e+03 4.576745188276421807e-04
1.268734367183591758e+03 4.677507647671130396e-04
1.269634817408704293e+03 4.767164506368999958e-04
1.270535267633816829e+03 4.842263443498974820e-04
1.271435717858929365e+03 4.905411829417193276e-04
1.272336168084041901e+03 4.961887849470209564e-04
1.273236618309154437e+03 5.019552106180055675e-04
1.274137068534266973e+03 5.085248981632413704e-04
1.275037518759379736e+03 5.157179576801826154e-04
1.275937968984492272e+03 5.228996451039163128e-04
1.276838419209604808e+03 5.302818468735112731e-04
1.277738869434717344e+03 5.389478313653109191e-04
1.278639319659829880e+03 5.490022469761122363e-04
1.279539769884942416e+03 5.595174394961079534e-04
1.280440220110054952e+03 5.704549425613402542e-04
1.281340670335167488e+03 5.820790801570205559e-04
1.282241120560280024e+03 5.937477207226733202e-04
1.283141570785392560e+03 6.050470180719129398e-04
1.284042021010505096e+03 6.165582824125299000e-04
1.284942471235617859e+03 6.286467365205426457e-04
1.285842921460730395e+03 6.406127126179645683e-04
1.286743371685842931e+03 6.515646609871887955e-04
1.287643821910955467e+03 6.612991600002671166e-04
1.288544272136068003e+03 6.703951020695816899e-04
1.289444722361180538e+03 6.796002131142666160e-04
1.290345172586293074e+03 6.888302681294982896e-04
1.291245622811405610e+03 6.968992787694468271e-04
1.292146073036518146e+03 7.024935939280654721e-04
1.293046523261630682e+03 7.058913000975802982e-04
1.293946973486743218e+03 7.086687996097655248e-04
1.294847423711855754e+03 7.119548851632736186e-04
1.295747873936968517e+03 7.158763259484116548e-04
1.296648324162081053e+03 7.202783336323185810e-04
1.297548774387193589e+03 7.254833421618400594e-04
1.298449224612306125e+03 7.319582952039943883e-04
1.299349674837418661e+03 7.395082120395502466e-04
1.300250125062531197e+03 7.467482237565195927e-04
1.301150575287643733e+03 7.512853814630873284e-04
1.302051025512756269e+03 7.516191539557976831e-04
1.302951475737868805e+03 7.491393130887545864e-04
1.303851925962981340e+03 7.467786183262875490e-04
1.304752376188093876e+03 7.466728013697217572e-04
1.305652826413206640e+03 7.494940965204132614e-04
1.306553276638319176e+03 7.552081987495986443e-04
1.307453726863431712e+03 7.636961326692140624e-04
1.308354177088544247e+03 7.746972887031116283e-04
1.309254627313656783e+03 7.879966483555617390e-04
1.310155077538769319e+03 8.038696999591058920e-04
1.311055527763881855e+03 8.230188294114502328e-04
1.311955977988994391e+03 8.456866441069240542e-04
1.312856428214106927e+03 8.707847773533381559e-04
1.313756878439219463e+03 8.969484619040863282e-04
1.314657328664331999e+03 9.245493206972002281e-04
1.315557778889444762e+03 9.553389820952629900e-04
1.316458229114557298e+03 9.900802658242458150e-04
1.317358679339669834e+03 1.027692252294598379e-03
1.318259129564782370e+03 1.066428647161438929e-03
1.319159579789894906e+03 1.105468703863307341e-03
1.320060030015007442e+03 1.145283678177854130e-03
1.320960480240119978e+03 1.187001140911175768e-03
1.321860930465232514e+03 1.230748871745364088e-03
1.322761380690345050e+03 1.275882722699941225e-03
1.323661830915457585e+03 1.323277774656657054e-03
1.324562281140570121e+03 1.374348215176290260e-03
1.325462731365682885e+03 1.428031698825161762e-03
1.326363181590795421e+03 1.480922693777658337e-03
1.327263631815907956e+03 1.531990399665060596e-03
1.328164082041020492e+03 1.583813264330926176e-03
1.329064532266133028e+03 1.639079471338517361e-03
1.329964982491245564e+03 1.699367931341738561e-03
1.330865432716358100e+03 1.763800740489615852e-03
1.331765882941470636e+03 1.828276456090565045e-03
1.332666333166583172e+03 1.889010237656376127e-03
1.333566783391695708e+03 1.946741598641437516e-03
1.334467233616808244e+03 2.004865794022191519e-03
1.335367683841921007e+03 2.064671112108446786e-03
1.336268134067033543e+03 2.124727581077204015e-03
1.337168584292146079e+03 2.185625901003755613e-03
1.338069034517258615e+03 2.251610521898035015e-03
1.338969484742371151e+03 2.327550369512760512e-03
1.339869934967483687e+03 2.416107919737530297e-03
1.340770385192596223e+03 2.515975367709042624e-03
1.341670835417708759e+03 2.624569623589232542e-03
1.342571285642821294e+03 2.739220238727074243e-03
1.343471735867933830e+03 2.852735825398570579e-03
1.344372186093046366e+03 2.955729418619531222e-03
1.345272636318158902e+03 3.046229098250651229e-03
1.346173086543271666e+03 3.133688177054124325e-03
1.347073536768384201e+03 3.232939296782880601e-03
1.347973986993496737e+03 3.352830754891393539e-03
1.348874437218609273e+03 3.494020267908602446e-03
1.349774887443721809e+03 3.656733830525512631e-03
1.350675337668834345e+03 3.840032903135469355e-03
1.351575787893946881e+03 4.034194003502094075e-03
1.352476238119059417e+03 4.228029763533570039e-03
1.353376688344171953e+03 4.415665425441885755e-03
1.354277138569284489e+03 4.593681872897876876e-03
1.355177588794397025e+03 4.761558089341682426e-03
1.356078039019509788e+03 4.927127620896120004e-03
1.356978489244622324e+03 5.107245106399372660e-03
1.357878939469734860e+03 5.311381799596255095e-03
1.358779389694847396e+03 5.527853048015177011e-03
1.359679839919959932e+03 5.741135901451850307e-03
1.360580290145072468e+03 5.951919762117231262e-03
1.361480740370185003e+03 6.177780005540097798e-03
1.362381190595297539e+03 6.434825477062375634e-03
1.363281640820410075e+03 6.725500471273630938e-03
1.364182091045522611e+03 7.047867471882887994e-03
1.365082541270635147e+03 7.399133526390259952e-03
1.365982991495747910e+03 7.779490869753656265e-03
1.366883441720860446e+03 8.189325682965686512e-03
1.367783891945972982e+03 8.618675529633924512e-03
1.368684342171085518e+03 9.064967930026316539e-03
1.369584792396198054e+03 9.548898629813016084e-03
1.370485242621310590e+03 1.010447859133828050e-02
1.371385692846423126e+03 1.075036979004659506e-02
1.372286143071535662e+03 1.145841536010928398e-02
1.373186593296648198e+03 1.217086524804776929e-02
1.374087043521760734e+03 1.285280918693276590e-02
1.374987493746873270e+03 1.353787962140643765e-02
1.375887943971986033e+03 1.430560301455735539e-02
1.376788394197098569e+03 1.521616978616008656e-02
1.377688844422211105e+03 1.628270284763105868e-02
1.378589294647323641e+03 1.749586260158055365e-02
1.379489744872436177e+03 1.884676635116622201e-02
1.380390195097548713e+03 2.033213800873584151e-02
1.381290645322661248e+03 2.195634502442904076e-02
1.382191095547773784e+03 2.375474458425489571e-02
1.383091545772886320e+03 2.582633088641369742e-02
1.383991995997998856e+03 2.827077267144295289e-02
1.384892446223111392e+03 3.114134247568876857e-02
1.385792896448224155e+03 3.439802091104599696e-02
1.386693346673336691e+03 3.786193410548379518e-02
1.387593796898449227e+03 4.130695487138191097e-02
1.388494247123561763e+03 4.455567455376902020e-02
1.389394697348674299e+03 4.750923133729120090e-02
1.390295147573786835e+03 5.011544542042697253e-02
1.391195597798899371e+03 5.249754265360728062e-02
1.392096048024011907e+03 5.517406941063217329e-02
1.392996498249124443e+03 5.853288391778387750e-02
1.393896948474236979e+03 6.214017543518872422e-02
1.394797398699349515e+03 6.509092773641901586e-02
1.395697848924462278e+03 6.692816492343359180e-02
1.396598299149574814e+03 6.777133973911234066e-02
1.397498749374687350e+03 6.776335273118293256e-02
1.398399199599799886e+03 6.668599470607591839e-02
1.399299649824912422e+03 6.415197304936191836e-02
1.400200100050024957e+03 6.005788355792775896e-02
1.401100550275137493e+03 5.467078957267405143e-02
1.402001000500250029e+03 4.854666273198041809e-02
1.402901450725362565e+03 4.231917221699375842e-02
1.403801900950475101e+03 3.648213544875000131e-02
1.404702351175587637e+03 3.133889548595566316e-02
1.405602801400700173e+03 2.697860323278652300e-02
1.406503251625812936e+03 2.333174477756268239e-02
1.407403701850925472e+03 2.028030246885463919e-02
1.408304152076038008e+03 1.771872377029669668e-02
1.409204602301150544e+03 1.557474268100478287e-02
1.410105052526263080e+03 1.378278548908864858e-02
1.411005502751375616e+03 1.226746949408830632e-02
1.411905952976488152e+03 1.097618739814708311e-02
1.412806403201600688e+03 9.881945508424670038e-03
1.413706853426713224e+03 8.960848574552912615e-03
1.414607303651825760e+03 8.191488917859188201e-03
1.415507753876938295e+03 7.549205360928445789e-03
1.416408204102051059e+03 7.001564720457625034e-03
1.417308654327163595e+03 6.517935747206028696e-03
1.418209104552276131e+03 6.075070352488300823e-03
1.419109554777388666e+03 5.658419998887609381e-03
1.420010005002501202e+03 5.267018607731560435e-03
1.420910455227613738e+03 4.906571722562885589e-03
1.421810905452726274e+03 4.573733174279389496e-03
1.422711355677838810e+03 4.262329095239494707e-03
1.423611805902951346e+03 3.975849844601778323e-03
1.424512256128063882e+03 3.719141937237502912e-03
1.425412706353176418e+03 3.490811624969179187e-03
1.426313156578289181e+03 3.288670211606885274e-03
1.427213606803401717e+03 3.112229026818757929e-03
1.428114057028514253e+03 2.955587656452469611e-03
1.429014507253626789e+03 2.806455741778316956e-03
1.429914957478739325e+03 2.661637978922572895e-03
1.430815407703851861e+03 2.528478938679672421e-03
1.431715857928964397e+03 2.409232133521378282e-03
1.432616308154076933e+03 2.300115590324253168e-03
1.433516758379189469e+03 2.197415289856200545e-03
1.434417208604302004e+03 2.099029424717085805e-03
1.435317658829414540e+03 2.006070277651110425e-03
1.436218109054527304e+03 1.921329689746898535e-03
1.437118559279639840e+03 1.845415542172338481e-03
1.438019009504752376e+03 1.777310942487774284e-03
1.438919459729864911e+03 1.716677220564603043e-03
1.439819909954977447e+03 1.664311881013425540e-03
1.440720360180089983e+03 1.619959438662156321e-03
1.441620810405202519e+03 1.581179130676132723e-03
1.442521260630315055e+03 1.544176045957589049e-03
1.443421710855427591e+03 1.504567983115060554e-03
1.444322161080540127e+03 1.459567696125508305e-03
1.445222611305652663e+03 1.408760570832432108e-03
1.446123061530765426e+03 1.355959673897730484e-03
1.447023511755877962e+03 1.307792752060101590e-03
1.447923961980990498e+03 1.268036580992612256e-03
1.448824412206103034e+03 1.235497269063044095e-03
1.449724862431215570e+03 1.206034395858664350e-03
1.450625312656328106e+03 1.176423954527427811e-03
1.451525762881440642e+03 1.146219990443957939e-03
1.452426213106553178e+03 1.117671678919907258e-03
1.453326663331665713e+03 1.092531918289832947e-03
1.454227113556778249e+03 1.069613969192285963e-03
1.455127563781890785e+03 1.046471628972121771e-03
1.456028014007003321e+03 1.021305837162590682e-03
1.456928464232116085e+03 9.946143815383085441e-04
1.457828914457228620e+03 9.698932649852329670e-04
1.458729364682341156e+03 9.508720220990303550e-04
1.459629814907453692e+03 9.373178106861897391e-04
1.460530265132566228e+03 9.246663381770536209e-04
1.461430715357678764e+03 9.088811417386047408e-04
1.462331165582791300e+03 8.898560124661427685e-04
1.463231615807903836e+03 8.703039073349248637e-04
1.464132066033016372e+03 8.528590544745588437e-04
1.465032516258128908e+03 8.381664684203289986e-04
1.465932966483241444e+03 8.254133847482617806e-04
1.466833416708354207e+03 8.133327841303375364e-04
1.467733866933466743e+03 8.009889836108676506e-04
1.468634317158579279e+03 7.874447906790555318e-04
1.469534767383691815e+03 7.723643812787808934e-04
1.470435217608804351e+03 7.567206796359954909e-04
1.471335667833916887e+03 7.410419628313123005e-04
1.472236118059029423e+03 7.246723085821415999e-04
1.473136568284141958e+03 7.068871227218555828e-04
1.474037018509254494e+03 6.879034423363190659e-04
1.474937468734367030e+03 6.687459145999868860e-04
1.475837918959479566e+03 6.509456616170131247e-04
1.476738369184592329e+03 6.355252857599659943e-04
1.477638819409704865e+03 6.223511768132746792e-04
1.478539269634817401e+03 6.108072938318841660e-04
1.479439719859929937e+03 6.002761529487758881e-04
1.480340170085042473e+03 5.903245567896451326e-04
1.481240620310155009e+03 5.809756379660677367e-04
1.482141070535267545e+03 5.722880646412396334e-04
1.483041520760380081e+03 5.643169022109144123e-04
1.483941970985492617e+03 5.571996808726573840e-04
1.484842421210605153e+03 5.499622854534188003e-04
1.485742871435717689e+03 5.410033387878353207e-04
1.486643321660830452e+03 5.298273027787707727e-04
1.487543771885942988e+03 5.176270316870273469e-04
1.488444222111055524e+03 5.063124724113471017e-04
1.489344672336168060e+03 4.972540503971661831e-04
1.490245122561280596e+03 4.905227161096693562e-04
1.491145572786393132e+03 4.856316817460317381e-04
1.492046023011505667e+03 4.824281963078747102e-04
1.492946473236618203e+03 4.807396148387738533e-04
1.493846923461730739e+03 4.801426788220956193e-04
1.494747373686843275e+03 4.800976982890656436e-04
1.495647823911955811e+03 4.793938967762575239e-04
1.496548274137068574e+03 4.770997022921281863e-04
1.497448724362181110e+03 4.740658097231123676e-04
1.498349174587293646e+03 4.714527246043748458e-04
1.499249624812406182e+03 4.691834020601863835e-04
1.500150075037518718e+03 4.662007678041523990e-04
1.501050525262631254e+03 4.618379089569944599e-04
1.501950975487743790e+03 4.565935795235652418e-04
1.502851425712856326e+03 4.515892986778223452e-04
1.503751875937968862e+03 4.468156863602898215e-04
1.504652326163081398e+03 4.406609002135009642e-04
1.505552776388193934e+03 4.316869961625272771e-04
1.506453226613306470e+03 4.210762841242045697e-04
1.507353676838419233e+03 4.118106353030781866e-04
1.508254127063531769e+03 4.052717189593753409e-04
1.509154577288644305e+03 4.006051469278787761e-04
1.510055027513756841e+03 3.966994621976881945e-04
1.510955477738869376e+03 3.933046547644646258e-04
1.511855927963981912e+03 3.905513865636186209e-04
1.512756378189094448e+03 3.881987075190256519e-04
1.513656828414206984e+03 3.856238161890639571e-04
1.514557278639319520e+03 3.821712986438929242e-04
1.515457728864432056e+03 3.771887620565234967e-04
1.516358179089544592e+03 3.710236729632545682e-04
1.517258629314657355e+03 3.652686665248624565e-04
1.518159079539769891e+03 3.609745416448273685e-04
1.519059529764882427e+03 3.574269522538662982e-04
1.519959979989994963e+03 3.532915371088787924e-04
1.520860430215107499e+03 3.486868576050981177e-04
1.521760880440220035e+03 3.448602711406032980e-04
1.522661330665332571e+03 3.422959941437844940e-04
1.523561780890445107e+03 3.402438032215170235e-04
1.524462231115557643e+03 3.372919076502004215e-04
1.525362681340670179e+03 3.327111499593436825e-04
1.526263131565782714e+03 3.271417150432264290e-04
1.527163581790895478e+03 3.221559070730427841e-04
1.528064032016008014e+03 3.193372973217223592e-04
1.528964482241120550e+03 3.190669548011562814e-04
1.529864932466233086e+03 3.203610535729444929e-04
1.530765382691345621e+03 3.218771453470341401e-04
1.531665832916458157e+03 3.229505637080140406e-04
1.532566283141570693e+03 3.237172144822444693e-04
1.533466733366683229e+03 3.239757666753749336e-04
1.534367183591795765e+03 3.227888424208621401e-04
1.535267633816908301e+03 3.194222878195969104e-04
1.536168084042020837e+03 3.145106427814503493e-04
1.537068534267133600e+03 3.095401079636501940e-04
1.537968984492246136e+03 3.055589049636110374e-04
1.538869434717358672e+03 3.026073354787316930e-04
1.539769884942471208e+03 2.999320478304683059e-04
1.540670335167583744e+03 2.968398456254459907e-04
1.541570785392696280e+03 2.932784315729946331e-04
1.542471235617808816e+03 2.897226559213442187e-04
1.543371685842921352e+03 2.865734402217770364e-04
1.544272136068033888e+03 2.838893519722713752e-04
1.545172586293146423e+03 2.814903767156479511e-04
1.546073036518258959e+03 2.793511747627377040e-04
1.546973486743371723e+03 2.780423663093017309e-04
1.547873936968484259e+03 2.779954196778667967e-04
1.548774387193596795e+03 2.790352187372418212e-04
1.549674837418709330e+03 2.805671052468116581e-04
1.550575287643821866e+03 2.819097826246836475e-04
1.551475737868934402e+03 2.825819162457320196e-04
1.552376188094046938e+03 2.825697636498837096e-04
1.553276638319159474e+03 2.827324501726501908e-04
1.554177088544272010e+03 2.841544419809236520e-04
1.555077538769384546e+03 2.873013404302156531e-04
1.555977988994497082e+03 2.921298446857351701e-04
1.556878439219609618e+03 2.984037364465277117e-04
1.557778889444722381e+03 3.060131854631026110e-04
1.558679339669834917e+03 3.158737446255742974e-04
1.559579789894947453e+03 3.296076720018680959e-04
1.560480240120059989e+03 3.479702912756014207e-04
1.561380690345172525e+03 3.705644930330914428e-04
1.562281140570285061e+03 3.973576884310478833e-04
1.563181590795397597e+03 4.292563326617531089e-04
1.564082041020510133e+03 4.659179106306281866e-04
1.564982491245622668e+03 5.039872231748312743e-04
1.565882941470735204e+03 5.371529815791284673e-04
1.566783391695847740e+03 5.571307222407540470e-04
1.567683841920960504e+03 5.577163454762200986e-04
1.568584292146073039e+03 5.386125630446542481e-04
1.569484742371185575e+03 5.033601064035071043e-04
1.570385192596298111e+03 4.566079044782595290e-04
1.571285642821410647e+03 4.037024526929827955e-04
1.572186093046523183e+03 3.497453508201281490e-04
1.573086543271635719e+03 2.983116865763147871e-04
1.573986993496748255e+03 2.524334309164699740e-04
1.574887443721860791e+03 2.142067966189482582e-04
1.575787893946973327e+03 1.836879780043662179e-04
1.576688344172085863e+03 1.597747580241178729e-04
1.577588794397198626e+03 1.410469194327447875e-04
1.578489244622311162e+03 1.263003818099467574e-04
1.579389694847423698e+03 1.146728652550161437e-04
1.580290145072536234e+03 1.054565268963328264e-04
1.581190595297648770e+03 9.805542367511688986e-05
1.582091045522761306e+03 9.200936156601911505e-05
1.582991495747873842e+03 8.698327379569799095e-05
1.583891945972986377e+03 8.273721366787530789e-05
1.584792396198098913e+03 7.909825355606106946e-05
1.585692846423211449e+03 7.593983923741894505e-05
1.586593296648323985e+03 7.316770171015062410e-05
1.587493746873436749e+03 7.071039105567845907e-05
1.588394197098549284e+03 6.851287283417044295e-05
1.589294647323661820e+03 6.653213092600058370e-05
1.590195097548774356e+03 6.473409504496971823e-05
1.591095547773886892e+03 6.309145588487986421e-05
1.591995997998999428e+03 6.158208532120385871e-05
1.592896448224111964e+03 6.018787625063364862e-05
1.593796898449224500e+03 5.889387834851070514e-05
1.594697348674337036e+03 5.768764577733506092e-05
1.595597798899449572e+03 5.655873891636674280e-05
1.596498249124562108e+03 5.549833952108717145e-05
1.597398699349674871e+03 5.449895045537590121e-05
1.598299149574787407e+03 5.355415920301369651e-05
1.599199599799899943e+03 5.265844998699232573e-05
1.600100050025012479e+03 5.180705329772802078e-05
1.601000500250125015e+03 5.099582447398131040e-05
1.601900950475237551e+03 5.022114503844974851e-05
1.602801400700350086e+03 4.947984199656417861e-05
1.603701850925462622e+03 4.876912142111055899e-05
1.604602301150575158e+03 4.808651347714817058e-05
1.605502751375687694e+03 4.742982666832696155e-05
1.606403201600800230e+03 4.679710956182373769e-05
1.607303651825912766e+03 4.618661861367908891e-05
1.608204102051025529e+03 4.559679099760552488e-05
1.609104552276138065e+03 4.502622155889963686e-05
1.610005002501250601e+03 4.447364318601146235e-05
1.610905452726363137e+03 4.393791002691607679e-05
1.611805902951475673e+03 4.341798308396710470e-05
1.612706353176588209e+03 4.291291780576825347e-05
1.613606803401700745e+03 4.242185336256164421e-05
1.614507253626813281e+03 4.194400334631317296e-05
1.615407703851925817e+03 4.147864768089642149e-05
1.616308154077038353e+03 4.102512556374288274e-05
1.617208604302150889e+03 4.058282928965098663e-05
1.618109054527263652e+03 4.015119883151355260e-05
1.619009504752376188e+03 3.972971707250785660e-05
1.619909954977488724e+03 3.931790560067694373e-05
1.620810405202601260e+03 3.891532099038519420e-05
1.621710855427713796e+03 3.852155150645289819e-05
1.622611305652826331e+03 3.813621417620241018e-05
1.623511755877938867e+03 3.775895218257092228e-05
1.624412206103051403e+03 3.738943253811013030e-05
1.625312656328163939e+03 3.702734400529137152e-05
1.626213106553276475e+03 3.667239523331178070e-05
1.627113556778389011e+03 3.632431308560981248e-05
1.628014007003501774e+03 3.598284113574561798e-05
1.628914457228614310e+03 3.564773831222488060e-05
1.629814907453726846e+03 3.531877767535232011e-05
1.630715357678839382e+03 3.499574531135414356e-05
1.631615807903951918e+03 3.467843933085185175e-05
1.632516258129064454e+03 3.436666896036930639e-05
1.633416708354176990e+03 3.406025371692898598e-05
1.634317158579289526e+03 3.375902265698280965e-05
1.635217608804402062e+03 3.346281369196612052e-05
1.636118059029514598e+03 3.317147296364699789e-05
1.637018509254627133e+03 3.288485427324566799e-05
1.637918959479739897e+03 3.260281855896980994e-05
1.638819409704852433e+03 3.232523341721385432e-05
1.639719859929964969e+03 3.205197266319225315e-05
1.640620310155077505e+03 3.178291592724892360e-05
1.641520760380190040e+03 3.151794828347050239e-05
1.642421210605302576e+03 3.125695990760494103e-05
1.643321660830415112e+03 3.099984576159383568e-05
1.644222111055527648e+03 3.074650530230860825e-05
1.645122561280640184e+03 3.049684221232141278e-05
1.646023011505752720e+03 3.025076415077005532e-05
1.646923461730865256e+03 3.000818252256031316e-05
1.647823911955978019e+03 2.976901226432847466e-05
1.648724362181090555e+03 2.953317164573789270e-05
1.649624812406203091e+03 2.930058208482116383e-05
1.650525262631315627e+03 2.907116797620212101e-05
1.651425712856428163e+03 2.884485653114096971e-05
1.652326163081540699e+03 2.862157762844659247e-05
1.653226613306653235e+03 2.840126367538198891e-05
1.654127063531765771e+03 2.818384947777687920e-05
1.655027513756878307e+03 2.796927211862398620e-05
1.655927963981990843e+03 2.775747084450492090e-05
1.656828414207103378e+03 2.754838695924695095e-05
1.657728864432216142e+03 2.734196372426396366e-05
1.658629314657328678e+03 2.713814626508528251e-05
1.659529764882441214e+03 2.693688148361045689e-05
1.660430215107553749e+03 2.673811797567752339e-05
1.661330665332666285e+03 2.654180595355682806e-05
1.662231115557778821e+03 2.634789717302246542e-05
1.663131565782891357e+03 2.615634486467456591e-05
1.664032016008003893e+03 2.596710366921839265e-05
1.664932466233116429e+03 2.578012957642589369e-05
1.665832916458228965e+03 2.559537986752804595e-05
1.666733366683341501e+03 2.541281306080608353e-05
1.667633816908454037e+03 2.523238886016913708e-05
1.668534267133566800e+03 2.505406810651782226e-05
1.669434717358679336e+03 2.487781273171498875e-05
1.670335167583791872e+03 2.470358571499234627e-05
1.671235617808904408e+03 2.453135104163744231e-05
1.672136068034016944e+03 2.436107366381674841e-05
1.673036518259129480e+03 2.419271946340154574e-05
1.673936968484242016e+03 2.402625521667009031e-05
1.674837418709354552e+03 2.386164856077371412e-05
1.675737868934467087e+03 2.369886796185590428e-05
1.676638319159579623e+03 2.353788268473007195e-05
1.677538769384692159e+03 2.337866276401603721e-05
1.678439219609804923e+03 2.322117897665657132e-05
1.679339669834917459e+03 2.306540281572839159e-05
1.680240120060029994e+03 2.291130646547480810e-05
1.681140570285142530e+03 2.275886277748975941e-05
1.682041020510255066e+03 2.260804524798738178e-05
1.682941470735367602e+03 2.245882799609840949e-05
1.683841920960480138e+03 2.231118574313255853e-05
1.684742371185592674e+03 2.216509379275866381e-05
1.685642821410705210e+03 2.202052801204682471e-05
1.686543271635817746e+03 2.187746481333236590e-05
1.687443721860930282e+03 2.173588113685191936e-05
1.688344172086043045e+03 2.159575443411583903e-05
1.689244622311155581e+03 2.145706265197395245e-05
1.690145072536268117e+03 2.131978421734163234e-05
1.691045522761380653e+03 2.118389802255152049e-05
1.691945972986493189e+03 2.104938341129925893e-05
1.692846423211605725e+03 2.091622016515134948e-05
1.693746873436718261e+03 2.078438849059026250e-05
1.694647323661830796e+03 2.065386900656870402e-05
1.695547773886943332e+03 2.052464273254654586e-05
1.696448224112055868e+03 2.039669107698960227e-05
1.697348674337168404e+03 2.026999582630749477e-05
1.698249124562281168e+03 2.014453913420729170e-05
1.699149574787393703e+03 2.002030351144634752e-05
1.700050025012506239e+03 1.989727181596564974e-05
1.700950475237618775e+03 1.977542724338140649e-05
1.701850925462731311e+03 1.965475331782552023e-05
1.702751375687843847e+03 1.953523388311286031e-05
1.703651825912956383e+03 1.941685309422455338e-05
1.704552276138068919e+03 1.929959540909107258e-05
1.705452726363181455e+03 1.918344558066288434e-05
1.706353176588293991e+03 1.906838864925599798e-05
1.707253626813406527e+03 1.895440993515832008e-05
1.708154077038519290e+03 1.884149503149025443e-05
1.709054527263631826e+03 1.872962979730333837e-05
1.709954977488744362e+03 1.861880035091085787e-05
1.710855427713856898e+03 1.850899306343794577e-05
1.711755877938969434e+03 1.840019455258443766e-05
1.712656328164081970e+03 1.829239167658929804e-05
1.713556778389194506e+03 1.818557152839003671e-05
1.714457228614307041e+03 1.807972142996936018e-05
1.715357678839419577e+03 1.797482892688002525e-05
1.716258129064532113e+03 1.787088178294071866e-05
1.717158579289644649e+03 1.776786797510028292e-05
1.718059029514757185e+03 1.766577568845686440e-05
1.718959479739869948e+03 1.756459331143167882e-05
1.719859929964982484e+03 1.746430943108901875e-05
1.720760380190095020e+03 1.736491282859675326e-05
1.721660830415207556e+03 1.726639247482276968e-05
1.722561280640320092e+03 1.716873752606243100e-05
1.723461730865432628e+03 1.707193731989065888e-05
1.724362181090545164e+03 1.697598137113491207e-05
1.725262631315657700e+03 1.688085936796699326e-05
1.726163081540770236e+03 1.678656116810360154e-05
1.727063531765882772e+03 1.669307679511787998e-05
1.727963981990995308e+03 1.660039643485442998e-05
1.728864432216108071e+03 1.650851043194433314e-05
1.729764882441220607e+03 1.641740928641816465e-05
1.730665332666333143e+03 1.632708365041211934e-05
1.731565782891445679e+03 1.623752432496463469e-05
1.732466233116558215e+03 1.614872225690084444e-05
1.733366683341670750e+03 1.606066853580006510e-05
1.734267133566783286e+03 1.597335439104605114e-05
1.735167583791895822e+03 1.588677118895483840e-05
1.736068034017008358e+03 1.580091042997964381e-05
1.736968484242120894e+03 1.571576374598856923e-05
1.737868934467233430e+03 1.563132289761310712e-05
1.738769384692346193e+03 1.554757977166667889e-05
1.739669834917458729e+03 1.546452637862817794e-05
1.740570285142571265e+03 1.538215485019087992e-05
1.741470735367683801e+03 1.530045743687312882e-05
1.742371185592796337e+03 1.521942650568934023e-05
1.743271635817908873e+03 1.513905453788016482e-05
1.744172086043021409e+03 1.505933412669830019e-05
1.745072536268133945e+03 1.498025797524922937e-05
1.745972986493246481e+03 1.490181889438569849e-05
1.746873436718359017e+03 1.482400980065303344e-05
1.747773886943471553e+03 1.474682371428432465e-05
1.748674337168584316e+03 1.467025375724497700e-05
1.749574787393696852e+03 1.459429315132279283e-05
1.750475237618809388e+03 1.451893521626447405e-05
1.751375687843921924e+03 1.444417336795594293e-05
1.752276138069034459e+03 1.437000111664604630e-05
1.753176588294146995e+03 1.429641206521077829e-05
1.754077038519259531e+03 1.422339990745926363e-05
1.754977488744372067e+03 1.415095842647792170e-05
1.755877938969484603e+03 1.407908149301295379e-05
1.756778389194597139e+03 1.400776306389038611e-05
1.757678839419709675e+03 1.393699718047130022e-05
1.758579289644822438e+03 1.386677796714219498e-05
1.759479739869934974e+03 1.379709962983971271e-05
1.760380190095047510e+03 1.372795645460828264e-05
1.761280640320160046e+03 1.365934280618891829e-05
1.762181090545272582e+03 1.359125312664067477e-05
1.763081540770385118e+03 1.352368193399140993e-05
1.763981990995497654e+03 1.345662382091854249e-05
1.764882441220610190e+03 1.339007345345813818e-05
1.765782891445722726e+03 1.332402556974255962e-05
1.766683341670835262e+03 1.325847497876457075e-05
1.767583791895947797e+03 1.319341655916863939e-05
1.768484242121060333e+03 1.312884525806751535e-05
1.769384692346173097e+03 1.306475608988387560e-05
1.770285142571285633e+03 1.300114413521744313e-05
1.771185592796398169e+03 1.293800453973360009e-05
1.772086043021510704e+03 1.287533251307843005e-05
1.772986493246623240e+03 1.281312332781303199e-05
1.773886943471735776e+03 1.275137231837271500e-05
1.774787393696848312e+03 1.269007488004532409e-05
1.775687843921960848e+03 1.262922646797230034e-05
1.776588294147073384e+03 1.256882259616885693e-05
1.777488744372185920e+03 1.250885883656483626e-05
1.778389194597298456e+03 1.244933081806435264e-05
1.779289644822411219e+03 1.239023422562487434e-05
1.780190095047523755e+03 1.233156479935458124e-05
1.781090545272636291e+03 1.227331833362724250e-05
1.781990995497748827e+03 1.221549067621554938e-05
1.782891445722861363e+03 1.215807772744058747e-05
1.783791895947973899e+03 1.210107543933869503e-05
1.784692346173086435e+03 1.204447981484442524e-05
1.785592796398198971e+03 1.198828690698957482e-05
1.786493246623311506e+03 1.193249281811733576e-05
1.787393696848424042e+03 1.187709369911196619e-05
1.788294147073536578e+03 1.182208574864334041e-05
1.789194597298649342e+03 1.176746521242575264e-05
1.790095047523761878e+03 1.171322838249095615e-05
1.790995497748874413e+03 1.165937159647478696e-05
1.791895947973986949e+03 1.160589123691816688e-05
1.792796398199099485e+03 1.155278373057928563e-05
1.793696848424212021e+03 1.150004554776148702e-05
1.794597298649324557e+03 1.144767320165112458e-05
1.795497748874437093e+03 1.139566324766924432e-05
1.796398199099549629e+03 1.134401228283478699e-05
1.797298649324662165e+03 1.129271694513979967e-05
1.798199099549774701e+03 1.124177391293531147e-05
1.799099549774887464e+03 1.119117990432988592e-05
1.800000000000000000e+03 1.114093167659771775e-05
