0.000000000000000000e+00 9.205903285652305718e-04
9.004502251125562351e-01 1.201665363773735725e-03
1.800900450225112470e+00 1.594443140025903274e-03
2.701350675337668594e+00 2.115504637464689797e-03
3.601800900450224940e+00 2.708067289975438826e-03
4.502251125562780842e+00 3.188798170468595036e-03
5.402701350675337189e+00 3.391082431576443110e-03
6.303151575787893535e+00 3.345008379342563447e-03
7.203601800900449881e+00 3.082712541072416945e-03
8.104052026013006227e+00 2.598642898876239466e-03
9.004502251125561685e+00 2.031989954667967179e-03
9.904952476238118919e+00 1.537891374880271788e-03
1.080540270135067438e+01 1.163863766743524798e-03
1.170585292646323161e+01 8.945348407130385713e-04
1.260630315157578707e+01 7.018866025729529959e-04
1.350675337668834430e+01 5.623811553368954002e-04
1.440720360180089976e+01 4.593712448566493098e-04
1.530765382691345522e+01 3.816737595918503188e-04
1.620810405202601245e+01 3.218688425690745172e-04
1.710855427713856969e+01 2.750219851287614113e-04
1.800900450225112337e+01 2.377836775829441902e-04
1.890945472736368060e+01 2.078192829607427650e-04
1.980990495247623784e+01 1.834126215952533087e-04
2.071035517758879507e+01 1.631580334061331374e-04
2.161080540270134875e+01 1.458861585428725886e-04
2.251125562781390599e+01 1.308871066550582074e-04
2.341170585292646322e+01 1.178890949799141609e-04
2.431215607803901690e+01 1.067039879369751320e-04
2.521260630315157414e+01 9.708350439180575293e-05
2.611305652826413137e+01 8.877230412107906508e-05
2.701350675337668861e+01 8.155356935344902712e-05
2.791395697848924229e+01 7.525564856670715914e-05
2.881440720360179952e+01 6.974165397948594376e-05
2.971485742871435676e+01 6.489120914820480351e-05
3.061530765382691044e+01 6.058327374315224313e-05
3.151575787893946767e+01 5.671457701637515043e-05
3.241620810405202491e+01 5.323186826169557260e-05
3.331665832916458214e+01 5.009511953223178986e-05
3.421710855427713938e+01 4.726406770538693099e-05
3.511755877938969661e+01 4.471499993312367372e-05
3.601800900450224674e+01 4.238540733163877758e-05
3.691845922961480397e+01 4.018371508877585001e-05
3.781890945472736121e+01 3.809303714040267419e-05
3.871935967983991844e+01 3.618041973012628865e-05
3.961980990495247568e+01 3.448362011952099503e-05
4.052026013006503291e+01 3.293570907731617985e-05
4.142071035517759015e+01 3.143411605116781181e-05
4.232116058029014027e+01 2.998374568218897736e-05
4.322161080540269751e+01 2.867152032979971790e-05
4.412206103051525474e+01 2.755770518142143581e-05
4.502251125562781198e+01 2.663154406510859806e-05
4.592296148074036921e+01 2.576756662425271530e-05
4.682341170585292645e+01 2.476444153889252383e-05
4.772386193096548368e+01 2.357631023205465455e-05
4.862431215607803381e+01 2.236340589599495872e-05
4.952476238119059104e+01 2.126092277232258999e-05
5.042521260630314828e+01 2.030201787001233746e-05
5.132566283141570551e+01 1.947463818568474545e-05
5.222611305652826275e+01 1.876222387337777352e-05
5.312656328164081998e+01 1.815555768557730208e-05
5.402701350675337721e+01 1.765191284279621619e-05
5.492746373186592734e+01 1.724430805289387916e-05
5.582791395697848458e+01 1.689809087454927268e-05
5.672836418209104181e+01 1.654020162049635792e-05
5.762881440720359905e+01 1.611029885616408619e-05
5.852926463231615628e+01 1.562107771226793756e-05
5.942971485742871351e+01 1.511735231311083046e-05
6.033016508254127075e+01 1.460003291774478575e-05
6.123061530765382088e+01 1.407224612203712709e-05
6.213106553276637811e+01 1.358043215181177592e-05
6.303151575787893535e+01 1.315370377318329960e-05
6.393196598299149258e+01 1.277838110642681078e-05
6.483241620810404982e+01 1.243149592144638830e-05
6.573286643321659994e+01 1.210935030132132330e-05
6.663331665832916428e+01 1.181314909295812155e-05
6.753376688344171441e+01 1.153126744878089037e-05
6.843421710855427875e+01 1.123827318034408697e-05
6.933466733366682888e+01 1.092620904863844801e-05
7.023511755877939322e+01 1.062772717418470275e-05
7.113556778389194335e+01 1.037731869641445385e-05
7.203601800900449348e+01 1.018699226744178025e-05
7.293646823411705782e+01 1.004846839465604304e-05
7.383691845922960795e+01 9.935399978331917815e-06
7.473736868434217229e+01 9.823150384639993361e-06
7.563781890945472242e+01 9.709847577456016157e-06
7.653826913456728676e+01 9.586516898591609871e-06
7.743871935967983688e+01 9.422154846092945849e-06
7.833916958479238701e+01 9.194868824630333368e-06
7.923961980990495135e+01 8.916093991861344389e-06
8.014007003501750148e+01 8.639292779573383476e-06
8.104052026013006582e+01 8.413937904411088265e-06
8.194097048524261595e+01 8.258745452029753236e-06
8.284142071035518029e+01 8.173020769812230682e-06
8.374187093546773042e+01 8.137710557407790564e-06
8.464232116058028055e+01 8.105510566599338643e-06
8.554277138569284489e+01 8.029553163133365117e-06
8.644322161080539502e+01 7.911734121850245313e-06
8.734367183591795936e+01 7.765749489934276796e-06
8.824412206103050949e+01 7.588267815551973760e-06
8.914457228614307382e+01 7.399157385627543126e-06
9.004502251125562395e+01 7.235545473498599703e-06
9.094547273636817408e+01 7.117829124423726581e-06
9.184592296148073842e+01 7.034840073048995735e-06
9.274637318659328855e+01 6.953378133237732054e-06
9.364682341170585289e+01 6.861750728201722681e-06
9.454727363681840302e+01 6.786550344355380120e-06
9.544772386193096736e+01 6.755780318457399211e-06
9.634817408704351749e+01 6.762454391033826567e-06
9.724862431215606762e+01 6.759387944680510848e-06
9.814907453726863196e+01 6.709424365224655009e-06
9.904952476238118209e+01 6.619889043427722935e-06
9.994997498749374643e+01 6.505148706375024742e-06
1.008504252126062966e+02 6.368298681970261268e-06
1.017508754377188609e+02 6.225821587941450253e-06
1.026513256628314110e+02 6.120144137754100285e-06
1.035517758879439612e+02 6.084121312962758959e-06
1.044522261130565255e+02 6.118561423320085801e-06
1.053526763381690756e+02 6.180664550113418041e-06
1.062531265632816400e+02 6.189710769424479338e-06
1.071535767883941901e+02 6.108740512582863757e-06
1.080540270135067544e+02 6.001487486893007965e-06
1.089544772386193046e+02 5.946774618348295298e-06
1.098549274637318547e+02 5.965173488847866049e-06
1.107553776888444190e+02 6.025811434102836309e-06
1.116558279139569692e+02 6.070070726065775097e-06
1.125562781390695335e+02 6.033494840186139558e-06
1.134567283641820836e+02 5.903861336246614340e-06
1.143571785892946480e+02 5.731069312113466547e-06
1.152576288144071981e+02 5.571894530269422785e-06
1.161580790395197482e+02 5.465386805311971237e-06
1.170585292646323126e+02 5.411836306164886603e-06
1.179589794897448627e+02 5.365834475967122903e-06
1.188594297148574270e+02 5.278112962353377623e-06
1.197598799399699772e+02 5.148490520076053653e-06
1.206603301650825415e+02 5.010370704393615315e-06
1.215607803901950916e+02 4.885626374045141380e-06
1.224612306153076418e+02 4.790344179193364034e-06
1.233616808404202061e+02 4.743084632548494179e-06
1.242621310655327562e+02 4.754882550755099813e-06
1.251625812906453206e+02 4.825094777568986528e-06
1.260630315157578707e+02 4.933532109284264866e-06
1.269634817408704350e+02 5.041192991685559453e-06
1.278639319659829852e+02 5.123817775152015912e-06
1.287643821910955353e+02 5.178092799136525038e-06
1.296648324162080996e+02 5.202320764723659718e-06
1.305652826413206640e+02 5.204229680824168311e-06
1.314657328664331999e+02 5.167534029893085025e-06
1.323661830915457642e+02 5.056239743501517870e-06
1.332666333166583286e+02 4.887452728115602047e-06
1.341670835417708929e+02 4.718883545405841187e-06
1.350675337668834288e+02 4.598685432623944163e-06
1.359679839919959932e+02 4.551793320389494228e-06
1.368684342171085575e+02 4.572698119903017507e-06
1.377688844422210934e+02 4.616368684467921198e-06
1.386693346673336578e+02 4.614103969765483899e-06
1.395697848924462221e+02 4.547611128395896434e-06
1.404702351175587864e+02 4.471468999673176231e-06
1.413706853426713224e+02 4.432330047332422471e-06
1.422711355677838867e+02 4.428685930305141971e-06
1.431715857928964510e+02 4.443715349400847330e-06
1.440720360180089870e+02 4.482317537296784076e-06
1.449724862431215513e+02 4.566445450231575773e-06
1.458729364682341156e+02 4.697057950077307455e-06
1.467733866933466800e+02 4.823530908879201094e-06
1.476738369184592159e+02 4.873743084188007892e-06
1.485742871435717802e+02 4.830436455212430939e-06
1.494747373686843446e+02 4.744982858816276929e-06
1.503751875937968805e+02 4.663647869552983362e-06
1.512756378189094448e+02 4.585397868036472882e-06
1.521760880440220092e+02 4.488195417057067435e-06
1.530765382691345735e+02 4.369098003271495106e-06
1.539769884942471094e+02 4.262834922031758994e-06
1.548774387193596738e+02 4.213058653701022458e-06
1.557778889444722381e+02 4.246354164723675172e-06
1.566783391695847740e+02 4.363172045188070246e-06
1.575787893946973384e+02 4.520010694696304245e-06
1.584792396198099027e+02 4.621451047073632270e-06
1.593796898449224670e+02 4.598694354052763554e-06
1.602801400700350030e+02 4.500326093933951684e-06
1.611805902951475673e+02 4.432541825297851421e-06
1.620810405202601316e+02 4.459358847156118690e-06
1.629814907453726676e+02 4.582126103315843407e-06
1.638819409704852319e+02 4.754240835766375239e-06
1.647823911955977962e+02 4.912947629616710169e-06
1.656828414207103606e+02 5.021331766426063428e-06
1.665832916458228965e+02 5.066844860860828594e-06
1.674837418709354608e+02 5.032084714960699573e-06
1.683841920960480252e+02 4.939035011056141882e-06
1.692846423211605611e+02 4.870223616026878564e-06
1.701850925462731254e+02 4.881435562835647563e-06
1.710855427713856898e+02 4.942397749146178074e-06
1.719859929964982541e+02 4.956150223791689973e-06
1.728864432216107900e+02 4.846526411548810731e-06
1.737868934467233544e+02 4.629309938212210691e-06
1.746873436718359187e+02 4.381959946659162635e-06
1.755877938969484546e+02 4.179386789470429814e-06
1.764882441220610190e+02 4.062910492642884495e-06
1.773886943471735833e+02 4.032052739869758510e-06
1.782891445722861476e+02 4.048898604443044729e-06
1.791895947973986836e+02 4.066336358165804474e-06
1.800900450225112479e+02 4.072620559014569302e-06
1.809904952476238122e+02 4.083227884722851210e-06
1.818909454727363482e+02 4.094554732521359208e-06
1.827913956978489125e+02 4.091500958146706110e-06
1.836918459229614768e+02 4.081514797145469446e-06
1.845922961480740412e+02 4.091445941514824097e-06
1.854927463731865771e+02 4.135238192320891096e-06
1.863931965982991414e+02 4.183198968305987786e-06
1.872936468234117058e+02 4.183660909006536379e-06
1.881940970485242417e+02 4.122347950064856452e-06
1.890945472736368060e+02 4.042817456949075294e-06
1.899949974987493704e+02 4.000486365272691722e-06
1.908954477238619347e+02 4.000825181703884017e-06
1.917958979489744706e+02 4.001557576244441209e-06
1.926963481740870350e+02 3.975409618377325263e-06
1.935967983991995993e+02 3.941424132955165119e-06
1.944972486243121352e+02 3.929378085708199204e-06
1.953976988494246996e+02 3.952587600946013811e-06
1.962981490745372639e+02 4.009190627132137637e-06
1.971985992996498283e+02 4.087138522352224239e-06
1.980990495247623642e+02 4.164128056208377511e-06
1.989994997498749285e+02 4.231117122585817397e-06
1.998999499749874929e+02 4.303792714626138426e-06
2.008004002001000288e+02 4.391285906200728288e-06
2.017008504252125931e+02 4.470251938859847006e-06
2.026013006503251574e+02 4.500446309670928333e-06
2.035017508754377218e+02 4.475421814226230746e-06
2.044022011005502577e+02 4.427087729356530772e-06
2.053026513256628220e+02 4.382887095625715398e-06
2.062031015507753864e+02 4.341681203878837314e-06
2.071035517758879223e+02 4.293845306718478860e-06
2.080040020010004866e+02 4.240368298043590935e-06
2.089044522261130510e+02 4.194253414060253275e-06
2.098049024512256153e+02 4.175520322525610103e-06
2.107053526763381512e+02 4.180026993663944850e-06
2.116058029014507156e+02 4.178694352272078162e-06
2.125062531265632799e+02 4.154464932602848644e-06
2.134067033516758158e+02 4.121659624802647503e-06
2.143071535767883802e+02 4.108748870594268759e-06
2.152076038019009445e+02 4.143217276239851756e-06
2.161080540270135089e+02 4.235073998795913055e-06
2.170085042521260448e+02 4.372287287407996914e-06
2.179089544772386091e+02 4.522630162564974839e-06
2.188094047023511735e+02 4.636014032912838336e-06
2.197098549274637094e+02 4.674869540139081073e-06
2.206103051525762737e+02 4.641571241335331794e-06
2.215107553776888381e+02 4.575797297082829791e-06
2.224112056028014024e+02 4.522445338797737354e-06
2.233116558279139383e+02 4.509982865870742259e-06
2.242121060530265027e+02 4.535533799982907540e-06
2.251125562781390670e+02 4.570905482396449451e-06
2.260130065032516029e+02 4.597335010218950985e-06
2.269134567283641672e+02 4.611766949577444283e-06
2.278139069534767316e+02 4.606551936358633963e-06
2.287143571785892959e+02 4.579964191082473481e-06
2.296148074037018318e+02 4.546813932067657985e-06
2.305152576288143962e+02 4.502469866820277129e-06
2.314157078539269605e+02 4.437112022472425885e-06
2.323161580790394964e+02 4.384783252670361095e-06
2.332166083041520608e+02 4.395871789414785860e-06
2.341170585292646251e+02 4.486716800008837647e-06
2.350175087543771895e+02 4.636159034265011219e-06
2.359179589794897254e+02 4.797654625227102952e-06
2.368184092046022897e+02 4.916911416638170083e-06
2.377188594297148541e+02 4.964097993443075590e-06
2.386193096548273900e+02 4.957634460343254003e-06
2.395197598799399543e+02 4.935173450802246743e-06
2.404202101050525187e+02 4.912539314048729033e-06
2.413206603301650830e+02 4.910604551690900354e-06
2.422211105552776189e+02 4.972152543977231994e-06
2.431215607803901833e+02 5.087207248297977939e-06
2.440220110055027476e+02 5.158507954962515391e-06
2.449224612306152835e+02 5.105292500403010190e-06
2.458229114557278479e+02 4.954854193215898479e-06
2.467233616808404122e+02 4.791194329526362411e-06
2.476238119059529765e+02 4.683959607459871207e-06
2.485242621310655124e+02 4.668445518094678172e-06
2.494247123561780768e+02 4.735011676932805182e-06
2.503251625812906411e+02 4.851008880001294094e-06
2.512256128064031770e+02 4.997265902523785452e-06
2.521260630315157414e+02 5.148933045937809750e-06
2.530265132566283057e+02 5.260860882678940189e-06
2.539269634817408701e+02 5.297544535516315684e-06
2.548274137068534060e+02 5.259176893886363559e-06
2.557278639319659703e+02 5.169571839242919350e-06
2.566283141570785347e+02 5.059603324001456477e-06
2.575287643821910706e+02 4.958218386159512199e-06
2.584292146073036633e+02 4.870812654938479018e-06
2.593296648324161993e+02 4.792699671375817560e-06
2.602301150575287352e+02 4.741394748618533997e-06
2.611305652826413279e+02 4.749850718006024306e-06
2.620310155077538639e+02 4.821871528316475651e-06
2.629314657328663998e+02 4.905847643606690557e-06
2.638319159579789925e+02 4.942807683109840215e-06
2.647323661830915285e+02 4.925101326623776677e-06
2.656328164082040644e+02 4.894035597489260125e-06
2.665332666333166571e+02 4.902338898034553778e-06
2.674337168584291931e+02 4.990138061508522777e-06
2.683341670835417858e+02 5.153443892380850628e-06
2.692346173086543217e+02 5.344774810793863789e-06
2.701350675337668577e+02 5.514621736178189231e-06
2.710355177588794504e+02 5.620779566808352582e-06
2.719359679839919863e+02 5.647919197963419329e-06
2.728364182091045222e+02 5.629887118205382776e-06
2.737368684342171150e+02 5.597591747790579276e-06
2.746373186593296509e+02 5.558075835370983381e-06
2.755377688844421868e+02 5.504897725603331953e-06
2.764382191095547796e+02 5.418109730581921999e-06
2.773386693346673155e+02 5.289766242500862326e-06
2.782391195597798514e+02 5.158944709188264230e-06
2.791395697848924442e+02 5.090827341510350481e-06
2.800400200100049801e+02 5.114737362239973042e-06
2.809404702351175729e+02 5.205892526821259206e-06
2.818409204602301088e+02 5.319540157328805842e-06
2.827413706853426447e+02 5.449032500958839172e-06
2.836418209104552375e+02 5.619274449311469781e-06
2.845422711355677734e+02 5.814151569159451551e-06
2.854427213606803093e+02 5.983192415366106978e-06
2.863431715857929021e+02 6.096432002662156598e-06
2.872436218109054380e+02 6.143760571673942358e-06
2.881440720360179739e+02 6.115224623405920611e-06
2.890445222611305667e+02 6.011220817570467964e-06
2.899449724862431026e+02 5.852295917668873304e-06
2.908454227113556385e+02 5.673691385283429903e-06
2.917458729364682313e+02 5.506783178636197250e-06
2.926463231615807672e+02 5.363589222885997162e-06
2.935467733866933600e+02 5.247392376026230303e-06
2.944472236118058959e+02 5.159102312677467324e-06
2.953476738369184318e+02 5.099180830301866817e-06
2.962481240620310246e+02 5.064171501553406014e-06
2.971485742871435605e+02 5.047496969437028208e-06
2.980490245122560964e+02 5.055914991376372328e-06
2.989494747373686891e+02 5.109456612931124373e-06
2.998499249624812251e+02 5.225933690979852203e-06
3.007503751875937610e+02 5.407241583935776003e-06
3.016508254127063537e+02 5.622143190750190930e-06
3.025512756378188897e+02 5.825267576552480692e-06
3.034517258629314256e+02 5.978678676249683475e-06
3.043521760880440183e+02 6.059544060987388338e-06
3.052526263131565543e+02 6.062784351929612185e-06
3.061530765382691470e+02 6.006141197693367004e-06
3.070535267633816829e+02 5.917869886190297752e-06
3.079539769884942189e+02 5.828220241745519013e-06
3.088544272136068116e+02 5.762919887715729451e-06
3.097548774387193475e+02 5.726799455754460071e-06
3.106553276638318835e+02 5.704088142918367226e-06
3.115557778889444762e+02 5.676928380472543428e-06
3.124562281140570121e+02 5.621347296955849906e-06
3.133566783391695481e+02 5.517408193281893697e-06
3.142571285642821408e+02 5.385692604970363290e-06
3.151575787893946767e+02 5.285959662791911727e-06
3.160580290145072127e+02 5.261831445218206482e-06
3.169584792396198054e+02 5.303772401073625043e-06
3.178589294647323413e+02 5.369759899807575757e-06
3.187593796898449341e+02 5.430887948734529894e-06
3.196598299149574700e+02 5.495870737957023793e-06
3.205602801400700059e+02 5.582525142447785087e-06
3.214607303651825987e+02 5.689458528810524795e-06
3.223611805902951346e+02 5.793396146351199850e-06
3.232616308154076705e+02 5.867230185804652539e-06
3.241620810405202633e+02 5.896475997900696999e-06
3.250625312656327992e+02 5.882954304762397927e-06
3.259629814907453351e+02 5.856610235095738370e-06
3.268634317158579279e+02 5.856469203027173609e-06
3.277638819409704638e+02 5.888129394771228696e-06
3.286643321660829997e+02 5.916488700360409241e-06
3.295647823911955925e+02 5.902008912489943892e-06
3.304652326163081284e+02 5.852104470482517997e-06
3.313656828414207212e+02 5.805999008417786062e-06
3.322661330665332571e+02 5.786495016151574977e-06
3.331665832916457930e+02 5.806307062305667291e-06
3.340670335167583858e+02 5.866199570095214737e-06
3.349674837418709217e+02 5.954397642314647148e-06
3.358679339669834576e+02 6.071438805372369298e-06
3.367683841920960504e+02 6.221200369253736135e-06
3.376688344172085863e+02 6.394618267382155037e-06
3.385692846423211222e+02 6.554175946441939924e-06
3.394697348674337150e+02 6.642074630598628662e-06
3.403701850925462509e+02 6.633698273350645903e-06
3.412706353176587868e+02 6.548944018072419941e-06
3.421710855427713796e+02 6.443826650460338626e-06
3.430715357678839155e+02 6.381360503076984270e-06
3.439719859929965082e+02 6.388233964908084596e-06
3.448724362181090441e+02 6.460643665467717962e-06
3.457728864432215801e+02 6.555618551525418375e-06
3.466733366683341728e+02 6.589302653503883752e-06
3.475737868934467087e+02 6.523527212478064887e-06
3.484742371185592447e+02 6.424726455565112871e-06
3.493746873436718374e+02 6.378381260296727488e-06
3.502751375687843733e+02 6.409674270257674053e-06
3.511755877938969093e+02 6.499773339577893274e-06
3.520760380190095020e+02 6.625466067014455645e-06
3.529764882441220379e+02 6.775761428522169386e-06
3.538769384692345739e+02 6.940594889807550704e-06
3.547773886943471666e+02 7.101335265115085106e-06
3.556778389194597025e+02 7.220165636958471346e-06
3.565782891445722953e+02 7.250270837502718974e-06
3.574787393696848312e+02 7.185283707438111622e-06
3.583791895947973671e+02 7.059188649770889674e-06
3.592796398199099599e+02 6.913414825832943875e-06
3.601800900450224958e+02 6.797279146544885782e-06
3.610805402701350317e+02 6.737257724555268446e-06
3.619809904952476245e+02 6.708279427924764121e-06
3.628814407203601604e+02 6.668249284498115097e-06
3.637818909454726963e+02 6.584994121934750633e-06
3.646823411705852891e+02 6.478056196115923863e-06
3.655827913956978250e+02 6.425136419166052955e-06
3.664832416208103609e+02 6.486133088378169927e-06
3.673836918459229537e+02 6.651352533517443999e-06
3.682841420710354896e+02 6.869496895367591444e-06
3.691845922961480824e+02 7.091266292816572259e-06
3.700850425212606183e+02 7.263474462159733371e-06
3.709854927463731542e+02 7.332938101363714846e-06
3.718859429714857470e+02 7.291536422765744645e-06
3.727863931965982829e+02 7.173944546275968901e-06
3.736868434217108188e+02 7.008705047957547569e-06
3.745872936468234116e+02 6.801238526987479890e-06
3.754877438719359475e+02 6.558321889184116642e-06
3.763881940970484834e+02 6.307762045470864184e-06
3.772886443221610762e+02 6.083143943265023154e-06
3.781890945472736121e+02 5.909709291917207369e-06
3.790895447723861480e+02 5.801568249626148761e-06
3.799899949974987408e+02 5.767207794806983247e-06
3.808904452226112767e+02 5.818898035661470116e-06
3.817908954477238694e+02 5.959255681429659491e-06
3.826913456728364054e+02 6.173524776865790851e-06
3.835917958979489413e+02 6.441607585221904172e-06
3.844922461230615340e+02 6.736404762797779370e-06
3.853926963481740700e+02 7.005356766748831294e-06
3.862931465732866059e+02 7.186764069591695240e-06
3.871935967983991986e+02 7.245596280218500389e-06
3.880940470235117346e+02 7.190492019641843424e-06
3.889944972486242705e+02 7.067679418165474439e-06
3.898949474737368632e+02 6.921592345722483117e-06
3.907953976988493991e+02 6.774898846295504781e-06
3.916958479239619351e+02 6.637033312502141325e-06
3.925962981490745278e+02 6.504955507604354663e-06
3.934967483741870637e+02 6.362341931071102285e-06
3.943971985992996565e+02 6.219725696807801737e-06
3.952976488244121924e+02 6.125907406595864015e-06
3.961980990495247283e+02 6.126742343759698031e-06
3.970985492746373211e+02 6.224201524358961206e-06
3.979989994997498570e+02 6.384491602982372988e-06
3.988994497248623929e+02 6.589595243761833484e-06
3.997998999499749857e+02 6.839585499313750043e-06
4.007003501750875216e+02 7.102050534252947407e-06
4.016008004002000575e+02 7.314270962460478362e-06
4.025012506253126503e+02 7.433520150609327228e-06
4.034017008504251862e+02 7.443122727093602124e-06
4.043021510755377221e+02 7.363922814931302439e-06
4.052026013006503149e+02 7.250105427799407398e-06
4.061030515257628508e+02 7.139102466177402813e-06
4.070035017508754436e+02 7.032094803872859695e-06
4.079039519759879795e+02 6.917338820987561254e-06
4.088044022011005154e+02 6.792392363563969682e-06
4.097048524262131082e+02 6.670729271814796058e-06
4.106053026513256441e+02 6.581834772684470975e-06
4.115057528764381800e+02 6.548152523447612955e-06
4.124062031015507728e+02 6.575254629561575243e-06
4.133066533266633087e+02 6.666026965928908513e-06
4.142071035517758446e+02 6.816379562200120693e-06
4.151075537768884374e+02 6.981012674059703726e-06
4.160080040020009733e+02 7.093453427971353321e-06
4.169084542271135092e+02 7.139609645965060584e-06
4.178089044522261020e+02 7.152204992443755694e-06
4.187093546773386379e+02 7.151760768000772346e-06
4.196098049024512306e+02 7.140001891214822393e-06
4.205102551275637666e+02 7.112226445137263769e-06
4.214107053526763025e+02 7.061550518792696359e-06
4.223111555777888952e+02 7.001083964664814602e-06
4.232116058029014312e+02 6.958786855778639740e-06
4.241120560280139671e+02 6.958373900654414191e-06
4.250125062531265598e+02 7.019071798201706321e-06
4.259129564782390958e+02 7.144285041812515285e-06
4.268134067033516317e+02 7.324647493290116776e-06
4.277138569284642244e+02 7.542440732192559323e-06
4.286143071535767604e+02 7.775301245636130298e-06
4.295147573786892963e+02 8.024285649462179626e-06
4.304152076038018890e+02 8.302403665322062649e-06
4.313156578289144250e+02 8.591030665639006901e-06
4.322161080540270177e+02 8.834236470647027716e-06
4.331165582791395536e+02 8.970855917257066896e-06
4.340170085042520896e+02 8.955843738765889656e-06
4.349174587293646823e+02 8.795087004648136642e-06
4.358179089544772182e+02 8.557248790302708562e-06
4.367183591795897541e+02 8.317710827568993107e-06
4.376188094047023469e+02 8.117438221340471708e-06
4.385192596298148828e+02 7.970618264051728880e-06
4.394197098549274187e+02 7.886053350819927205e-06
4.403201600800400115e+02 7.876997351680892892e-06
4.412206103051525474e+02 7.961851246696760324e-06
4.421210605302650833e+02 8.148350010602465227e-06
4.430215107553776761e+02 8.421788397936610636e-06
4.439219609804902120e+02 8.746776863903534576e-06
4.448224112056028048e+02 9.070567893173134725e-06
4.457228614307153407e+02 9.332843850476750232e-06
4.466233116558278766e+02 9.493226265052779361e-06
4.475237618809404694e+02 9.528687316635850771e-06
4.484242121060530053e+02 9.436784551575660087e-06
4.493246623311655412e+02 9.254911985800574740e-06
4.502251125562781340e+02 9.043120957710903290e-06
4.511255627813906699e+02 8.843530416940721057e-06
4.520260130065032058e+02 8.681327766549289357e-06
4.529264632316157986e+02 8.571897370102137380e-06
4.538269134567283345e+02 8.520917807395981050e-06
4.547273636818408704e+02 8.540867911779532044e-06
4.556278139069534632e+02 8.640692719854748226e-06
4.565282641320659991e+02 8.799528865181155976e-06
4.574287143571785919e+02 8.979395837330586785e-06
4.583291645822911278e+02 9.152078106430042013e-06
4.592296148074036637e+02 9.303822362333200935e-06
4.601300650325162565e+02 9.423352631584625601e-06
4.610305152576287924e+02 9.475742198327082348e-06
4.619309654827413283e+02 9.417392897794392176e-06
4.628314157078539210e+02 9.266546442115105678e-06
4.637318659329664570e+02 9.085371929975751888e-06
4.646323161580789929e+02 8.896598511550935510e-06
4.655327663831915856e+02 8.705607204716876601e-06
4.664332166083041216e+02 8.570545683469384316e-06
4.673336668334167143e+02 8.560980327978321534e-06
4.682341170585292502e+02 8.667007255670562042e-06
4.691345672836417862e+02 8.809846228662172559e-06
4.700350175087543789e+02 8.937807909167117058e-06
4.709354677338669148e+02 9.067055144638509420e-06
4.718359179589794508e+02 9.216954674155442958e-06
4.727363681840920435e+02 9.346881808083748163e-06
4.736368184092045794e+02 9.397570482104784643e-06
4.745372686343171154e+02 9.373963326412778325e-06
4.754377188594297081e+02 9.326556603988827966e-06
4.763381690845422440e+02 9.283691102860131317e-06
4.772386193096547800e+02 9.248391650481919643e-06
4.781390695347673727e+02 9.222227577553828218e-06
4.790395197598799086e+02 9.207027953505851647e-06
4.799399699849925014e+02 9.208044180295766476e-06
4.808404202101050373e+02 9.231121979212512747e-06
4.817408704352175732e+02 9.279741683782716011e-06
4.826413206603301660e+02 9.350571365115151681e-06
4.835417708854427019e+02 9.426803414325480877e-06
4.844422211105552378e+02 9.501263636191049764e-06
4.853426713356678306e+02 9.584281480480052985e-06
4.862431215607803665e+02 9.696688965117424542e-06
4.871435717858929024e+02 9.848368282309731517e-06
4.880440220110054952e+02 1.002618948199576271e-05
4.889444722361180311e+02 1.019113180624338401e-05
4.898449224612305670e+02 1.030750655902294841e-05
4.907453726863431598e+02 1.039347185621904364e-05
4.916458229114556957e+02 1.048033356813168319e-05
4.925462731365682885e+02 1.057579711410107384e-05
4.934467233616808244e+02 1.066822935824510060e-05
4.943471735867933603e+02 1.073067571980859727e-05
4.952476238119059531e+02 1.074051944174657783e-05
4.961480740370184890e+02 1.070293553028443914e-05
4.970485242621310249e+02 1.065987953711078343e-05
4.979489744872436177e+02 1.065894450659903441e-05
4.988494247123561536e+02 1.071384981087310364e-05
4.997498749374686895e+02 1.079107899836771156e-05
5.006503251625812823e+02 1.084934576273878915e-05
5.015507753876938182e+02 1.088929712090878568e-05
5.024512256128063541e+02 1.092825764205247403e-05
5.033516758379189469e+02 1.097081990232859504e-05
5.042521260630314828e+02 1.101449742979487949e-05
5.051525762881440755e+02 1.106474280427170781e-05
5.060530265132566115e+02 1.110520210810026966e-05
5.069534767383691474e+02 1.109525491163085734e-05
5.078539269634817401e+02 1.103776320536787980e-05
5.087543771885942760e+02 1.098556075247464025e-05
5.096548274137068120e+02 1.096880116477233174e-05
5.105552776388194047e+02 1.098061964477905861e-05
5.114557278639319406e+02 1.102483121951325342e-05
5.123561780890445334e+02 1.112833606915136998e-05
5.132566283141570693e+02 1.129669995319650987e-05
5.141570785392696052e+02 1.148062120525466086e-05
5.150575287643821412e+02 1.161307534623722679e-05
5.159579789894946771e+02 1.165982865071296299e-05
5.168584292146073267e+02 1.163949148323691747e-05
5.177588794397198626e+02 1.159546223849765283e-05
5.186593296648323985e+02 1.155772518336699469e-05
5.195597798899449344e+02 1.152805950748168601e-05
5.204602301150574704e+02 1.150724191767454912e-05
5.213606803401700063e+02 1.150082146462103524e-05
5.222611305652826559e+02 1.152479896105371047e-05
5.231615807903951918e+02 1.160534101432613182e-05
5.240620310155077277e+02 1.172757146301860560e-05
5.249624812406202636e+02 1.185814639450438056e-05
5.258629314657327996e+02 1.199423110744760752e-05
5.267633816908454492e+02 1.215128813085769027e-05
5.276638319159579851e+02 1.232009142949717291e-05
5.285642821410705210e+02 1.245955224743231905e-05
5.294647323661830569e+02 1.254545817822832970e-05
5.303651825912955928e+02 1.258272845550598807e-05
5.312656328164081287e+02 1.259513815040171429e-05
5.321660830415207784e+02 1.261184166627802612e-05
5.330665332666333143e+02 1.263968104294120938e-05
5.339669834917458502e+02 1.267267952780892724e-05
5.348674337168583861e+02 1.270075870695014940e-05
5.357678839419709220e+02 1.271240718965096109e-05
5.366683341670835716e+02 1.272094268665346102e-05
5.375687843921961075e+02 1.275771426528289400e-05
5.384692346173086435e+02 1.283096304315879023e-05
5.393696848424211794e+02 1.291141623784830528e-05
5.402701350675337153e+02 1.297041764272542251e-05
5.411705852926462512e+02 1.301682363182322063e-05
5.420710355177589008e+02 1.306577852259536350e-05
5.429714857428714367e+02 1.310355978940216778e-05
5.438719359679839727e+02 1.312789786134597303e-05
5.447723861930965086e+02 1.318045420846530587e-05
5.456728364182090445e+02 1.328759849124579814e-05
5.465732866433215804e+02 1.343420540793545289e-05
5.474737368684342300e+02 1.359911655903105264e-05
5.483741870935467659e+02 1.377619909701016771e-05
5.492746373186593019e+02 1.397424136630620442e-05
5.501750875437718378e+02 1.418942624307330525e-05
5.510755377688843737e+02 1.440724440088168338e-05
5.519759879939970233e+02 1.462542321155723270e-05
5.528764382191095592e+02 1.485803944788233933e-05
5.537768884442220951e+02 1.513714850483729722e-05
5.546773386693346310e+02 1.548018464893931786e-05
5.555777888944471670e+02 1.585724271961788009e-05
5.564782391195597029e+02 1.621788453528790109e-05
5.573786893446723525e+02 1.653409432410624585e-05
5.582791395697848884e+02 1.680130372758828052e-05
5.591795897948974243e+02 1.700634041698770923e-05
5.600800400200099602e+02 1.712921986758807931e-05
5.609804902451224962e+02 1.716940966159123460e-05
5.618809404702351458e+02 1.716392012712946217e-05
5.627813906953476817e+02 1.715896170275675082e-05
5.636818409204602176e+02 1.717803471471188973e-05
5.645822911455727535e+02 1.721781652060728316e-05
5.654827413706852894e+02 1.726617876856977198e-05
5.663831915957978254e+02 1.733945807554454163e-05
5.672836418209104750e+02 1.746517589523119722e-05
5.681840920460230109e+02 1.763822449406447115e-05
5.690845422711355468e+02 1.783410890782576001e-05
5.699849924962480827e+02 1.803676459450158828e-05
5.708854427213606186e+02 1.824627996139107316e-05
5.717858929464731546e+02 1.847375339795201705e-05
5.726863431715858042e+02 1.873083323230909984e-05
5.735867933966983401e+02 1.902338419300981075e-05
5.744872436218108760e+02 1.932838527544420985e-05
5.753876938469234119e+02 1.958186290228546787e-05
5.762881440720359478e+02 1.971262909474121548e-05
5.771885942971485974e+02 1.970740595016689701e-05
5.780890445222611334e+02 1.960946266513847509e-05
5.789894947473736693e+02 1.947983319451737552e-05
5.798899449724862052e+02 1.937702151817111978e-05
5.807903951975987411e+02 1.934289183363447790e-05
5.816908454227112770e+02 1.938551489186727286e-05
5.825912956478239266e+02 1.947596332522244378e-05
5.834917458729364625e+02 1.959597446732234337e-05
5.843921960980489985e+02 1.976232011208166645e-05
5.852926463231615344e+02 1.999913370585517066e-05
5.861930965482740703e+02 2.030428056616693892e-05
5.870935467733867199e+02 2.064841906559065934e-05
5.879939969984992558e+02 2.101795068597713797e-05
5.888944472236117917e+02 2.141342232985204552e-05
5.897948974487243277e+02 2.178953437192907887e-05
5.906953476738368636e+02 2.211890638914991328e-05
5.915957978989493995e+02 2.241934250294580803e-05
5.924962481240620491e+02 2.266360001231580585e-05
5.933966983491745850e+02 2.280446595395973618e-05
5.942971485742871209e+02 2.285308455300347026e-05
5.951975987993996569e+02 2.282207944378326372e-05
5.960980490245121928e+02 2.267799579590836455e-05
5.969984992496247287e+02 2.239939023829861528e-05
5.978989494747373783e+02 2.209105529746942234e-05
5.987993996998499142e+02 2.192678875654047578e-05
5.996998499249624501e+02 2.200085630247378260e-05
6.006003001500749860e+02 2.226084657374440541e-05
6.015007503751875220e+02 2.255506296626020340e-05
6.024012006003001716e+02 2.280040058455121247e-05
6.033016508254127075e+02 2.305874135398580443e-05
6.042021010505252434e+02 2.338733225531198966e-05
6.051025512756377793e+02 2.376039021285961651e-05
6.060030015007503152e+02 2.414027381553214032e-05
6.069034517258628512e+02 2.450552443040117444e-05
6.078039019509755008e+02 2.486679668767237140e-05
6.087043521760880367e+02 2.528432194380946194e-05
6.096048024012005726e+02 2.579956857395019785e-05
6.105052526263131085e+02 2.631461817339717478e-05
6.114057028514256444e+02 2.668057804616131675e-05
6.123061530765382940e+02 2.687249365417331465e-05
6.132066033016508300e+02 2.695211977426312803e-05
6.141070535267633659e+02 2.695991326750342467e-05
6.150075037518759018e+02 2.687325429130784073e-05
6.159079539769884377e+02 2.671242518884470841e-05
6.168084042021009736e+02 2.662370461547810188e-05
6.177088544272136232e+02 2.673421271380116489e-05
6.186093046523261592e+02 2.703384989799207495e-05
6.195097548774386951e+02 2.743317328529746077e-05
6.204102051025512310e+02 2.783613873475348523e-05
6.213106553276637669e+02 2.815604803544924102e-05
6.222111055527763028e+02 2.835481549757512497e-05
6.231115557778889524e+02 2.845727095113160650e-05
6.240120060030014884e+02 2.849667474454339378e-05
6.249124562281140243e+02 2.849790494949333358e-05
6.258129064532265602e+02 2.850872320201975322e-05
6.267133566783390961e+02 2.859248732068538518e-05
6.276138069034517457e+02 2.875197336131518307e-05
6.285142571285642816e+02 2.887052447361570075e-05
6.294147073536768175e+02 2.884863987383407962e-05
6.303151575787893535e+02 2.876822760264715782e-05
6.312156078039018894e+02 2.877198834177391361e-05
6.321160580290144253e+02 2.885324936679105071e-05
6.330165082541270749e+02 2.893803825494441868e-05
6.339169584792396108e+02 2.902255695971787228e-05
6.348174087043521467e+02 2.910851267936458839e-05
6.357178589294646827e+02 2.918817155798336075e-05
6.366183091545772186e+02 2.925357399492549621e-05
6.375187593796898682e+02 2.931518373439611220e-05
6.384192096048024041e+02 2.943421983901776804e-05
6.393196598299149400e+02 2.964903103254502349e-05
6.402201100550274759e+02 2.986305544169786202e-05
6.411205602801400119e+02 2.996945577995606446e-05
6.420210105052525478e+02 2.996901777343318759e-05
6.429214607303651974e+02 2.989568215402239743e-05
6.438219109554777333e+02 2.979944716965985221e-05
6.447223611805902692e+02 2.974038113463299562e-05
6.456228114057028051e+02 2.970833427687012820e-05
6.465232616308153411e+02 2.962529655068192792e-05
6.474237118559278770e+02 2.949240116368192927e-05
6.483241620810405266e+02 2.946366546266005967e-05
6.492246123061530625e+02 2.966204788396621311e-05
6.501250625312655984e+02 3.005277168927699647e-05
6.510255127563781343e+02 3.052557063970499348e-05
6.519259629814906702e+02 3.096870078279567663e-05
6.528264132066033198e+02 3.137350875968100992e-05
6.537268634317158558e+02 3.182552708763727048e-05
6.546273136568283917e+02 3.234120288639242034e-05
6.555277638819409276e+02 3.283095924153690566e-05
6.564282141070534635e+02 3.318833653643991834e-05
6.573286643321659994e+02 3.339844739499846384e-05
6.582291145572786490e+02 3.351086218408561013e-05
6.591295647823911850e+02 3.353086294985458554e-05
6.600300150075037209e+02 3.345319362096755927e-05
6.609304652326162568e+02 3.329059001671123705e-05
6.618309154577287927e+02 3.299730347502376605e-05
6.627313656828414423e+02 3.256121981661343391e-05
6.636318159079539782e+02 3.213467017982925576e-05
6.645322661330665142e+02 3.191955184122346448e-05
6.654327163581790501e+02 3.204099437332229452e-05
6.663331665832915860e+02 3.247610994219500867e-05
6.672336168084041219e+02 3.304380670983197353e-05
6.681340670335167715e+02 3.353080411546743498e-05
6.690345172586293074e+02 3.382593898481829392e-05
6.699349674837418434e+02 3.389638238746937415e-05
6.708354177088543793e+02 3.374900697643245080e-05
6.717358679339669152e+02 3.346438512128425903e-05
6.726363181590794511e+02 3.311781326079483642e-05
6.735367683841921007e+02 3.269882359410981279e-05
6.744372186093046366e+02 3.227586323564975574e-05
6.753376688344171725e+02 3.202499749884100380e-05
6.762381190595297085e+02 3.202706885334015397e-05
6.771385692846422444e+02 3.220521290382692047e-05
6.780390195097548940e+02 3.241833621483583897e-05
6.789394697348674299e+02 3.253348482904301679e-05
6.798399199599799658e+02 3.247573410853457800e-05
6.807403701850925017e+02 3.227550198613815508e-05
6.816408204102050377e+02 3.199260360690140130e-05
6.825412706353175736e+02 3.167344261687285418e-05
6.834417208604302232e+02 3.139996243357765323e-05
6.843421710855427591e+02 3.125344747833406399e-05
6.852426213106552950e+02 3.123294544944316299e-05
6.861430715357678309e+02 3.123598013814150805e-05
6.870435217608803669e+02 3.114760532440821820e-05
6.879439719859930165e+02 3.095191391210457948e-05
6.888444222111055524e+02 3.071504670722977883e-05
6.897448724362180883e+02 3.051450453801222604e-05
6.906453226613306242e+02 3.041157850236229004e-05
6.915457728864431601e+02 3.050524352103356238e-05
6.924462231115556961e+02 3.083075566193021376e-05
6.933466733366683457e+02 3.124162018837289438e-05
6.942471235617808816e+02 3.155944702208756655e-05
6.951475737868934175e+02 3.167826892461838396e-05
6.960480240120059534e+02 3.155442369018763302e-05
6.969484742371184893e+02 3.125389251046626965e-05
6.978489244622311389e+02 3.086182961188824853e-05
6.987493746873436749e+02 3.039937573303928096e-05
6.996498249124562108e+02 2.990056983138030509e-05
7.005502751375687467e+02 2.939992721242303575e-05
7.014507253626812826e+02 2.894477098563499046e-05
7.023511755877938185e+02 2.857360337609378081e-05
7.032516258129064681e+02 2.823987547627139868e-05
7.041520760380190040e+02 2.788949091785288800e-05
7.050525262631315400e+02 2.752453649074738172e-05
7.059529764882440759e+02 2.719952554151876915e-05
7.068534267133566118e+02 2.697222725764867896e-05
7.077538769384691477e+02 2.685723633513753983e-05
7.086543271635817973e+02 2.678299727447615037e-05
7.095547773886943332e+02 2.666840083433694015e-05
7.104552276138068692e+02 2.651174999774320851e-05
7.113556778389194051e+02 2.632461269873193348e-05
7.122561280640319410e+02 2.611045871996571835e-05
7.131565782891445906e+02 2.584764895289765353e-05
7.140570285142571265e+02 2.552378718918292048e-05
7.149574787393696624e+02 2.518058394267438935e-05
7.158579289644821984e+02 2.488170583440577614e-05
7.167583791895947343e+02 2.467986568523996248e-05
7.176588294147072702e+02 2.458275781832977577e-05
7.185592796398199198e+02 2.457971786140003990e-05
7.194597298649324557e+02 2.465481110895512864e-05
7.203601800900449916e+02 2.473877382579685601e-05
7.212606303151575275e+02 2.472201424153703170e-05
7.221610805402700635e+02 2.459149916698470935e-05
7.230615307653827131e+02 2.443278084568407393e-05
7.239619809904952490e+02 2.427133151631920310e-05
7.248624312156077849e+02 2.403108785100372806e-05
7.257628814407203208e+02 2.364500953453677986e-05
7.266633316658328567e+02 2.312242232135494987e-05
7.275637818909453927e+02 2.258701257883302769e-05
7.284642321160580423e+02 2.221829442627774745e-05
7.293646823411705782e+02 2.210704254857089176e-05
7.302651325662831141e+02 2.219559893592244746e-05
7.311655827913956500e+02 2.237271755272454970e-05
7.320660330165081859e+02 2.259047408971365267e-05
7.329664832416207219e+02 2.285276225935518841e-05
7.338669334667333715e+02 2.312712700204128645e-05
7.347673836918459074e+02 2.336246763492789627e-05
7.356678339169584433e+02 2.351787228794665558e-05
7.365682841420709792e+02 2.353844521096537458e-05
7.374687343671835151e+02 2.342199471461437973e-05
7.383691845922961647e+02 2.323813297414303918e-05
7.392696348174087007e+02 2.301686018882373596e-05
7.401700850425212366e+02 2.276366473240919126e-05
7.410705352676337725e+02 2.254927320047113033e-05
7.419709854927463084e+02 2.244791615367620788e-05
7.428714357178588443e+02 2.244436506444409863e-05
7.437718859429714939e+02 2.242925325733406797e-05
7.446723361680840299e+02 2.229772819736392653e-05
7.455727863931965658e+02 2.202827261205202544e-05
7.464732366183091017e+02 2.168480453309661483e-05
7.473736868434216376e+02 2.133151069487955971e-05
7.482741370685342872e+02 2.097973553412466928e-05
7.491745872936468231e+02 2.063790952809316606e-05
7.500750375187593590e+02 2.032240659070409105e-05
7.509754877438718950e+02 2.004380682068634235e-05
7.518759379689844309e+02 1.984680859526604735e-05
7.527763881940969668e+02 1.977153814052359871e-05
7.536768384192096164e+02 1.975946395991183912e-05
7.545772886443221523e+02 1.968322195570554878e-05
7.554777388694346882e+02 1.948729391155701671e-05
7.563781890945472242e+02 1.921028942308867246e-05
7.572786393196597601e+02 1.892954379886992194e-05
7.581790895447722960e+02 1.872522651863574200e-05
7.590795397698849456e+02 1.862654619448748689e-05
7.599799899949974815e+02 1.860426771842162665e-05
7.608804402201100174e+02 1.861094392216257342e-05
7.617808904452225534e+02 1.858724563120414821e-05
7.626813406703350893e+02 1.850100156809665678e-05
7.635817908954477389e+02 1.839598480349530565e-05
7.644822411205602748e+02 1.832830160112470158e-05
7.653826913456728107e+02 1.829198641765474007e-05
7.662831415707853466e+02 1.826167644172800659e-05
7.671835917958978825e+02 1.822956775606132630e-05
7.680840420210104185e+02 1.819425680397853282e-05
7.689844922461230681e+02 1.812816262894212244e-05
7.698849424712356040e+02 1.798413155814499576e-05
7.707853926963481399e+02 1.776324360754940498e-05
7.716858429214606758e+02 1.751163943000934390e-05
7.725862931465732117e+02 1.728441589826226334e-05
7.734867433716858613e+02 1.712008085404481905e-05
7.743871935967983973e+02 1.700622834356058156e-05
7.752876438219109332e+02 1.690343217631445384e-05
7.761880940470234691e+02 1.679636181986022582e-05
7.770885442721360050e+02 1.669294032295101326e-05
7.779889944972485409e+02 1.660414737459878717e-05
7.788894447223611905e+02 1.652805611644985395e-05
7.797898949474737265e+02 1.646075918330765494e-05
7.806903451725862624e+02 1.639432157561967820e-05
7.815907953976987983e+02 1.631978990236963587e-05
7.824912456228113342e+02 1.622006790236091964e-05
7.833916958479238701e+02 1.604350201219604990e-05
7.842921460730365197e+02 1.577589680335055174e-05
7.851925962981490557e+02 1.549027711389442533e-05
7.860930465232615916e+02 1.527525699362688511e-05
7.869934967483741275e+02 1.516434961466955371e-05
7.878939469734866634e+02 1.514759221205160183e-05
7.887943971985993130e+02 1.516604418673071428e-05
7.896948474237118489e+02 1.515272898240856644e-05
7.905952976488243849e+02 1.510697101791864339e-05
7.914957478739369208e+02 1.505958551430652466e-05
7.923961980990494567e+02 1.501026579608937225e-05
7.932966483241619926e+02 1.494252764640512844e-05
7.941970985492746422e+02 1.486422840479835570e-05
7.950975487743871781e+02 1.480829826034725153e-05
7.959979989994997140e+02 1.478713936791353734e-05
7.968984492246122500e+02 1.479260894840631101e-05
7.977988994497247859e+02 1.481852185988641942e-05
7.986993496748374355e+02 1.485030858181109804e-05
7.995997998999499714e+02 1.487657192361830685e-05
8.005002501250625073e+02 1.489032067838238394e-05
8.014007003501750432e+02 1.486397215321416254e-05
8.023011505752875792e+02 1.477067898462880834e-05
8.032016008004001151e+02 1.461412537734657583e-05
8.041020510255127647e+02 1.442646785981545497e-05
8.050025012506253006e+02 1.423221199232426556e-05
8.059029514757378365e+02 1.402649287989588767e-05
8.068034017008503724e+02 1.381299762731615304e-05
8.077038519259629084e+02 1.362732001298438370e-05
8.086043021510754443e+02 1.349602548756739504e-05
8.095047523761880939e+02 1.339598299237340883e-05
8.104052026013006298e+02 1.329222514076318908e-05
8.113056528264131657e+02 1.320063568937230703e-05
8.122061030515257016e+02 1.316520118780465667e-05
8.131065532766382375e+02 1.320238907444613307e-05
8.140070035017508872e+02 1.330632255299929691e-05
8.149074537268634231e+02 1.346127308907624851e-05
8.158079039519759590e+02 1.363538166359038790e-05
8.167083541770884949e+02 1.379995243800809982e-05
8.176088044022010308e+02 1.396903556406271966e-05
8.185092546273135667e+02 1.417870281744886884e-05
8.194097048524262163e+02 1.441690665475497463e-05
8.203101550775387523e+02 1.462956841812988326e-05
8.212106053026512882e+02 1.476834591219445528e-05
8.221110555277638241e+02 1.481411289130274528e-05
8.230115057528763600e+02 1.478808086951028640e-05
8.239119559779890096e+02 1.475641563285624594e-05
8.248124062031015455e+02 1.476531514445201467e-05
8.257128564282140815e+02 1.476547958888817459e-05
8.266133066533266174e+02 1.468140034090974104e-05
8.275137568784391533e+02 1.453052387537030114e-05
8.284142071035516892e+02 1.439797755022752928e-05
8.293146573286643388e+02 1.433741157862215291e-05
8.302151075537768747e+02 1.432606144449486401e-05
8.311155577788894107e+02 1.431015291383110321e-05
8.320160080040019466e+02 1.426190282498177795e-05
8.329164582291144825e+02 1.418497554500319273e-05
8.338169084542270184e+02 1.411118708326847253e-05
8.347173586793396680e+02 1.407823762125628098e-05
8.356178089044522039e+02 1.408881652334084988e-05
8.365182591295647399e+02 1.412349589429614315e-05
8.374187093546772758e+02 1.417262483082308576e-05
8.383191595797898117e+02 1.422889884241796256e-05
8.392196098049024613e+02 1.426118388477577833e-05
8.401200600300149972e+02 1.422974044750983186e-05
8.410205102551275331e+02 1.413602253795757389e-05
8.419209604802400690e+02 1.401844838808294156e-05
8.428214107053526050e+02 1.389812517145251455e-05
8.437218609304651409e+02 1.379025539657562613e-05
8.446223111555777905e+02 1.372010711113714840e-05
8.455227613806903264e+02 1.369723461620749693e-05
8.464232116058028623e+02 1.368944411421415142e-05
8.473236618309153982e+02 1.365496249968661437e-05
8.482241120560279342e+02 1.359851926867422163e-05
8.491245622811405838e+02 1.356573045717641434e-05
8.500250125062531197e+02 1.358856144538821343e-05
8.509254627313656556e+02 1.366001583848124912e-05
8.518259129564781915e+02 1.377762697909976413e-05
8.527263631815907274e+02 1.393737972593978792e-05
8.536268134067032634e+02 1.410592247996364888e-05
8.545272636318159130e+02 1.425296132458612779e-05
8.554277138569284489e+02 1.436503035859285605e-05
8.563281640820409848e+02 1.443462893610498103e-05
8.572286143071535207e+02 1.446034589664445052e-05
8.581290645322660566e+02 1.446076064806597971e-05
8.590295147573785925e+02 1.446578543663131542e-05
8.599299649824912422e+02 1.447349803736360665e-05
8.608304152076037781e+02 1.447137039722297140e-05
8.617308654327163140e+02 1.448114120867697300e-05
8.626313156578288499e+02 1.452564164701788116e-05
8.635317658829413858e+02 1.460069126225226556e-05
8.644322161080540354e+02 1.470219157870286897e-05
8.653326663331665713e+02 1.483173777780122619e-05
8.662331165582791073e+02 1.497688066633363408e-05
8.671335667833916432e+02 1.512808022090346724e-05
8.680340170085041791e+02 1.529018765393420847e-05
8.689344672336167150e+02 1.545732369574521058e-05
8.698349174587293646e+02 1.561212889095302765e-05
8.707353676838419005e+02 1.576905614359869917e-05
8.716358179089544365e+02 1.593121038686801927e-05
8.725362681340669724e+02 1.604243213972012596e-05
8.734367183591795083e+02 1.605356999253766635e-05
8.743371685842921579e+02 1.597599446441033775e-05
8.752376188094046938e+02 1.583794003381017290e-05
8.761380690345172297e+02 1.568441702800598393e-05
8.770385192596297657e+02 1.556124535864934454e-05
8.779389694847423016e+02 1.547284148682797581e-05
8.788394197098548375e+02 1.538975844018806210e-05
8.797398699349674871e+02 1.528902518021840992e-05
8.806403201600800230e+02 1.517907106324331765e-05
8.815407703851925589e+02 1.508916061010625471e-05
8.824412206103050949e+02 1.504431433421940505e-05
8.833416708354176308e+02 1.503634743812014046e-05
8.842421210605301667e+02 1.505105306893909377e-05
8.851425712856428163e+02 1.511141085044238502e-05
8.860430215107553522e+02 1.522069732723127383e-05
8.869434717358678881e+02 1.532511872056532351e-05
8.878439219609804240e+02 1.541005365272062606e-05
8.887443721860929600e+02 1.552551600863860386e-05
8.896448224112056096e+02 1.567903187977476691e-05
8.905452726363181455e+02 1.580985152450212531e-05
8.914457228614306814e+02 1.590759877201819274e-05
8.923461730865432173e+02 1.604271636902720514e-05
8.932466233116557532e+02 1.625824094455037566e-05
8.941470735367682892e+02 1.653501542595912804e-05
8.950475237618809388e+02 1.683722823890063369e-05
8.959479739869934747e+02 1.712330540012950723e-05
8.968484242121060106e+02 1.731320739121567653e-05
8.977488744372185465e+02 1.736010326935621793e-05
8.986493246623310824e+02 1.731477828775018608e-05
8.995497748874437320e+02 1.726467346504513399e-05
9.004502251125562680e+02 1.728767223800017531e-05
9.013506753376688039e+02 1.741513397882711554e-05
9.022511255627813398e+02 1.764036240097587396e-05
9.031515757878938757e+02 1.794360990330998913e-05
9.040520260130064116e+02 1.829204096602280054e-05
9.049524762381190612e+02 1.863492970888495616e-05
9.058529264632315972e+02 1.891103956590049526e-05
9.067533766883441331e+02 1.907928145759596347e-05
9.076538269134566690e+02 1.916931161695448860e-05
9.085542771385692049e+02 1.926554941223442284e-05
9.094547273636817408e+02 1.943075667040345037e-05
9.103551775887943904e+02 1.968206359963908019e-05
9.112556278139069263e+02 2.002422884322932589e-05
9.121560780390194623e+02 2.039069411312204093e-05
9.130565282641319982e+02 2.062388199803543069e-05
9.139569784892445341e+02 2.065506648613123802e-05
9.148574287143571837e+02 2.063354000381814092e-05
9.157578789394697196e+02 2.073466645080304391e-05
9.166583291645822555e+02 2.092694906367067911e-05
9.175587793896947915e+02 2.105586668727998530e-05
9.184592296148073274e+02 2.105097169838299797e-05
9.193596798399198633e+02 2.096401631302329398e-05
9.202601300650325129e+02 2.088448359471315526e-05
9.211605802901450488e+02 2.088040378943077565e-05
9.220610305152575847e+02 2.095547541127732981e-05
9.229614807403701207e+02 2.107826062640844560e-05
9.238619309654826566e+02 2.121607360449695635e-05
9.247623811905953062e+02 2.132611506005491721e-05
9.256628314157078421e+02 2.140658729456205721e-05
9.265632816408203780e+02 2.150740851449366888e-05
9.274637318659329139e+02 2.163819460607183592e-05
9.283641820910454499e+02 2.175782593710648034e-05
9.292646323161579858e+02 2.184113656647820501e-05
9.301650825412706354e+02 2.191564381485009474e-05
9.310655327663831713e+02 2.206039590805426742e-05
9.319659829914957072e+02 2.232242210485616191e-05
9.328664332166082431e+02 2.268156312550888192e-05
9.337668834417207790e+02 2.309712874239037777e-05
9.346673336668334287e+02 2.350302796454035992e-05
9.355677838919459646e+02 2.381631756696674551e-05
9.364682341170585005e+02 2.399757714648905174e-05
9.373686843421710364e+02 2.408208343350176341e-05
9.382691345672835723e+02 2.414955128631845357e-05
9.391695847923961082e+02 2.422925212137025727e-05
9.400700350175087578e+02 2.431112348601094188e-05
9.409704852426212938e+02 2.444499488612694401e-05
9.418709354677338297e+02 2.472525397498325739e-05
9.427713856928463656e+02 2.520091288118258559e-05
9.436718359179589015e+02 2.582236771697728425e-05
9.445722861430714374e+02 2.645989555333805253e-05
9.454727363681840870e+02 2.697316921929521363e-05
9.463731865932966230e+02 2.728047751545753736e-05
9.472736368184091589e+02 2.741855312609306516e-05
9.481740870435216948e+02 2.756923371061521520e-05
9.490745372686342307e+02 2.788134634395142918e-05
9.499749874937468803e+02 2.831051637520109752e-05
9.508754377188594162e+02 2.872968244370791406e-05
9.517758879439719522e+02 2.902065621115557402e-05
9.526763381690844881e+02 2.909407874736866508e-05
9.535767883941970240e+02 2.896955049952081230e-05
9.544772386193095599e+02 2.874927900629218279e-05
9.553776888444222095e+02 2.853355979144262067e-05
9.562781390695347454e+02 2.840221614213351192e-05
9.571785892946472813e+02 2.838873820949447898e-05
9.580790395197598173e+02 2.846555191453045491e-05
9.589794897448723532e+02 2.862627736718061834e-05
9.598799399699850028e+02 2.886369939022245796e-05
9.607803901950975387e+02 2.912067823435352884e-05
9.616808404202100746e+02 2.933683674686795228e-05
9.625812906453226105e+02 2.952398973574216971e-05
9.634817408704351465e+02 2.970539870136717318e-05
9.643821910955476824e+02 2.983735521420805960e-05
9.652826413206603320e+02 2.989245310169415590e-05
9.661830915457728679e+02 2.986501130159416794e-05
9.670835417708854038e+02 2.976000701581112915e-05
9.679839919959979397e+02 2.962998520850714974e-05
9.688844422211104757e+02 2.952388869901482489e-05
9.697848924462230116e+02 2.948617208576152595e-05
9.706853426713356612e+02 2.959949913546114510e-05
9.715857928964481971e+02 2.992921793807360139e-05
9.724862431215607330e+02 3.046586562276305810e-05
9.733866933466732689e+02 3.113808500152887232e-05
9.742871435717858049e+02 3.183290213191364190e-05
9.751875937968984545e+02 3.240321842073352752e-05
9.760880440220109904e+02 3.268739216992245242e-05
9.769884942471235263e+02 3.264769133870777196e-05
9.778889444722360622e+02 3.241010588105288406e-05
9.787893946973485981e+02 3.210827396121359673e-05
9.796898449224611340e+02 3.183957872700284144e-05
9.805902951475737837e+02 3.172866497490503372e-05
9.814907453726863196e+02 3.183711137634196695e-05
9.823911955977988555e+02 3.212244244124592778e-05
9.832916458229113914e+02 3.255953206990891538e-05
9.841920960480239273e+02 3.312975830501744618e-05
9.850925462731365769e+02 3.377945937903723391e-05
9.859929964982491128e+02 3.443017320665972927e-05
9.868934467233616488e+02 3.504715087832983416e-05
9.877938969484741847e+02 3.566580919434893612e-05
9.886943471735867206e+02 3.623944454343181333e-05
9.895947973986992565e+02 3.661269149901030914e-05
9.904952476238119061e+02 3.676345839333645905e-05
9.913956978489244420e+02 3.683933186679558416e-05
9.922961480740369780e+02 3.695896285675630857e-05
9.931965982991495139e+02 3.716481522163411381e-05
9.940970485242620498e+02 3.743335930691635174e-05
9.949974987493745857e+02 3.775831233112859122e-05
9.958979489744872353e+02 3.824030324815248663e-05
9.967983991995997712e+02 3.895822490467936838e-05
9.976988494247123072e+02 3.978984603898053307e-05
9.985992996498248431e+02 4.048071026981267653e-05
9.994997498749373790e+02 4.091125041282804846e-05
1.000400200100050029e+03 4.117063597718840693e-05
1.001300650325162565e+03 4.136265500503525831e-05
1.002201100550275100e+03 4.160198404191907309e-05
1.003101550775387636e+03 4.209924862836984322e-05
1.004002001000500172e+03 4.297387758908033454e-05
1.004902451225612708e+03 4.412447933206745256e-05
1.005802901450725358e+03 4.544566209152676886e-05
1.006703351675837894e+03 4.694389957646309891e-05
1.007603801900950430e+03 4.857756339359069051e-05
1.008504252126062966e+03 5.018847247374166399e-05
1.009404702351175501e+03 5.165728226679311327e-05
1.010305152576288151e+03 5.301515934155139390e-05
1.011205602801400687e+03 5.427007740223004550e-05
1.012106053026513223e+03 5.526065316522783957e-05
1.013006503251625759e+03 5.582488133139973255e-05
1.013906953476738295e+03 5.599531822068964183e-05
1.014807403701850831e+03 5.602898120875184898e-05
1.015707853926963480e+03 5.622084762385609380e-05
1.016608304152076016e+03 5.674293558172334022e-05
1.017508754377188552e+03 5.754697137013257833e-05
1.018409204602301088e+03 5.840214410284089402e-05
1.019309654827413624e+03 5.909748406099084197e-05
1.020210105052526160e+03 5.959349297614879778e-05
1.021110555277638809e+03 5.996048463387176555e-05
1.022011005502751345e+03 6.028710494803968663e-05
1.022911455727863881e+03 6.059845573143187217e-05
1.023811905952976417e+03 6.090348920862039358e-05
1.024712356178089067e+03 6.133062309254774293e-05
1.025612806403201603e+03 6.199236665546428954e-05
1.026513256628314139e+03 6.281202758252677875e-05
1.027413706853426675e+03 6.362408525400949913e-05
1.028314157078539210e+03 6.436657164943368134e-05
1.029214607303651746e+03 6.504154640166726867e-05
1.030115057528764282e+03 6.563077367379143443e-05
1.031015507753876818e+03 6.624278579475263826e-05
1.031915957978989354e+03 6.724877225748036619e-05
1.032816408204101890e+03 6.879133980620762601e-05
1.033716858429214653e+03 7.050315935769735224e-05
1.034617308654327189e+03 7.211359623709881570e-05
1.035517758879439725e+03 7.370834012820174654e-05
1.036418209104552261e+03 7.542385360896611724e-05
1.037318659329664797e+03 7.730770673227769087e-05
1.038219109554777333e+03 7.930348789616549487e-05
1.039119559779889869e+03 8.131094975420767221e-05
1.040020010005002405e+03 8.322273369913864554e-05
1.040920460230114941e+03 8.494918959913534467e-05
1.041820910455227477e+03 8.645939420223830939e-05
1.042721360680340013e+03 8.777592795760412827e-05
1.043621810905452776e+03 8.887315022256560271e-05
1.044522261130565312e+03 8.975736986614339706e-05
1.045422711355677848e+03 9.049775469289222962e-05
1.046323161580790384e+03 9.105982068781506627e-05
1.047223611805902920e+03 9.143712668511351602e-05
1.048124062031015455e+03 9.194496723668303965e-05
1.049024512256127991e+03 9.296631642147348612e-05
1.049924962481240527e+03 9.453983892372760272e-05
1.050825412706353063e+03 9.659131100295641746e-05
1.051725862931465599e+03 9.924792136900144638e-05
1.052626313156578135e+03 1.025704130451809460e-04
1.053526763381690898e+03 1.062563260520114336e-04
1.054427213606803434e+03 1.098340209635883337e-04
1.055327663831915970e+03 1.130286490365966460e-04
1.056228114057028506e+03 1.158968752210059289e-04
1.057128564282141042e+03 1.187940527911251782e-04
1.058029014507253578e+03 1.220085749840083917e-04
1.058929464732366114e+03 1.254359416005511590e-04
1.059829914957478650e+03 1.289040888046891046e-04
1.060730365182591186e+03 1.326933617341609340e-04
1.061630815407703722e+03 1.370528915798772300e-04
1.062531265632816257e+03 1.416935638611132914e-04
1.063431715857929021e+03 1.463394088312224798e-04
1.064332166083041557e+03 1.511565636403925251e-04
1.065232616308154093e+03 1.561361019479651766e-04
1.066133066533266629e+03 1.610225358574541980e-04
1.067033516758379164e+03 1.654625263846287654e-04
1.067933966983491700e+03 1.689953777179364002e-04
1.068834417208604236e+03 1.714833029211925764e-04
1.069734867433716772e+03 1.733555373977966013e-04
1.070635317658829308e+03 1.751015443110251967e-04
1.071535767883941844e+03 1.768382231113625183e-04
1.072436218109054380e+03 1.787271748856963634e-04
1.073336668334167143e+03 1.809772066518179168e-04
1.074237118559279679e+03 1.834810116185709740e-04
1.075137568784392215e+03 1.859263721423541453e-04
1.076038019009504751e+03 1.880350343454230693e-04
1.076938469234617287e+03 1.896181971331991278e-04
1.077838919459729823e+03 1.907187209361122264e-04
1.078739369684842359e+03 1.920466975165579647e-04
1.079639819909954895e+03 1.943495353387276038e-04
1.080540270135067431e+03 1.974152133029788425e-04
1.081440720360179967e+03 2.007665670518013837e-04
1.082341170585292502e+03 2.047257123873787177e-04
1.083241620810405038e+03 2.099426153460994503e-04
1.084142071035517802e+03 2.162339786136994633e-04
1.085042521260630338e+03 2.226244927932811589e-04
1.085942971485742873e+03 2.284182659334751454e-04
1.086843421710855409e+03 2.337799004975395310e-04
1.087743871935967945e+03 2.392463622676592634e-04
1.088644322161080481e+03 2.447537463648196180e-04
1.089544772386193017e+03 2.493533290753835972e-04
1.090445222611305553e+03 2.524563839965028589e-04
1.091345672836418089e+03 2.550136117833404648e-04
1.092246123061530625e+03 2.587019411296323035e-04
1.093146573286643161e+03 2.643940754224832442e-04
1.094047023511755924e+03 2.717952393775553981e-04
1.094947473736868460e+03 2.797322642954915635e-04
1.095847923961980996e+03 2.868996022332884308e-04
1.096748374187093532e+03 2.931735012180281073e-04
1.097648824412206068e+03 2.993250477271995505e-04
1.098549274637318604e+03 3.058217822394683071e-04
1.099449724862431140e+03 3.124131354738227443e-04
1.100350175087543676e+03 3.186933892215901179e-04
1.101250625312656211e+03 3.247858147179312634e-04
1.102151075537768747e+03 3.314193861058261368e-04
1.103051525762881283e+03 3.387081938527891373e-04
1.103951975987994047e+03 3.454773680622997807e-04
1.104852426213106583e+03 3.503481070452851799e-04
1.105752876438219118e+03 3.535541746155800892e-04
1.106653326663331654e+03 3.569353599737853282e-04
1.107553776888444190e+03 3.617124954984559954e-04
1.108454227113556726e+03 3.674177810782452503e-04
1.109354677338669262e+03 3.730001379388524110e-04
1.110255127563781798e+03 3.789086230241794050e-04
1.111155577788894334e+03 3.877703632845558215e-04
1.112056028014006870e+03 4.014983921696401565e-04
1.112956478239119406e+03 4.179999175646326799e-04
1.113856928464232169e+03 4.321553949445921519e-04
1.114757378689344705e+03 4.408401858538634008e-04
1.115657828914457241e+03 4.460647125812691413e-04
1.116558279139569777e+03 4.519961164352860822e-04
1.117458729364682313e+03 4.612051267907285915e-04
1.118359179589794849e+03 4.736663677692526885e-04
1.119259629814907385e+03 4.876493078614186423e-04
1.120160080040019920e+03 5.013267292783319144e-04
1.121060530265132456e+03 5.135839677532879526e-04
1.121960980490244992e+03 5.234767722722629985e-04
1.122861430715357528e+03 5.292913972596470376e-04
1.123761880940470292e+03 5.295723444391015533e-04
1.124662331165582827e+03 5.253092415310367698e-04
1.125562781390695363e+03 5.184320356906664453e-04
1.126463231615807899e+03 5.090881637970512148e-04
1.127363681840920435e+03 4.969539454956504792e-04
1.128264132066032971e+03 4.824406502876568345e-04
1.129164582291145507e+03 4.659768865999829902e-04
1.130065032516258043e+03 4.466181628173211205e-04
1.130965482741370579e+03 4.232639375700184784e-04
1.131865932966483115e+03 3.965232965379391402e-04
1.132766383191595651e+03 3.675201426216133361e-04
1.133666833416708187e+03 3.376689162412663497e-04
1.134567283641820950e+03 3.095803722216823508e-04
1.135467733866933486e+03 2.854685010623518051e-04
1.136368184092046022e+03 2.650033988441218295e-04
1.137268634317158558e+03 2.457790709249365571e-04
1.138169084542271094e+03 2.265638958850397838e-04
1.139069534767383630e+03 2.081241438184737468e-04
1.139969984992496165e+03 1.911537571639152834e-04
1.140870435217608701e+03 1.761521554178607405e-04
1.141770885442721237e+03 1.637972447452219771e-04
1.142671335667833773e+03 1.543687773106176700e-04
1.143571785892946309e+03 1.475592124492743876e-04
1.144472236118059072e+03 1.426849828001168876e-04
1.145372686343171608e+03 1.385866713786607595e-04
1.146273136568284144e+03 1.342723945628970621e-04
1.147173586793396680e+03 1.296828593118688094e-04
1.148074037018509216e+03 1.247437900438231359e-04
1.148974487243621752e+03 1.193167848161486136e-04
1.149874937468734288e+03 1.142543212448380436e-04
1.150775387693846824e+03 1.103182066695626584e-04
1.151675837918959360e+03 1.072653615178794723e-04
1.152576288144071896e+03 1.045855353398103391e-04
1.153476738369184432e+03 1.019750715394297878e-04
1.154377188594297195e+03 9.910044457040552337e-05
1.155277638819409731e+03 9.580981692347274696e-05
1.156178089044522267e+03 9.211376489785396229e-05
1.157078539269634803e+03 8.806235131183274515e-05
1.157978989494747339e+03 8.409777953638469361e-05
1.158879439719859874e+03 8.072134313440206530e-05
1.159779889944972410e+03 7.817356924442980359e-05
1.160680340170084946e+03 7.645846968527398289e-05
1.161580790395197482e+03 7.535594418179648087e-05
1.162481240620310018e+03 7.443131108864795779e-05
1.163381690845422554e+03 7.320181957871780523e-05
1.164282141070535317e+03 7.162145454227465289e-05
1.165182591295647853e+03 6.999192504421391863e-05
1.166083041520760389e+03 6.843191288088946132e-05
1.166983491745872925e+03 6.685497014295152182e-05
1.167883941970985461e+03 6.526790107746670776e-05
1.168784392196097997e+03 6.387061399357742651e-05
1.169684842421210533e+03 6.275197333682094153e-05
1.170585292646323069e+03 6.177774291902030351e-05
1.171485742871435605e+03 6.078784358499948179e-05
1.172386193096548141e+03 5.976942308025672441e-05
1.173286643321660677e+03 5.887727274128914706e-05
1.174187093546773440e+03 5.828753868780871483e-05
1.175087543771885976e+03 5.808751072404390878e-05
1.175987993996998512e+03 5.833067321666900168e-05
1.176888444222111048e+03 5.907691815692555834e-05
1.177788894447223583e+03 6.030085073456057911e-05
1.178689344672336119e+03 6.173975119278110124e-05
1.179589794897448655e+03 6.295836290556950320e-05
1.180490245122561191e+03 6.390937498009177805e-05
1.181390695347673727e+03 6.505811050283438074e-05
1.182291145572786263e+03 6.659676338264207667e-05
1.183191595797898799e+03 6.796049491148647384e-05
1.184092046023011562e+03 6.844124131045858505e-05
1.184992496248124098e+03 6.808088317163531016e-05
1.185892946473236634e+03 6.737563367753424408e-05
1.186793396698349170e+03 6.663628908584498761e-05
1.187693846923461706e+03 6.590806476248415972e-05
1.188594297148574242e+03 6.532075399386599130e-05
1.189494747373686778e+03 6.517383727110060332e-05
1.190395197598799314e+03 6.562582151061976694e-05
1.191295647823911850e+03 6.652596343025047210e-05
1.192196098049024386e+03 6.747724488362920770e-05
1.193096548274136921e+03 6.825457205620271512e-05
1.193996998499249457e+03 6.907960644179980670e-05
1.194897448724362221e+03 7.019215959732376831e-05
1.195797898949474757e+03 7.154057287681400311e-05
1.196698349174587293e+03 7.297006477624650149e-05
1.197598799399699828e+03 7.457656077908688893e-05
1.198499249624812364e+03 7.661520690855300544e-05
1.199399699849924900e+03 7.916057034874825898e-05
1.200300150075037436e+03 8.207507070798544932e-05
1.201200600300149972e+03 8.512690255571381227e-05
1.202101050525262508e+03 8.810967632109299426e-05
1.203001500750375044e+03 9.074038643567049298e-05
1.203901950975487580e+03 9.267958464353631307e-05
1.204802401200600343e+03 9.399455921298733999e-05
1.205702851425712879e+03 9.529462693512721146e-05
1.206603301650825415e+03 9.721161347769377667e-05
1.207503751875937951e+03 9.985060438382921248e-05
1.208404202101050487e+03 1.028031927354577322e-04
1.209304652326163023e+03 1.057714779758036180e-04
1.210205102551275559e+03 1.090125583756080857e-04
1.211105552776388095e+03 1.128458208861328260e-04
1.212006003001500630e+03 1.172167226916586298e-04
1.212906453226613166e+03 1.217876567364062422e-04
1.213806903451725702e+03 1.262898073936039836e-04
1.214707353676838466e+03 1.306717729441647918e-04
1.215607803901951002e+03 1.349470586170524358e-04
1.216508254127063537e+03 1.387971462401925286e-04
1.217408704352176073e+03 1.412808359000016173e-04
1.218309154577288609e+03 1.414820535973885564e-04
1.219209604802401145e+03 1.391966985590195355e-04
1.220110055027513681e+03 1.352269120449080850e-04
1.221010505252626217e+03 1.310585787631075936e-04
1.221910955477738753e+03 1.279378764510112187e-04
1.222811405702851289e+03 1.263538236106075856e-04
1.223711855927963825e+03 1.262793650354401365e-04
1.224612306153076588e+03 1.277403356545248384e-04
1.225512756378189124e+03 1.308581661065594422e-04
1.226413206603301660e+03 1.352048526614233620e-04
1.227313656828414196e+03 1.397750769626599822e-04
1.228214107053526732e+03 1.438148360245586658e-04
1.229114557278639268e+03 1.470335037361356219e-04
1.230015007503751804e+03 1.493046062891187147e-04
1.230915457728864340e+03 1.508222128855264818e-04
1.231815907953976875e+03 1.526421437205308714e-04
1.232716358179089411e+03 1.560602771860710185e-04
1.233616808404201947e+03 1.616249038652276145e-04
1.234517258629314711e+03 1.692413866197249920e-04
1.235417708854427246e+03 1.787026438287860042e-04
1.236318159079539782e+03 1.894699619731737513e-04
1.237218609304652318e+03 2.006593822933374531e-04
1.238119059529764854e+03 2.119023523609513755e-04
1.239019509754877390e+03 2.233264500621594522e-04
1.239919959979989926e+03 2.349736230123157835e-04
1.240820410205102462e+03 2.467986119172258788e-04
1.241720860430214998e+03 2.590582055381982765e-04
1.242621310655327534e+03 2.725674108314284820e-04
1.243521760880440070e+03 2.880291534901293824e-04
1.244422211105552606e+03 3.056672198185031073e-04
1.245322661330665369e+03 3.254855356591723780e-04
1.246223111555777905e+03 3.466227769693868213e-04
1.247123561780890441e+03 3.666555355403821334e-04
1.248024012006002977e+03 3.830927245786972511e-04
1.248924462231115513e+03 3.950783108905206713e-04
1.249824912456228049e+03 4.032049933317519738e-04
1.250725362681340584e+03 4.092697690128729946e-04
1.251625812906453120e+03 4.152803492386091368e-04
1.252526263131565656e+03 4.210598226535310117e-04
1.253426713356678192e+03 4.245108655196545497e-04
1.254327163581790728e+03 4.247656410531652120e-04
1.255227613806903491e+03 4.233124804133684988e-04
1.256128064032016027e+03 4.224717117894874322e-04
1.257028514257128563e+03 4.237165996638252489e-04
1.257928964482241099e+03 4.267576563720115864e-04
1.258829414707353635e+03 4.303376803890844116e-04
1.259729864932466171e+03 4.336189323981203903e-04
1.260630315157578707e+03 4.361893213257030458e-04
1.261530765382691243e+03 4.377023830620199209e-04
1.262431215607803779e+03 4.376245499091349482e-04
1.263331665832916315e+03 4.361099612008783395e-04
1.264232116058028851e+03 4.345436028090801216e-04
1.265132566283141614e+03 4.340685625158759663e-04
1.266033016508254150e+03 4.348733555855508674e-04
1.266933466733366686e+03 4.371946176811071787e-04
1.267833916958479222e+03 4.413930128453677753e-04
1.268734367183591758e+03 4.472265142473547724e-04
1.269634817408704293e+03 4.539541551494950420e-04
1.270535267633816829e+03 4.614082357341734580e-04
1.271435717858929365e+03 4.698569320745298581e-04
1.272336168084041901e+03 4.785299851571843443e-04
1.273236618309154437e+03 4.864221285824413786e-04
1.274137068534266973e+03 4.938707182546102879e-04
1.275037518759379736e+03 5.019555133282942606e-04
1.275937968984492272e+03 5.112459352757431526e-04
1.276838419209604808e+03 5.216778857780937900e-04
1.277738869434717344e+03 5.330823643453594819e-04
1.278639319659829880e+03 5.455539783407587200e-04
1.279539769884942416e+03 5.590965506441421826e-04
1.280440220110054952e+03 5.726147931593983387e-04
1.281340670335167488e+03 5.844682964599566153e-04
1.282241120560280024e+03 5.936294512713794543e-04
1.283141570785392560e+03 6.001894021621567623e-04
1.284042021010505096e+03 6.053105450693459580e-04
1.284942471235617859e+03 6.108462603802446676e-04
1.285842921460730395e+03 6.189126963859028271e-04
1.286743371685842931e+03 6.305836604188049194e-04
1.287643821910955467e+03 6.445674698035549696e-04
1.288544272136068003e+03 6.582264350217330827e-04
1.289444722361180538e+03 6.700182065536370224e-04
1.290345172586293074e+03 6.801485371918362553e-04
1.291245622811405610e+03 6.900113723618641389e-04
1.292146073036518146e+03 7.006765376957718163e-04
1.293046523261630682e+03 7.114577734526729771e-04
1.293946973486743218e+03 7.207825601186054667e-04
1.294847423711855754e+03 7.281432056931019803e-04
1.295747873936968517e+03 7.341133650083066708e-04
1.296648324162081053e+03 7.391617056781491684e-04
1.297548774387193589e+03 7.436960527778191865e-04
1.298449224612306125e+03 7.477679017081701384e-04
1.299349674837418661e+03 7.518095222961955352e-04
1.300250125062531197e+03 7.565801346714574405e-04
1.301150575287643733e+03 7.612227854678202182e-04
1.302051025512756269e+03 7.645187714507996725e-04
1.302951475737868805e+03 7.670797351203732578e-04
1.303851925962981340e+03 7.704577757050160621e-04
1.304752376188093876e+03 7.755171147574615445e-04
1.305652826413206640e+03 7.819080248547704724e-04
1.306553276638319176e+03 7.881440394783930563e-04
1.307453726863431712e+03 7.931089298964028771e-04
1.308354177088544247e+03 7.978268411302355187e-04
1.309254627313656783e+03 8.047659824346272859e-04
1.310155077538769319e+03 8.156702281489879849e-04
1.311055527763881855e+03 8.303440737345708618e-04
1.311955977988994391e+03 8.472668292531811531e-04
1.312856428214106927e+03 8.654143373606205643e-04
1.313756878439219463e+03 8.856004080513519899e-04
1.314657328664331999e+03 9.098380159019365046e-04
1.315557778889444762e+03 9.389531236943238473e-04
1.316458229114557298e+03 9.721732608008180117e-04
1.317358679339669834e+03 1.008840720390006543e-03
1.318259129564782370e+03 1.048503321950320895e-03
1.319159579789894906e+03 1.090216317417556837e-03
1.320060030015007442e+03 1.133322018672740196e-03
1.320960480240119978e+03 1.177811151905572068e-03
1.321860930465232514e+03 1.223638058104749293e-03
1.322761380690345050e+03 1.270263872274389862e-03
1.323661830915457585e+03 1.316360805981380304e-03
1.324562281140570121e+03 1.361071798442264067e-03
1.325462731365682885e+03 1.405217139683644046e-03
1.326363181590795421e+03 1.450912214235359435e-03
1.327263631815907956e+03 1.500041368348752893e-03
1.328164082041020492e+03 1.552687535617810598e-03
1.329064532266133028e+03 1.608580221253568280e-03
1.329964982491245564e+03 1.668171635772044579e-03
1.330865432716358100e+03 1.731568567341024590e-03
1.331765882941470636e+03 1.799550094854205891e-03
1.332666333166583172e+03 1.871523730274975410e-03
1.333566783391695708e+03 1.941933635010580431e-03
1.334467233616808244e+03 2.005287826829965734e-03
1.335367683841921007e+03 2.062614699205145546e-03
1.336268134067033543e+03 2.119256634558868910e-03
1.337168584292146079e+03 2.179432191496019373e-03
1.338069034517258615e+03 2.245573535158476835e-03
1.338969484742371151e+03 2.318442268485027598e-03
1.339869934967483687e+03 2.396608370160732953e-03
1.340770385192596223e+03 2.480340258344167388e-03
1.341670835417708759e+03 2.568986294850430195e-03
1.342571285642821294e+03 2.658129469953995384e-03
1.343471735867933830e+03 2.747863023002756946e-03
1.344372186093046366e+03 2.843005591357288669e-03
1.345272636318158902e+03 2.942463855845849248e-03
1.346173086543271666e+03 3.038888263350976015e-03
1.347073536768384201e+03 3.130803159379595170e-03
1.347973986993496737e+03 3.225374683073988901e-03
1.348874437218609273e+03 3.331565130190762558e-03
1.349774887443721809e+03 3.456574522089970666e-03
1.350675337668834345e+03 3.605305052056866251e-03
1.351575787893946881e+03 3.778756806775731593e-03
1.352476238119059417e+03 3.973025438525526476e-03
1.353376688344171953e+03 4.179334454748118328e-03
1.354277138569284489e+03 4.390050309901001938e-03
1.355177588794397025e+03 4.604816962010988522e-03
1.356078039019509788e+03 4.827703925830672572e-03
1.356978489244622324e+03 5.063803172522960729e-03
1.357878939469734860e+03 5.313855717070068395e-03
1.358779389694847396e+03 5.570653001080226249e-03
1.359679839919959932e+03 5.823742753907512615e-03
1.360580290145072468e+03 6.077644506137398588e-03
1.361480740370185003e+03 6.351847933728863201e-03
1.362381190595297539e+03 6.651305255399172014e-03
1.363281640820410075e+03 6.965589774938296154e-03
1.364182091045522611e+03 7.294146708450863562e-03
1.365082541270635147e+03 7.646401384322646343e-03
1.365982991495747910e+03 8.030630288456287041e-03
1.366883441720860446e+03 8.453262699940745570e-03
1.367783891945972982e+03 8.905238162410230446e-03
1.368684342171085518e+03 9.374176332482036383e-03
1.369584792396198054e+03 9.876307234033820937e-03
1.370485242621310590e+03 1.044710445883392097e-02
1.371385692846423126e+03 1.110201663942215165e-02
1.372286143071535662e+03 1.182944302325726442e-02
1.373186593296648198e+03 1.261375302374566354e-02
1.374087043521760734e+03 1.346493510340121547e-02
1.374987493746873270e+03 1.441702766951397270e-02
1.375887943971986033e+03 1.548978110967590312e-02
1.376788394197098569e+03 1.669948457215694390e-02
1.377688844422211105e+03 1.808067892873633023e-02
1.378589294647323641e+03 1.965353950532735053e-02
1.379489744872436177e+03 2.141179689317273746e-02
1.380390195097548713e+03 2.336779716830566025e-02
1.381290645322661248e+03 2.553062849122637173e-02
1.382191095547773784e+03 2.785306565273095933e-02
1.383091545772886320e+03 3.030253148162110818e-02
1.383991995997998856e+03 3.288633611964420639e-02
1.384892446223111392e+03 3.553284061098416213e-02
1.385792896448224155e+03 3.805432124528911747e-02
1.386693346673336691e+03 4.028928470364141756e-02
1.387593796898449227e+03 4.224694984055443747e-02
1.388494247123561763e+03 4.408324095305358320e-02
1.389394697348674299e+03 4.603140077435356747e-02
1.390295147573786835e+03 4.825247780549035692e-02
1.391195597798899371e+03 5.075890537199476832e-02
1.392096048024011907e+03 5.349184903910707972e-02
1.392996498249124443e+03 5.626183482990582824e-02
1.393896948474236979e+03 5.871653012043310388e-02
1.394797398699349515e+03 6.048226393698950820e-02
1.395697848924462278e+03 6.132778075146328584e-02
1.396598299149574814e+03 6.122190234276082138e-02
1.397498749374687350e+03 6.017772908302972817e-02
1.398399199599799886e+03 5.810389440736416639e-02
1.399299649824912422e+03 5.499298762618173159e-02
1.400200100050024957e+03 5.116066432610706649e-02
1.401100550275137493e+03 4.706395451791983708e-02
1.402001000500250029e+03 4.292273152149223003e-02
1.402901450725362565e+03 3.882096763792470401e-02
1.403801900950475101e+03 3.492177490323926381e-02
1.404702351175587637e+03 3.131637890520182210e-02
1.405602801400700173e+03 2.794017229996849025e-02
1.406503251625812936e+03 2.477628258479423057e-02
1.407403701850925472e+03 2.194843260847136046e-02
1.408304152076038008e+03 1.953909023493063946e-02
1.409204602301150544e+03 1.750553034692094861e-02
1.410105052526263080e+03 1.573860037453838137e-02
1.411005502751375616e+03 1.414371314029873490e-02
1.411905952976488152e+03 1.268937839064259755e-02
1.412806403201600688e+03 1.139313595306079042e-02
1.413706853426713224e+03 1.027278005850773036e-02
1.414607303651825760e+03 9.315181961744028669e-03
1.415507753876938295e+03 8.490668028972180384e-03
1.416408204102051059e+03 7.780548353108989075e-03
1.417308654327163595e+03 7.180346577640519395e-03
1.418209104552276131e+03 6.676933517919955534e-03
1.419109554777388666e+03 6.236557965954257765e-03
1.420010005002501202e+03 5.827075570234640893e-03
1.420910455227613738e+03 5.438325572837930666e-03
1.421810905452726274e+03 5.071108515987355660e-03
1.422711355677838810e+03 4.730945026052419192e-03
1.423611805902951346e+03 4.426974467580529170e-03
1.424512256128063882e+03 4.160667831938480617e-03
1.425412706353176418e+03 3.924820858417756887e-03
1.426313156578289181e+03 3.708169641215322467e-03
1.427213606803401717e+03 3.505989718455203470e-03
1.428114057028514253e+03 3.325578003469556714e-03
1.429014507253626789e+03 3.173553134367676238e-03
1.429914957478739325e+03 3.043038673537949452e-03
1.430815407703851861e+03 2.920802586767637203e-03
1.431715857928964397e+03 2.800874277835331636e-03
1.432616308154076933e+03 2.684463252009366713e-03
1.433516758379189469e+03 2.572673357214044082e-03
1.434417208604302004e+03 2.465767368968456701e-03
1.435317658829414540e+03 2.364320388914861303e-03
1.436218109054527304e+03 2.269537796843112184e-03
1.437118559279639840e+03 2.185619784857476509e-03
1.438019009504752376e+03 2.115250679189864449e-03
1.438919459729864911e+03 2.052808631544466179e-03
1.439819909954977447e+03 1.989316119971946961e-03
1.440720360180089983e+03 1.921436812891351995e-03
1.441620810405202519e+03 1.851981939346534524e-03
1.442521260630315055e+03 1.784789220364049224e-03
1.443421710855427591e+03 1.719568602320727026e-03
1.444322161080540127e+03 1.655769656855468966e-03
1.445222611305652663e+03 1.595421415552137918e-03
1.446123061530765426e+03 1.540010730477420382e-03
1.447023511755877962e+03 1.488414553626227948e-03
1.447923961980990498e+03 1.439416782091874772e-03
1.448824412206103034e+03 1.394678854107693315e-03
1.449724862431215570e+03 1.356411335862209213e-03
1.450625312656328106e+03 1.325043058678023952e-03
1.451525762881440642e+03 1.298522398879515226e-03
1.452426213106553178e+03 1.272907000248483514e-03
1.453326663331665713e+03 1.245204101047171254e-03
1.454227113556778249e+03 1.215889450035873313e-03
1.455127563781890785e+03 1.187786494335702067e-03
1.456028014007003321e+03 1.161993460514227717e-03
1.456928464232116085e+03 1.136403597375507156e-03
1.457828914457228620e+03 1.108560762017390348e-03
1.458729364682341156e+03 1.078483626346685544e-03
1.459629814907453692e+03 1.049660892831051065e-03
1.460530265132566228e+03 1.024784228043990964e-03
1.461430715357678764e+03 1.003268876037399825e-03
1.462331165582791300e+03 9.836279024350769087e-04
1.463231615807903836e+03 9.640786866480248376e-04
1.464132066033016372e+03 9.440582601910134895e-04
1.465032516258128908e+03 9.253305182583721226e-04
1.465932966483241444e+03 9.088722222588115291e-04
1.466833416708354207e+03 8.935309773922028896e-04
1.467733866933466743e+03 8.797071077136564337e-04
1.468634317158579279e+03 8.687813180109241282e-04
1.469534767383691815e+03 8.595253959363863055e-04
1.470435217608804351e+03 8.498436368816798554e-04
1.471335667833916887e+03 8.392503386426319921e-04
1.472236118059029423e+03 8.284737334579504427e-04
1.473136568284141958e+03 8.187102265413853143e-04
1.474037018509254494e+03 8.108085658334485569e-04
1.474937468734367030e+03 8.034226062998581176e-04
1.475837918959479566e+03 7.929276007721492792e-04
1.476738369184592329e+03 7.778314209654057501e-04
1.477638819409704865e+03 7.598648299309211478e-04
1.478539269634817401e+03 7.410444511008396811e-04
1.479439719859929937e+03 7.217480820788329090e-04
1.480340170085042473e+03 7.019043961785402172e-04
1.481240620310155009e+03 6.836626852376461675e-04
1.482141070535267545e+03 6.692766388202292527e-04
1.483041520760380081e+03 6.581717947454089526e-04
1.483941970985492617e+03 6.478796875684710932e-04
1.484842421210605153e+03 6.371121324406322541e-04
1.485742871435717689e+03 6.263631932735329267e-04
1.486643321660830452e+03 6.160415501797588539e-04
1.487543771885942988e+03 6.059009953079093694e-04
1.488444222111055524e+03 5.966397163647952197e-04
1.489344672336168060e+03 5.893678162184403128e-04
1.490245122561280596e+03 5.838220825940660351e-04
1.491145572786393132e+03 5.780490252311976324e-04
1.492046023011505667e+03 5.704193971316188919e-04
1.492946473236618203e+03 5.615759751385763620e-04
1.493846923461730739e+03 5.530387293010805179e-04
1.494747373686843275e+03 5.451303785527819015e-04
1.495647823911955811e+03 5.373275880742387064e-04
1.496548274137068574e+03 5.292912893362461358e-04
1.497448724362181110e+03 5.214926186392006583e-04
1.498349174587293646e+03 5.140934144704610706e-04
1.499249624812406182e+03 5.065112424188529658e-04
1.500150075037518718e+03 4.987086267237100887e-04
1.501050525262631254e+03 4.910911265542557136e-04
1.501950975487743790e+03 4.835582978519286485e-04
1.502851425712856326e+03 4.755445407391147798e-04
1.503751875937968862e+03 4.670269979561090775e-04
1.504652326163081398e+03 4.589392849868878803e-04
1.505552776388193934e+03 4.521291945790092168e-04
1.506453226613306470e+03 4.467186422117946768e-04
1.507353676838419233e+03 4.420807570915474089e-04
1.508254127063531769e+03 4.371294689149140275e-04
1.509154577288644305e+03 4.312949432203152015e-04
1.510055027513756841e+03 4.244707677135498296e-04
1.510955477738869376e+03 4.165354596164844072e-04
1.511855927963981912e+03 4.083380196434850326e-04
1.512756378189094448e+03 4.014781462463899784e-04
1.513656828414206984e+03 3.969505287598766759e-04
1.514557278639319520e+03 3.944154859986256857e-04
1.515457728864432056e+03 3.925233126642108019e-04
1.516358179089544592e+03 3.897476473109764343e-04
1.517258629314657355e+03 3.853858350207679416e-04
1.518159079539769891e+03 3.798892948321437872e-04
1.519059529764882427e+03 3.745535733635465994e-04
1.519959979989994963e+03 3.705212944881743097e-04
1.520860430215107499e+03 3.678676482448124500e-04
1.521760880440220035e+03 3.661045048712217777e-04
1.522661330665332571e+03 3.649069672600732716e-04
1.523561780890445107e+03 3.640753380216648033e-04
1.524462231115557643e+03 3.632290395836875797e-04
1.525362681340670179e+03 3.616902593280633786e-04
1.526263131565782714e+03 3.589734993634235570e-04
1.527163581790895478e+03 3.551438111900883927e-04
1.528064032016008014e+03 3.503716495793642396e-04
1.528964482241120550e+03 3.449885315958091045e-04
1.529864932466233086e+03 3.396541073033426954e-04
1.530765382691345621e+03 3.349302207699046837e-04
1.531665832916458157e+03 3.308226811749406565e-04
1.532566283141570693e+03 3.269284747558404191e-04
1.533466733366683229e+03 3.229974976595677955e-04
1.534367183591795765e+03 3.192851193790457553e-04
1.535267633816908301e+03 3.161090788995090696e-04
1.536168084042020837e+03 3.133206081175063992e-04
1.537068534267133600e+03 3.104442534564674002e-04
1.537968984492246136e+03 3.070893371437513663e-04
1.538869434717358672e+03 3.034130513947040750e-04
1.539769884942471208e+03 3.003025058048294565e-04
1.540670335167583744e+03 2.986036655418249260e-04
1.541570785392696280e+03 2.983756310383726810e-04
1.542471235617808816e+03 2.992636192059986203e-04
1.543371685842921352e+03 3.003908817561190092e-04
1.544272136068033888e+03 3.001768268832455031e-04
1.545172586293146423e+03 2.981466111768787475e-04
1.546073036518258959e+03 2.953635718024620800e-04
1.546973486743371723e+03 2.926101838638438062e-04
1.547873936968484259e+03 2.901487970735664931e-04
1.548774387193596795e+03 2.882811142936228380e-04
1.549674837418709330e+03 2.875389127876731344e-04
1.550575287643821866e+03 2.883160891983425011e-04
1.551475737868934402e+03 2.905576500544206553e-04
1.552376188094046938e+03 2.945960558741096431e-04
1.553276638319159474e+03 3.008084808823171586e-04
1.554177088544272010e+03 3.083495687752024175e-04
1.555077538769384546e+03 3.152771791761728513e-04
1.555977988994497082e+03 3.209618508487507545e-04
1.556878439219609618e+03 3.272462976640739488e-04
1.557778889444722381e+03 3.360719536527444077e-04
1.558679339669834917e+03 3.481199163654029706e-04
1.559579789894947453e+03 3.636723561788770252e-04
1.560480240120059989e+03 3.837581691675475857e-04
1.561380690345172525e+03 4.096739819412031458e-04
1.562281140570285061e+03 4.413051254826609550e-04
1.563181590795397597e+03 4.756774371040267267e-04
1.564082041020510133e+03 5.070333323604840191e-04
1.564982491245622668e+03 5.301817915769937431e-04
1.565882941470735204e+03 5.444008001868102641e-04
1.566783391695847740e+03 5.500535686152534069e-04
1.567683841920960504e+03 5.446557315702845034e-04
1.568584292146073039e+03 5.265539531677726004e-04
1.569484742371185575e+03 4.971274579820885451e-04
1.570385192596298111e+03 4.587201638700131256e-04
1.571285642821410647e+03 4.138340309214331883e-04
1.572186093046523183e+03 3.661095851542908405e-04
1.573086543271635719e+03 3.195200696875393257e-04
1.573986993496748255e+03 2.772224651975672993e-04
1.574887443721860791e+03 2.407859363096083569e-04
1.575787893946973327e+03 2.099087617294113689e-04
1.576688344172085863e+03 1.836242422605219348e-04
1.577588794397198626e+03 1.615347530154994445e-04
1.578489244622311162e+03 1.435911297343693126e-04
1.579389694847423698e+03 1.295095250144174756e-04
1.580290145072536234e+03 1.188045367256865828e-04
1.581190595297648770e+03 1.109495450604761351e-04
1.582091045522761306e+03 1.054258437844345905e-04
1.582991495747873842e+03 1.016317514939769136e-04
1.583891945972986377e+03 9.873041146454408919e-05
1.584792396198098913e+03 9.580310918884199988e-05
1.585692846423211449e+03 9.212717699412331749e-05
1.586593296648323985e+03 8.742155486833093087e-05
1.587493746873436749e+03 8.230241949862215857e-05
1.588394197098549284e+03 7.763026905110589849e-05
1.589294647323661820e+03 7.373040353116552792e-05
1.590195097548774356e+03 7.053888195724673088e-05
1.591095547773886892e+03 6.789798227810042903e-05
1.591995997998999428e+03 6.567093073577961191e-05
1.592896448224111964e+03 6.375888933708065800e-05
1.593796898449224500e+03 6.208905036949265610e-05
1.594697348674337036e+03 6.059456419040804535e-05
1.595597798899449572e+03 5.920613727948572757e-05
1.596498249124562108e+03 5.788372369375936646e-05
1.597398699349674871e+03 5.663494932524286695e-05
1.598299149574787407e+03 5.547423690872164194e-05
1.599199599799899943e+03 5.439960589875309112e-05
1.600100050025012479e+03 5.340052151088515965e-05
1.601000500250125015e+03 5.246589246094052379e-05
1.601900950475237551e+03 5.158647462423748527e-05
1.602801400700350086e+03 5.075495178913324142e-05
1.603701850925462622e+03 4.996552286926156660e-05
1.604602301150575158e+03 4.921350899112813317e-05
1.605502751375687694e+03 4.849506296248596248e-05
1.606403201600800230e+03 4.780696583666681822e-05
1.607303651825912766e+03 4.714648440927208612e-05
1.608204102051025529e+03 4.651126947741056941e-05
1.609104552276138065e+03 4.589928139508393996e-05
1.610005002501250601e+03 4.530873423870060836e-05
1.610905452726363137e+03 4.473805296851893215e-05
1.611805902951475673e+03 4.418583989607484001e-05
1.612706353176588209e+03 4.365084797713750014e-05
1.613606803401700745e+03 4.313195922187530089e-05
1.614507253626813281e+03 4.262816701734411357e-05
1.615407703851925817e+03 4.213856149314769461e-05
1.616308154077038353e+03 4.166231729027405992e-05
1.617208604302150889e+03 4.119868325296311264e-05
1.618109054527263652e+03 4.074697367734351062e-05
1.619009504752376188e+03 4.030656083323636132e-05
1.619909954977488724e+03 3.987686853661565696e-05
1.620810405202601260e+03 3.945736659607397112e-05
1.621710855427713796e+03 3.904756599155965107e-05
1.622611305652826331e+03 3.864701467059394749e-05
1.623511755877938867e+03 3.825529386822077880e-05
1.624412206103051403e+03 3.787201487351996319e-05
1.625312656328163939e+03 3.749681617874244460e-05
1.626213106553276475e+03 3.712936095774421367e-05
1.627113556778389011e+03 3.676933482898370528e-05
1.628014007003501774e+03 3.641644386538418386e-05
1.628914457228614310e+03 3.607041281910220413e-05
1.629814907453726846e+03 3.573098353401032995e-05
1.630715357678839382e+03 3.539791352265784228e-05
1.631615807903951918e+03 3.507097468777178542e-05
1.632516258129064454e+03 3.474995217112506314e-05
1.633416708354176990e+03 3.443464331494195568e-05
1.634317158579289526e+03 3.412485672298443899e-05
1.635217608804402062e+03 3.382041141013369430e-05
1.636118059029514598e+03 3.352113603072784652e-05
1.637018509254627133e+03 3.322686817712518508e-05
1.637918959479739897e+03 3.293745374102928020e-05
1.638819409704852433e+03 3.265274633100940924e-05
1.639719859929964969e+03 3.237260674043301612e-05
1.640620310155077505e+03 3.209690246070604446e-05
1.641520760380190040e+03 3.182550723531091757e-05
1.642421210605302576e+03 3.155830065063038004e-05
1.643321660830415112e+03 3.129516776001179214e-05
1.644222111055527648e+03 3.103599873789688571e-05
1.645122561280640184e+03 3.078068856120491360e-05
1.646023011505752720e+03 3.052913671544326584e-05
1.646923461730865256e+03 3.028124692329445060e-05
1.647823911955978019e+03 3.003692689365724036e-05
1.648724362181090555e+03 2.979608808932790969e-05
1.649624812406203091e+03 2.955864551169399085e-05
1.650525262631315627e+03 2.932451750096937303e-05
1.651425712856428163e+03 2.909362555065046809e-05
1.652326163081540699e+03 2.886589413499452864e-05
1.653226613306653235e+03 2.864125054844363126e-05
1.654127063531765771e+03 2.841962475601430405e-05
1.655027513756878307e+03 2.820094925376548094e-05
1.655927963981990843e+03 2.798515893853987092e-05
1.656828414207103378e+03 2.777219098625045997e-05
1.657728864432216142e+03 2.756198473804130560e-05
1.658629314657328678e+03 2.735448159372160350e-05
1.659529764882441214e+03 2.714962491191529227e-05
1.660430215107553749e+03 2.694735991642622315e-05
1.661330665332666285e+03 2.674763360835359928e-05
1.662231115557778821e+03 2.655039468353830154e-05
1.663131565782891357e+03 2.635559345495167867e-05
1.664032016008003893e+03 2.616318177967279969e-05
1.664932466233116429e+03 2.597311299013099479e-05
1.665832916458228965e+03 2.578534182931128404e-05
1.666733366683341501e+03 2.559982438965071141e-05
1.667633816908454037e+03 2.541651805537118640e-05
1.668534267133566800e+03 2.523538144801880273e-05
1.669434717358679336e+03 2.505637437498920567e-05
1.670335167583791872e+03 2.487945778084804953e-05
1.671235617808904408e+03 2.470459370125710128e-05
1.672136068034016944e+03 2.453174521934085614e-05
1.673036518259129480e+03 2.436087642433665580e-05
1.673936968484242016e+03 2.419195237238110831e-05
1.674837418709354552e+03 2.402493904930086253e-05
1.675737868934467087e+03 2.385980333528346355e-05
1.676638319159579623e+03 2.369651297130997571e-05
1.677538769384692159e+03 2.353503652724602498e-05
1.678439219609804923e+03 2.337534337148638108e-05
1.679339669834917459e+03 2.321740364206768145e-05
1.680240120060029994e+03 2.306118821915453449e-05
1.681140570285142530e+03 2.290666869882466636e-05
1.682041020510255066e+03 2.275381736807585863e-05
1.682941470735367602e+03 2.260260718098615516e-05
1.683841920960480138e+03 2.245301173595836601e-05
1.684742371185592674e+03 2.230500525399292696e-05
1.685642821410705210e+03 2.215856255792906336e-05
1.686543271635817746e+03 2.201365905260211839e-05
1.687443721860930282e+03 2.187027070586578328e-05
1.688344172086043045e+03 2.172837403043489913e-05
1.689244622311155581e+03 2.158794606650336843e-05
1.690145072536268117e+03 2.144896436509648825e-05
1.691045522761380653e+03 2.131140697211987304e-05
1.691945972986493189e+03 2.117525241306763347e-05
1.692846423211605725e+03 2.104047967835838277e-05
1.693746873436718261e+03 2.090706820926465745e-05
1.694647323661830796e+03 2.077499788440581146e-05
1.695547773886943332e+03 2.064424900677887110e-05
1.696448224112055868e+03 2.051480229129959177e-05
1.697348674337168404e+03 2.038663885282518171e-05
1.698249124562281168e+03 2.025974019464293451e-05
1.699149574787393703e+03 2.013408819739384695e-05
1.700050025012506239e+03 2.000966510841757463e-05
1.700950475237618775e+03 1.988645353149434811e-05
1.701850925462731311e+03 1.976443641696641715e-05
1.702751375687843847e+03 1.964359705222438004e-05
1.703651825912956383e+03 1.952391905253633071e-05
1.704552276138068919e+03 1.940538635220771810e-05
1.705452726363181455e+03 1.928798319605807708e-05
1.706353176588293991e+03 1.917169413119702978e-05
1.707253626813406527e+03 1.905650399908794595e-05
1.708154077038519290e+03 1.894239792788778359e-05
1.709054527263631826e+03 1.882936132504995025e-05
1.709954977488744362e+03 1.871737987017776741e-05
1.710855427713856898e+03 1.860643950812069798e-05
1.711755877938969434e+03 1.849652644229977073e-05
1.712656328164081970e+03 1.838762712825470035e-05
1.713556778389194506e+03 1.827972826740514075e-05
1.714457228614307041e+03 1.817281680100972071e-05
1.715357678839419577e+03 1.806687990432682568e-05
1.716258129064532113e+03 1.796190498095672603e-05
1.717158579289644649e+03 1.785787965736528545e-05
1.718059029514757185e+03 1.775479177758201578e-05
1.718959479739869948e+03 1.765262939805851928e-05
1.719859929964982484e+03 1.755138078269176689e-05
1.720760380190095020e+03 1.745103439799555300e-05
1.721660830415207556e+03 1.735157890842092642e-05
1.722561280640320092e+03 1.725300317181841127e-05
1.723461730865432628e+03 1.715529623503406925e-05
1.724362181090545164e+03 1.705844732963845793e-05
1.725262631315657700e+03 1.696244586778009622e-05
1.726163081540770236e+03 1.686728143816067544e-05
1.727063531765882772e+03 1.677294380212788951e-05
1.727963981990995308e+03 1.667942288987813880e-05
1.728864432216108071e+03 1.658670879677064930e-05
1.729764882441220607e+03 1.649479177974549229e-05
1.730665332666333143e+03 1.640366225383979202e-05
1.731565782891445679e+03 1.631331078880493701e-05
1.732466233116558215e+03 1.622372810581510148e-05
1.733366683341670750e+03 1.613490507426777154e-05
1.734267133566783286e+03 1.604683270866991317e-05
1.735167583791895822e+03 1.595950216561121173e-05
1.736068034017008358e+03 1.587290474081571299e-05
1.736968484242120894e+03 1.578703186627521623e-05
1.737868934467233430e+03 1.570187510745728765e-05
1.738769384692346193e+03 1.561742616058634902e-05
1.739669834917458729e+03 1.553367684999745521e-05
1.740570285142571265e+03 1.545061912555830203e-05
1.741470735367683801e+03 1.536824506015696036e-05
1.742371185592796337e+03 1.528654684725575682e-05
1.743271635817908873e+03 1.520551679850575796e-05
1.744172086043021409e+03 1.512514734142312338e-05
1.745072536268133945e+03 1.504543101712271151e-05
1.745972986493246481e+03 1.496636047810965135e-05
1.746873436718359017e+03 1.488792848612417376e-05
1.747773886943471553e+03 1.481012791004101895e-05
1.748674337168584316e+03 1.473295172381964892e-05
1.749574787393696852e+03 1.465639300450448733e-05
1.750475237618809388e+03 1.458044493027367584e-05
1.751375687843921924e+03 1.450510077853489655e-05
1.752276138069034459e+03 1.443035392406619910e-05
1.753176588294146995e+03 1.435619783720214565e-05
1.754077038519259531e+03 1.428262608206161975e-05
1.754977488744372067e+03 1.420963231481761082e-05
1.755877938969484603e+03 1.413721028200836420e-05
1.756778389194597139e+03 1.406535381888602952e-05
1.757678839419709675e+03 1.399405684780510083e-05
1.758579289644822438e+03 1.392331337664674225e-05
1.759479739869934974e+03 1.385311749727928860e-05
1.760380190095047510e+03 1.378346338405468571e-05
1.761280640320160046e+03 1.371434529233685368e-05
1.762181090545272582e+03 1.364575755706487844e-05
1.763081540770385118e+03 1.357769459134788067e-05
1.763981990995497654e+03 1.351015088509031687e-05
1.764882441220610190e+03 1.344312100364841743e-05
1.765782891445722726e+03 1.337659958651565412e-05
1.766683341670835262e+03 1.331058134603760146e-05
1.767583791895947797e+03 1.324506106615388264e-05
1.768484242121060333e+03 1.318003360116756115e-05
1.769384692346173097e+03 1.311549387454142902e-05
1.770285142571285633e+03 1.305143687771955696e-05
1.771185592796398169e+03 1.298785766897449103e-05
1.772086043021510704e+03 1.292475137227762405e-05
1.772986493246623240e+03 1.286211317619494252e-05
1.773886943471735776e+03 1.279993833280528923e-05
1.774787393696848312e+03 1.273822215664045239e-05
1.775687843921960848e+03 1.267696002364851242e-05
1.776588294147073384e+03 1.261614737017767691e-05
1.777488744372185920e+03 1.255577969198163013e-05
1.778389194597298456e+03 1.249585254324460658e-05
1.779289644822411219e+03 1.243636153562700171e-05
1.780190095047523755e+03 1.237730233732966307e-05
1.781090545272636291e+03 1.231867067217777847e-05
1.781990995497748827e+03 1.226046231872242135e-05
1.782891445722861363e+03 1.220267310936053602e-05
1.783791895947973899e+03 1.214529892947254637e-05
1.784692346173086435e+03 1.208833571657637322e-05
1.785592796398198971e+03 1.203177945949876335e-05
1.786493246623311506e+03 1.197562619756305606e-05
1.787393696848424042e+03 1.191987201979193709e-05
1.788294147073536578e+03 1.186451306412639132e-05
1.789194597298649342e+03 1.180954551665978161e-05
1.790095047523761878e+03 1.175496561088664919e-05
1.790995497748874413e+03 1.170076962696562899e-05
1.791895947973986949e+03 1.164695389099661543e-05
1.792796398199099485e+03 1.159351477431230577e-05
1.793696848424212021e+03 1.154044869278198643e-05
1.794597298649324557e+03 1.148775210612967995e-05
1.795497748874437093e+03 1.143542151726420805e-05
1.796398199099549629e+03 1.138345347162247840e-05
1.797298649324662165e+03 1.133184455652453354e-05
1.798199099549774701e+03 1.128059140054087646e-05
1.799099549774887464e+03 1.122969067287121433e-05
1.800000000000000000e+03 1.117913908273526053e-05
