0.000000000000000000e+00 7.915185427235314330e-04
9.004502251125562351e-01 1.052350332232316601e-03
1.800900450225112470e+00 1.390825819504479298e-03
2.701350675337668594e+00 1.756623112099430341e-03
3.601800900450224940e+00 2.029993560040660450e-03
4.502251125562780842e+00 2.131011272896950193e-03
5.402701350675337189e+00 2.066494662099890422e-03
6.303151575787893535e+00 1.831292976181640502e-03
7.203601800900449881e+00 1.479551545550093338e-03
8.104052026013006227e+00 1.132565678945447480e-03
9.004502251125561685e+00 8.569831558379767096e-04
9.904952476238118919e+00 6.549741198082641202e-04
1.080540270135067438e+01 5.088769264937401376e-04
1.170585292646323161e+01 4.027464627169573567e-04
1.260630315157578707e+01 3.248843840034790274e-04
1.350675337668834430e+01 2.668744196307925773e-04
1.440720360180089976e+01 2.228633593237061084e-04
1.530765382691345522e+01 1.888700329411246537e-04
1.620810405202601245e+01 1.621800781655049345e-04
1.710855427713856969e+01 1.408937677944880707e-04
1.800900450225112337e+01 1.236163825532178128e-04
1.890945472736368060e+01 1.092973835330126480e-04
1.980990495247623784e+01 9.721675740399004302e-05
2.071035517758879507e+01 8.695880716514593658e-05
2.161080540270134875e+01 7.825998955046344551e-05
2.251125562781390599e+01 7.088948212564964355e-05
2.341170585292646322e+01 6.463317842954139486e-05
2.431215607803901690e+01 5.929233621225582458e-05
2.521260630315157414e+01 5.465462109348555010e-05
2.611305652826413137e+01 5.050770187222090884e-05
2.701350675337668861e+01 4.675487964537416660e-05
2.791395697848924229e+01 4.342411911392613655e-05
2.881440720360179952e+01 4.053530158819862575e-05
2.971485742871435676e+01 3.805384438140634431e-05
3.061530765382691044e+01 3.591877391006254440e-05
3.151575787893946767e+01 3.407331805653182637e-05
3.241620810405202491e+01 3.246484802043570584e-05
3.331665832916458214e+01 3.101597311627399007e-05
3.421710855427713938e+01 2.959903282241680428e-05
3.511755877938969661e+01 2.811198859392028687e-05
3.601800900450224674e+01 2.658751928241018443e-05
3.691845922961480397e+01 2.511779992748747989e-05
3.781890945472736121e+01 2.373271791707298067e-05
3.871935967983991844e+01 2.243220402082789244e-05
3.961980990495247568e+01 2.122878234964198338e-05
4.052026013006503291e+01 2.013937054006121095e-05
4.142071035517759015e+01 1.915584310211363827e-05
4.232116058029014027e+01 1.826462563018051163e-05
4.322161080540269751e+01 1.747860567172339807e-05
4.412206103051525474e+01 1.681564370181118102e-05
4.502251125562781198e+01 1.628469208759707936e-05
4.592296148074036921e+01 1.588936305646434737e-05
4.682341170585292645e+01 1.561788464917664333e-05
4.772386193096548368e+01 1.541346804202435708e-05
4.862431215607803381e+01 1.516896107247101234e-05
4.952476238119059104e+01 1.481570575560996886e-05
5.042521260630314828e+01 1.439973171298887053e-05
5.132566283141570551e+01 1.399827641723537075e-05
5.222611305652826275e+01 1.364802342118556095e-05
5.312656328164081998e+01 1.335898903892961587e-05
5.402701350675337721e+01 1.312216880909754363e-05
5.492746373186592734e+01 1.288709112334954670e-05
5.582791395697848458e+01 1.257004066097883597e-05
5.672836418209104181e+01 1.217560871193870975e-05
5.762881440720359905e+01 1.180953425605201114e-05
5.852926463231615628e+01 1.153816877147795552e-05
5.942971485742871351e+01 1.133321557725489110e-05
6.033016508254127075e+01 1.111933237534016315e-05
6.123061530765382088e+01 1.085273369516033340e-05
6.213106553276637811e+01 1.056211697755709455e-05
6.303151575787893535e+01 1.031242755699985902e-05
6.393196598299149258e+01 1.013245560330196806e-05
6.483241620810404982e+01 9.993465520320378757e-06
6.573286643321659994e+01 9.852065105143584817e-06
6.663331665832916428e+01 9.705311858302874935e-06
6.753376688344171441e+01 9.588335173520645493e-06
6.843421710855427875e+01 9.545633855558614226e-06
6.933466733366682888e+01 9.598723966616785682e-06
7.023511755877939322e+01 9.699514224690831583e-06
7.113556778389194335e+01 9.748585525438883389e-06
7.203601800900449348e+01 9.700870465539884041e-06
7.293646823411705782e+01 9.587189146628174557e-06
7.383691845922960795e+01 9.482079860449372602e-06
7.473736868434217229e+01 9.482137000992895185e-06
7.563781890945472242e+01 9.636412061502849785e-06
7.653826913456728676e+01 9.886979226124960422e-06
7.743871935967983688e+01 1.010442029968166694e-05
7.833916958479238701e+01 1.019813969414492821e-05
7.923961980990495135e+01 1.016864395514486193e-05
8.014007003501750148e+01 1.008502988294558585e-05
8.104052026013006582e+01 1.000712373539070718e-05
8.194097048524261595e+01 9.916335351016796926e-06
8.284142071035518029e+01 9.749389262883072083e-06
8.374187093546773042e+01 9.505742054282370057e-06
8.464232116058028055e+01 9.227717331435470702e-06
8.554277138569284489e+01 8.931210381486891055e-06
8.644322161080539502e+01 8.658615836754918798e-06
8.734367183591795936e+01 8.478329008451951349e-06
8.824412206103050949e+01 8.434002645489863098e-06
8.914457228614307382e+01 8.515910328460008611e-06
9.004502251125562395e+01 8.634103232089393237e-06
9.094547273636817408e+01 8.648612152794714808e-06
9.184592296148073842e+01 8.492225458952447472e-06
9.274637318659328855e+01 8.249460204769252895e-06
9.364682341170585289e+01 8.061380099484992783e-06
9.454727363681840302e+01 7.991818150307845929e-06
9.544772386193096736e+01 8.007842010004405779e-06
9.634817408704351749e+01 8.063704975566927117e-06
9.724862431215606762e+01 8.146921255239843735e-06
9.814907453726863196e+01 8.246190758786024196e-06
9.904952476238118209e+01 8.357429768650288587e-06
9.994997498749374643e+01 8.465191072799979928e-06
1.008504252126062966e+02 8.525284637874273947e-06
1.017508754377188609e+02 8.498953701240542896e-06
1.026513256628314110e+02 8.356933060203259583e-06
1.035517758879439612e+02 8.131233180444173749e-06
1.044522261130565255e+02 7.921379252439610731e-06
1.053526763381690756e+02 7.781953439042503656e-06
1.062531265632816400e+02 7.706469782941943522e-06
1.071535767883941901e+02 7.688135279823752135e-06
1.080540270135067544e+02 7.720803542537442598e-06
1.089544772386193046e+02 7.794245359569603143e-06
1.098549274637318547e+02 7.916344205500888771e-06
1.107553776888444190e+02 8.095665357257397917e-06
1.116558279139569692e+02 8.323711271895087183e-06
1.125562781390695335e+02 8.553810638556210962e-06
1.134567283641820836e+02 8.688457845049279727e-06
1.143571785892946480e+02 8.647681987862682943e-06
1.152576288144071981e+02 8.496290689014235949e-06
1.161580790395197482e+02 8.400631297989508134e-06
1.170585292646323126e+02 8.447737977210520338e-06
1.179589794897448627e+02 8.619836274499200683e-06
1.188594297148574270e+02 8.852393112024494227e-06
1.197598799399699772e+02 9.059801257641612068e-06
1.206603301650825415e+02 9.153680894153149976e-06
1.215607803901950916e+02 9.109529029897299208e-06
1.224612306153076418e+02 9.000006907488277203e-06
1.233616808404202061e+02 8.915461233308003098e-06
1.242621310655327562e+02 8.912631794954867804e-06
1.251625812906453206e+02 9.028751424822710221e-06
1.260630315157578707e+02 9.279787445299770630e-06
1.269634817408704350e+02 9.629919341749016492e-06
1.278639319659829852e+02 1.003295950645900692e-05
1.287643821910955353e+02 1.047384269995025448e-05
1.296648324162080996e+02 1.090722034629062235e-05
1.305652826413206640e+02 1.120649551203881444e-05
1.314657328664331999e+02 1.127852446846768831e-05
1.323661830915457642e+02 1.120050117313313630e-05
1.332666333166583286e+02 1.110576397856720632e-05
1.341670835417708929e+02 1.104682367763809795e-05
1.350675337668834288e+02 1.102641337059314754e-05
1.359679839919959932e+02 1.101344365401188011e-05
1.368684342171085575e+02 1.096747901707824809e-05
1.377688844422210934e+02 1.088224662302675269e-05
1.386693346673336578e+02 1.078603096240077451e-05
1.395697848924462221e+02 1.070400747990832939e-05
1.404702351175587864e+02 1.065366431390521373e-05
1.413706853426713224e+02 1.069121471639370582e-05
1.422711355677838867e+02 1.085095145866802508e-05
1.431715857928964510e+02 1.103786372202282937e-05
1.440720360180089870e+02 1.111970378839865796e-05
1.449724862431215513e+02 1.110405411934539910e-05
1.458729364682341156e+02 1.110729162013503487e-05
1.467733866933466800e+02 1.119445614870106449e-05
1.476738369184592159e+02 1.135644261643203066e-05
1.485742871435717802e+02 1.157954936572127151e-05
1.494747373686843446e+02 1.189206457723303885e-05
1.503751875937968805e+02 1.232077884760207936e-05
1.512756378189094448e+02 1.275867135061719221e-05
1.521760880440220092e+02 1.299512394316110697e-05
1.530765382691345735e+02 1.294100679569169011e-05
1.539769884942471094e+02 1.269311470026028479e-05
1.548774387193596738e+02 1.233721032398875223e-05
1.557778889444722381e+02 1.189734720944906642e-05
1.566783391695847740e+02 1.147707749514772168e-05
1.575787893946973384e+02 1.119702352907559072e-05
1.584792396198099027e+02 1.109245971345951449e-05
1.593796898449224670e+02 1.116168477817619710e-05
1.602801400700350030e+02 1.139129663911907577e-05
1.611805902951475673e+02 1.173144255250077119e-05
1.620810405202601316e+02 1.207621612190894431e-05
1.629814907453726676e+02 1.230598800039464545e-05
1.638819409704852319e+02 1.239979078575916194e-05
1.647823911955977962e+02 1.242912401611866425e-05
1.656828414207103606e+02 1.247800702558768011e-05
1.665832916458228965e+02 1.262784202740723959e-05
1.674837418709354608e+02 1.291011269586746450e-05
1.683841920960480252e+02 1.326690224209062603e-05
1.692846423211605611e+02 1.360628665235278577e-05
1.701850925462731254e+02 1.387004884637812538e-05
1.710855427713856898e+02 1.401686933694395146e-05
1.719859929964982541e+02 1.401751672403878918e-05
1.728864432216107900e+02 1.393429027464182462e-05
1.737868934467233544e+02 1.398340709652044599e-05
1.746873436718359187e+02 1.437375147733096752e-05
1.755877938969484546e+02 1.508465631782890264e-05
1.764882441220610190e+02 1.584435022552084526e-05
1.773886943471735833e+02 1.628194638895038033e-05
1.782891445722861476e+02 1.626960030304220255e-05
1.791895947973986836e+02 1.603647110962522194e-05
1.800900450225112479e+02 1.584608451139256761e-05
1.809904952476238122e+02 1.576931038635086236e-05
1.818909454727363482e+02 1.576163949706831365e-05
1.827913956978489125e+02 1.575920105557220797e-05
1.836918459229614768e+02 1.569456709447492111e-05
1.845922961480740412e+02 1.561891208070722705e-05
1.854927463731865771e+02 1.563552956037635635e-05
1.863931965982991414e+02 1.573000636536396187e-05
1.872936468234117058e+02 1.585620560184099128e-05
1.881940970485242417e+02 1.609044061358149910e-05
1.890945472736368060e+02 1.648058516485100404e-05
1.899949974987493704e+02 1.691541542716097017e-05
1.908954477238619347e+02 1.726359539482219053e-05
1.917958979489744706e+02 1.748768520017406948e-05
1.926963481740870350e+02 1.756846319639758066e-05
1.935967983991995993e+02 1.753816863024547268e-05
1.944972486243121352e+02 1.753853564847299889e-05
1.953976988494246996e+02 1.769204966753755510e-05
1.962981490745372639e+02 1.800893815442926844e-05
1.971985992996498283e+02 1.834506732135910074e-05
1.980990495247623642e+02 1.842132125071218777e-05
1.989994997498749285e+02 1.811003951987226959e-05
1.998999499749874929e+02 1.759789682259296903e-05
2.008004002001000288e+02 1.709099825725289551e-05
2.017008504252125931e+02 1.662691871671470662e-05
2.026013006503251574e+02 1.619383111506709705e-05
2.035017508754377218e+02 1.581047636833267167e-05
2.044022011005502577e+02 1.552563388030305582e-05
2.053026513256628220e+02 1.537698741694047550e-05
2.062031015507753864e+02 1.533286140765527703e-05
2.071035517758879223e+02 1.538217637762125467e-05
2.080040020010004866e+02 1.558132989776452065e-05
2.089044522261130510e+02 1.596138701572476055e-05
2.098049024512256153e+02 1.650847262963027565e-05
2.107053526763381512e+02 1.718478558881084093e-05
2.116058029014507156e+02 1.794553202815657160e-05
2.125062531265632799e+02 1.866539638979290879e-05
2.134067033516758158e+02 1.919973623920649564e-05
2.143071535767883802e+02 1.955415027472881737e-05
2.152076038019009445e+02 1.982107002860244961e-05
2.161080540270135089e+02 2.006210422772148057e-05
2.170085042521260448e+02 2.026780001485081452e-05
2.179089544772386091e+02 2.031118767914183600e-05
2.188094047023511735e+02 2.000382958974575014e-05
2.197098549274637094e+02 1.937189811522000582e-05
2.206103051525762737e+02 1.870145217574946603e-05
2.215107553776888381e+02 1.824914637498826911e-05
2.224112056028014024e+02 1.802418470255650481e-05
2.233116558279139383e+02 1.787822754203220372e-05
2.242121060530265027e+02 1.771382120104568288e-05
2.251125562781390670e+02 1.752469439035208987e-05
2.260130065032516029e+02 1.730759284830158735e-05
2.269134567283641672e+02 1.706210158898506789e-05
2.278139069534767316e+02 1.683995955930700123e-05
2.287143571785892959e+02 1.670527523505447779e-05
2.296148074037018318e+02 1.672540670517566792e-05
2.305152576288143962e+02 1.687205398306974410e-05
2.314157078539269605e+02 1.699437910401479585e-05
2.323161580790394964e+02 1.702843263151325261e-05
2.332166083041520608e+02 1.704463127902631806e-05
2.341170585292646251e+02 1.711132771132315515e-05
2.350175087543771895e+02 1.719372938417318953e-05
2.359179589794897254e+02 1.717467746435499199e-05
2.368184092046022897e+02 1.700071828975936364e-05
2.377188594297148541e+02 1.672481351341188898e-05
2.386193096548273900e+02 1.639488096786619837e-05
2.395197598799399543e+02 1.608659884197327452e-05
2.404202101050525187e+02 1.589215697545307915e-05
2.413206603301650830e+02 1.583163232249043070e-05
2.422211105552776189e+02 1.588738432069969708e-05
2.431215607803901833e+02 1.606491027148214027e-05
2.440220110055027476e+02 1.637333360645993523e-05
2.449224612306152835e+02 1.674334786814453670e-05
2.458229114557278479e+02 1.709748515025615961e-05
2.467233616808404122e+02 1.742906524807211793e-05
2.476238119059529765e+02 1.773593380562565454e-05
2.485242621310655124e+02 1.803362302586641010e-05
2.494247123561780768e+02 1.834371719196387819e-05
2.503251625812906411e+02 1.861103662712648084e-05
2.512256128064031770e+02 1.879129970201470445e-05
2.521260630315157414e+02 1.893918840073817919e-05
2.530265132566283057e+02 1.908553694720884438e-05
2.539269634817408701e+02 1.922294943620113345e-05
2.548274137068534060e+02 1.932481674369253784e-05
2.557278639319659703e+02 1.941221033786742691e-05
2.566283141570785347e+02 1.957946086820657719e-05
2.575287643821910706e+02 1.986040952836170878e-05
2.584292146073036633e+02 2.022944410450234446e-05
2.593296648324161993e+02 2.060978214776225273e-05
2.602301150575287352e+02 2.087989751277291762e-05
2.611305652826413279e+02 2.092905516215641718e-05
2.620310155077538639e+02 2.070275927232511314e-05
2.629314657328663998e+02 2.031069214586864158e-05
2.638319159579789925e+02 2.000339944929270896e-05
2.647323661830915285e+02 1.993515290070298820e-05
2.656328164082040644e+02 2.006823663988960399e-05
2.665332666333166571e+02 2.029965238072742201e-05
2.674337168584291931e+02 2.062656261286980745e-05
2.683341670835417858e+02 2.107103895470770704e-05
2.692346173086543217e+02 2.151828301904857205e-05
2.701350675337668577e+02 2.188611138416245603e-05
2.710355177588794504e+02 2.222497173697036919e-05
2.719359679839919863e+02 2.247494242550860242e-05
2.728364182091045222e+02 2.247011177577340404e-05
2.737368684342171150e+02 2.223866435518302495e-05
2.746373186593296509e+02 2.197566549795027104e-05
2.755377688844421868e+02 2.178306413836617235e-05
2.764382191095547796e+02 2.161270953909256943e-05
2.773386693346673155e+02 2.138604558254787982e-05
2.782391195597798514e+02 2.107573104965292598e-05
2.791395697848924442e+02 2.080743877232313425e-05
2.800400200100049801e+02 2.078437647638277610e-05
2.809404702351175729e+02 2.102658919742533429e-05
2.818409204602301088e+02 2.135153311560532066e-05
2.827413706853426447e+02 2.162115214494350304e-05
2.836418209104552375e+02 2.183899078798233140e-05
2.845422711355677734e+02 2.208667966667083606e-05
2.854427213606803093e+02 2.239246091007459754e-05
2.863431715857929021e+02 2.268673059145756010e-05
2.872436218109054380e+02 2.295749664919474560e-05
2.881440720360179739e+02 2.326572012827568385e-05
2.890445222611305667e+02 2.361833088817944553e-05
2.899449724862431026e+02 2.401038246627453126e-05
2.908454227113556385e+02 2.444398941067577771e-05
2.917458729364682313e+02 2.484992088719558577e-05
2.926463231615807672e+02 2.514994534653343120e-05
2.935467733866933600e+02 2.535810806280074954e-05
2.944472236118058959e+02 2.548492872147959857e-05
2.953476738369184318e+02 2.539756044854516844e-05
2.962481240620310246e+02 2.501846825379894538e-05
2.971485742871435605e+02 2.454216676844321506e-05
2.980490245122560964e+02 2.425342745855869195e-05
2.989494747373686891e+02 2.424838496045654342e-05
2.998499249624812251e+02 2.449084670521727551e-05
3.007503751875937610e+02 2.488962728217193008e-05
3.016508254127063537e+02 2.530176780729017692e-05
3.025512756378188897e+02 2.569590104280333460e-05
3.034517258629314256e+02 2.614824845420467324e-05
3.043521760880440183e+02 2.674086951829579643e-05
3.052526263131565543e+02 2.747204902951582318e-05
3.061530765382691470e+02 2.826698719978952575e-05
3.070535267633816829e+02 2.906068349678985285e-05
3.079539769884942189e+02 2.979432960644436487e-05
3.088544272136068116e+02 3.037894683936557855e-05
3.097548774387193475e+02 3.078438501986430009e-05
3.106553276638318835e+02 3.104620097488625617e-05
3.115557778889444762e+02 3.118535568621333203e-05
3.124562281140570121e+02 3.126613048642515400e-05
3.133566783391695481e+02 3.131593680633119263e-05
3.142571285642821408e+02 3.124769762155727018e-05
3.151575787893946767e+02 3.108256626690563806e-05
3.160580290145072127e+02 3.098657209558044714e-05
3.169584792396198054e+02 3.106243981627724459e-05
3.178589294647323413e+02 3.116234645543196081e-05
3.187593796898449341e+02 3.105503647934807957e-05
3.196598299149574700e+02 3.074606130552006805e-05
3.205602801400700059e+02 3.046026601019700348e-05
3.214607303651825987e+02 3.040058218412753320e-05
3.223611805902951346e+02 3.059994227450186334e-05
3.232616308154076705e+02 3.091419135843462762e-05
3.241620810405202633e+02 3.116533218087523137e-05
3.250625312656327992e+02 3.126910222340967033e-05
3.259629814907453351e+02 3.120717647949731749e-05
3.268634317158579279e+02 3.101081264281237273e-05
3.277638819409704638e+02 3.078939950899694237e-05
3.286643321660829997e+02 3.068649742254290428e-05
3.295647823911955925e+02 3.077426856025225715e-05
3.304652326163081284e+02 3.098094920433943521e-05
3.313656828414207212e+02 3.114452290138911814e-05
3.322661330665332571e+02 3.127185405191469886e-05
3.331665832916457930e+02 3.147942591917216558e-05
3.340670335167583858e+02 3.171760924295550447e-05
3.349674837418709217e+02 3.187513185868790438e-05
3.358679339669834576e+02 3.197663484747205703e-05
3.367683841920960504e+02 3.205449429181280439e-05
3.376688344172085863e+02 3.207345033635109843e-05
3.385692846423211222e+02 3.204461411388000842e-05
3.394697348674337150e+02 3.208427527545021390e-05
3.403701850925462509e+02 3.234758754848215766e-05
3.412706353176587868e+02 3.284413417137541167e-05
3.421710855427713796e+02 3.331070961405743368e-05
3.430715357678839155e+02 3.351815107168549574e-05
3.439719859929965082e+02 3.358264467387250395e-05
3.448724362181090441e+02 3.368067756194815377e-05
3.457728864432215801e+02 3.380861597807669069e-05
3.466733366683341728e+02 3.385736343296571999e-05
3.475737868934467087e+02 3.376514044623378453e-05
3.484742371185592447e+02 3.352939337393032334e-05
3.493746873436718374e+02 3.311121358490834037e-05
3.502751375687843733e+02 3.244381203306217142e-05
3.511755877938969093e+02 3.165047784962905076e-05
3.520760380190095020e+02 3.100156413089151985e-05
3.529764882441220379e+02 3.056269240026845101e-05
3.538769384692345739e+02 3.019188664903643416e-05
3.547773886943471666e+02 2.980963888615833485e-05
3.556778389194597025e+02 2.952595114030008862e-05
3.565782891445722953e+02 2.943687349239479289e-05
3.574787393696848312e+02 2.943998223752237033e-05
3.583791895947973671e+02 2.935492611977162449e-05
3.592796398199099599e+02 2.912598685417267980e-05
3.601800900450224958e+02 2.879676965422545346e-05
3.610805402701350317e+02 2.837212276270594435e-05
3.619809904952476245e+02 2.789585208348774862e-05
3.628814407203601604e+02 2.750068436313184587e-05
3.637818909454726963e+02 2.730263428065388229e-05
3.646823411705852891e+02 2.727233950679720001e-05
3.655827913956978250e+02 2.728579408388430785e-05
3.664832416208103609e+02 2.727698474992129693e-05
3.673836918459229537e+02 2.726174784314017572e-05
3.682841420710354896e+02 2.720658601244467894e-05
3.691845922961480824e+02 2.706147455712158982e-05
3.700850425212606183e+02 2.692916986525483990e-05
3.709854927463731542e+02 2.700864056686330873e-05
3.718859429714857470e+02 2.728382217767224671e-05
3.727863931965982829e+02 2.755868297963531989e-05
3.736868434217108188e+02 2.783212310374307103e-05
3.745872936468234116e+02 2.824317411594224906e-05
3.754877438719359475e+02 2.873227986581540673e-05
3.763881940970484834e+02 2.901725375119580991e-05
3.772886443221610762e+02 2.898415211947906055e-05
3.781890945472736121e+02 2.892185187541153354e-05
3.790895447723861480e+02 2.913442418057520921e-05
3.799899949974987408e+02 2.963831865624652764e-05
3.808904452226112767e+02 3.027576395180172185e-05
3.817908954477238694e+02 3.087985878560599664e-05
3.826913456728364054e+02 3.137077726185784869e-05
3.835917958979489413e+02 3.172049718649678774e-05
3.844922461230615340e+02 3.185694559599418734e-05
3.853926963481740700e+02 3.168567375635315071e-05
3.862931465732866059e+02 3.128596171194264231e-05
3.871935967983991986e+02 3.081829966919008579e-05
3.880940470235117346e+02 3.028698760670204380e-05
3.889944972486242705e+02 2.954535055879773867e-05
3.898949474737368632e+02 2.849686418810982880e-05
3.907953976988493991e+02 2.732058376302147934e-05
3.916958479239619351e+02 2.636282294581987023e-05
3.925962981490745278e+02 2.585750053227701958e-05
3.934967483741870637e+02 2.579694464866180934e-05
3.943971985992996565e+02 2.600945188052486195e-05
3.952976488244121924e+02 2.629405989083589821e-05
3.961980990495247283e+02 2.649560606650930210e-05
3.970985492746373211e+02 2.660204843939970178e-05
3.979989994997498570e+02 2.664707242509653680e-05
3.988994497248623929e+02 2.659900711320650543e-05
3.997998999499749857e+02 2.641286065146826234e-05
4.007003501750875216e+02 2.613081023766630951e-05
4.016008004002000575e+02 2.589819748434973678e-05
4.025012506253126503e+02 2.579351824986975467e-05
4.034017008504251862e+02 2.572546198152237841e-05
4.043021510755377221e+02 2.559724717545128902e-05
4.052026013006503149e+02 2.545405129778802587e-05
4.061030515257628508e+02 2.543716657490517269e-05
4.070035017508754436e+02 2.567338755891564737e-05
4.079039519759879795e+02 2.613217339231806120e-05
4.088044022011005154e+02 2.663544111362743492e-05
4.097048524262131082e+02 2.706956917422440547e-05
4.106053026513256441e+02 2.739133319011939451e-05
4.115057528764381800e+02 2.758630580626414780e-05
4.124062031015507728e+02 2.775052050276178219e-05
4.133066533266633087e+02 2.800705484132589920e-05
4.142071035517758446e+02 2.839365854056249223e-05
4.151075537768884374e+02 2.885809645348433983e-05
4.160080040020009733e+02 2.925901475197480064e-05
4.169084542271135092e+02 2.950166359567405456e-05
4.178089044522261020e+02 2.967859475647394198e-05
4.187093546773386379e+02 2.989868140992748703e-05
4.196098049024512306e+02 3.013398628017504785e-05
4.205102551275637666e+02 3.036748058044773702e-05
4.214107053526763025e+02 3.054111123451696327e-05
4.223111555777888952e+02 3.053108609414434242e-05
4.232116058029014312e+02 3.035526846322846446e-05
4.241120560280139671e+02 3.017439930118738338e-05
4.250125062531265598e+02 3.018681429657337921e-05
4.259129564782390958e+02 3.045836353112947026e-05
4.268134067033516317e+02 3.082950078337733048e-05
4.277138569284642244e+02 3.103320449647744265e-05
4.286143071535767604e+02 3.094579009861846418e-05
4.295147573786892963e+02 3.055322290937709055e-05
4.304152076038018890e+02 2.996640247909132892e-05
4.313156578289144250e+02 2.956740599785627542e-05
4.322161080540270177e+02 2.963015487538521404e-05
4.331165582791395536e+02 3.003526912620149076e-05
4.340170085042520896e+02 3.051867156898065739e-05
4.349174587293646823e+02 3.088647492076671675e-05
4.358179089544772182e+02 3.106489175102720068e-05
4.367183591795897541e+02 3.120194533941627311e-05
4.376188094047023469e+02 3.148849988440437198e-05
4.385192596298148828e+02 3.176872661351631518e-05
4.394197098549274187e+02 3.164410785535505608e-05
4.403201600800400115e+02 3.098572143133080108e-05
4.412206103051525474e+02 3.006960318607057603e-05
4.421210605302650833e+02 2.923009503140061203e-05
4.430215107553776761e+02 2.867982820469216872e-05
4.439219609804902120e+02 2.848950189883922885e-05
4.448224112056028048e+02 2.853836171879702206e-05
4.457228614307153407e+02 2.870486112411159090e-05
4.466233116558278766e+02 2.895368120446909985e-05
4.475237618809404694e+02 2.919782824028513093e-05
4.484242121060530053e+02 2.934857002388984273e-05
4.493246623311655412e+02 2.945367526170293199e-05
4.502251125562781340e+02 2.956065479425763171e-05
4.511255627813906699e+02 2.960618132063937136e-05
4.520260130065032058e+02 2.954372195359914881e-05
4.529264632316157986e+02 2.941393118208231335e-05
4.538269134567283345e+02 2.926822130407184425e-05
4.547273636818408704e+02 2.912193770666602962e-05
4.556278139069534632e+02 2.904792966449107856e-05
4.565282641320659991e+02 2.914303081179311800e-05
4.574287143571785919e+02 2.941342460789011590e-05
4.583291645822911278e+02 2.979649158221375156e-05
4.592296148074036637e+02 3.026534677645452212e-05
4.601300650325162565e+02 3.079864567758718757e-05
4.610305152576287924e+02 3.128993218910179370e-05
4.619309654827413283e+02 3.160046242302589871e-05
4.628314157078539210e+02 3.169355884813119937e-05
4.637318659329664570e+02 3.165868492808464758e-05
4.646323161580789929e+02 3.160832661528319268e-05
4.655327663831915856e+02 3.165497646853881114e-05
4.664332166083041216e+02 3.183670086135977734e-05
4.673336668334167143e+02 3.207084024355277119e-05
4.682341170585292502e+02 3.226527044865551246e-05
4.691345672836417862e+02 3.236440740602316006e-05
4.700350175087543789e+02 3.238334794350972281e-05
4.709354677338669148e+02 3.244169565149228557e-05
4.718359179589794508e+02 3.264306492322950441e-05
4.727363681840920435e+02 3.286249296152060108e-05
4.736368184092045794e+02 3.285333714892220951e-05
4.745372686343171154e+02 3.252952981626930031e-05
4.754377188594297081e+02 3.195673459594861547e-05
4.763381690845422440e+02 3.123042927069173084e-05
4.772386193096547800e+02 3.052547506560920291e-05
4.781390695347673727e+02 3.001030640885901508e-05
4.790395197598799086e+02 2.969781792010162306e-05
4.799399699849925014e+02 2.950363312889093360e-05
4.808404202101050373e+02 2.940330872154771856e-05
4.817408704352175732e+02 2.955429302612261141e-05
4.826413206603301660e+02 3.010310232404201389e-05
4.835417708854427019e+02 3.089962225211077623e-05
4.844422211105552378e+02 3.163692246760211479e-05
4.853426713356678306e+02 3.216379656475070760e-05
4.862431215607803665e+02 3.255519656595836416e-05
4.871435717858929024e+02 3.289953169698631613e-05
4.880440220110054952e+02 3.320096048509897407e-05
4.889444722361180311e+02 3.350207689631203663e-05
4.898449224612305670e+02 3.386104694865969502e-05
4.907453726863431598e+02 3.429459049571033304e-05
4.916458229114556957e+02 3.477175468103644353e-05
4.925462731365682885e+02 3.519008841165452352e-05
4.934467233616808244e+02 3.543440637179599525e-05
4.943471735867933603e+02 3.547946393074429542e-05
4.952476238119059531e+02 3.540492106029012592e-05
4.961480740370184890e+02 3.526659230319934343e-05
4.970485242621310249e+02 3.502886434854269487e-05
4.979489744872436177e+02 3.466512446356817599e-05
4.988494247123561536e+02 3.425059984607808797e-05
4.997498749374686895e+02 3.391915928937597213e-05
5.006503251625812823e+02 3.376467976654330401e-05
5.015507753876938182e+02 3.383194343867295734e-05
5.024512256128063541e+02 3.415622643103817481e-05
5.033516758379189469e+02 3.470954709278007799e-05
5.042521260630314828e+02 3.536842144123980710e-05
5.051525762881440755e+02 3.603301158153610323e-05
5.060530265132566115e+02 3.666304577909198825e-05
5.069534767383691474e+02 3.727505097266598682e-05
5.078539269634817401e+02 3.797636886902310531e-05
5.087543771885942760e+02 3.878175073899935496e-05
5.096548274137068120e+02 3.951044764360499040e-05
5.105552776388194047e+02 4.005049445477905270e-05
5.114557278639319406e+02 4.043952792173387235e-05
5.123561780890445334e+02 4.073848348891829629e-05
5.132566283141570693e+02 4.104098311249303871e-05
5.141570785392696052e+02 4.142540772262040641e-05
5.150575287643821412e+02 4.185230117028493059e-05
5.159579789894946771e+02 4.221776517443103150e-05
5.168584292146073267e+02 4.238250991514464953e-05
5.177588794397198626e+02 4.226105058284799668e-05
5.186593296648323985e+02 4.201867913283571896e-05
5.195597798899449344e+02 4.186419221923880105e-05
5.204602301150574704e+02 4.184880099956570345e-05
5.213606803401700063e+02 4.192582672418046301e-05
5.222611305652826559e+02 4.206557195656317736e-05
5.231615807903951918e+02 4.231372260783373095e-05
5.240620310155077277e+02 4.267824791788144874e-05
5.249624812406202636e+02 4.309501134012407080e-05
5.258629314657327996e+02 4.343477846485362565e-05
5.267633816908454492e+02 4.354339950239506613e-05
5.276638319159579851e+02 4.338732652982463277e-05
5.285642821410705210e+02 4.310180802620666723e-05
5.294647323661830569e+02 4.292689616330031503e-05
5.303651825912955928e+02 4.311046727514683823e-05
5.312656328164081287e+02 4.369843177829919808e-05
5.321660830415207784e+02 4.450860634594197671e-05
5.330665332666333143e+02 4.538737044400099283e-05
5.339669834917458502e+02 4.626450987191292250e-05
5.348674337168583861e+02 4.700762517785752736e-05
5.357678839419709220e+02 4.746698555741041769e-05
5.366683341670835716e+02 4.763359383125159008e-05
5.375687843921961075e+02 4.764519012555219903e-05
5.384692346173086435e+02 4.753906182449467471e-05
5.393696848424211794e+02 4.723063846147666041e-05
5.402701350675337153e+02 4.676192280074184163e-05
5.411705852926462512e+02 4.642652071272784510e-05
5.420710355177589008e+02 4.655544035583488290e-05
5.429714857428714367e+02 4.722659852697763211e-05
5.438719359679839727e+02 4.813753960600194754e-05
5.447723861930965086e+02 4.882770900858136333e-05
5.456728364182090445e+02 4.909993495316293679e-05
5.465732866433215804e+02 4.913147107617655570e-05
5.474737368684342300e+02 4.916573885129723622e-05
5.483741870935467659e+02 4.922324091497319842e-05
5.492746373186593019e+02 4.920540278271757329e-05
5.501750875437718378e+02 4.910345840549544804e-05
5.510755377688843737e+02 4.895488976119965406e-05
5.519759879939970233e+02 4.871363389508226427e-05
5.528764382191095592e+02 4.832639993272724605e-05
5.537768884442220951e+02 4.789332640674123223e-05
5.546773386693346310e+02 4.766923683819710550e-05
5.555777888944471670e+02 4.780049001290070156e-05
5.564782391195597029e+02 4.816727257577239977e-05
5.573786893446723525e+02 4.850008809971438606e-05
5.582791395697848884e+02 4.864052778218959030e-05
5.591795897948974243e+02 4.859573291843000538e-05
5.600800400200099602e+02 4.842202525412945397e-05
5.609804902451224962e+02 4.820249239674487534e-05
5.618809404702351458e+02 4.800138568480842116e-05
5.627813906953476817e+02 4.781475091847860924e-05
5.636818409204602176e+02 4.764651163218147693e-05
5.645822911455727535e+02 4.756570655320450984e-05
5.654827413706852894e+02 4.770573955554665652e-05
5.663831915957978254e+02 4.817957689322753870e-05
5.672836418209104750e+02 4.890258049685363681e-05
5.681840920460230109e+02 4.952618898103341121e-05
5.690845422711355468e+02 4.975017162006508612e-05
5.699849924962480827e+02 4.962888799321944262e-05
5.708854427213606186e+02 4.944502013054248823e-05
5.717858929464731546e+02 4.934016437662736617e-05
5.726863431715858042e+02 4.915667822971706626e-05
5.735867933966983401e+02 4.874618818572469081e-05
5.744872436218108760e+02 4.825029718409498740e-05
5.753876938469234119e+02 4.791414536216731279e-05
5.762881440720359478e+02 4.779392685505598341e-05
5.771885942971485974e+02 4.773562162170779213e-05
5.780890445222611334e+02 4.747990269132121836e-05
5.789894947473736693e+02 4.686212917511884323e-05
5.798899449724862052e+02 4.600871797773790878e-05
5.807903951975987411e+02 4.517549897944202788e-05
5.816908454227112770e+02 4.454247156282188029e-05
5.825912956478239266e+02 4.420845904949457779e-05
5.834917458729364625e+02 4.420335019504774811e-05
5.843921960980489985e+02 4.452627913107467936e-05
5.852926463231615344e+02 4.518640824662502683e-05
5.861930965482740703e+02 4.610518041742619046e-05
5.870935467733867199e+02 4.696739692643330346e-05
5.879939969984992558e+02 4.739771676063232622e-05
5.888944472236117917e+02 4.738712973079276430e-05
5.897948974487243277e+02 4.720939172559784284e-05
5.906953476738368636e+02 4.702572176935730549e-05
5.915957978989493995e+02 4.685614111960302304e-05
5.924962481240620491e+02 4.664184974368981018e-05
5.933966983491745850e+02 4.626825284095606271e-05
5.942971485742871209e+02 4.578381838089128498e-05
5.951975987993996569e+02 4.535712390996629183e-05
5.960980490245121928e+02 4.508815688895197697e-05
5.969984992496247287e+02 4.497714200491784782e-05
5.978989494747373783e+02 4.495517238215551215e-05
5.987993996998499142e+02 4.495319929647286053e-05
5.996998499249624501e+02 4.489683889090615457e-05
6.006003001500749860e+02 4.470650691618000016e-05
6.015007503751875220e+02 4.429426727708866507e-05
6.024012006003001716e+02 4.366281169269751496e-05
6.033016508254127075e+02 4.293242462601786830e-05
6.042021010505252434e+02 4.231259035010285217e-05
6.051025512756377793e+02 4.194828469378607516e-05
6.060030015007503152e+02 4.178581168921292053e-05
6.069034517258628512e+02 4.169499386269687744e-05
6.078039019509755008e+02 4.157213778227517357e-05
6.087043521760880367e+02 4.136380934392251202e-05
6.096048024012005726e+02 4.112138406892510914e-05
6.105052526263131085e+02 4.089817003532278378e-05
6.114057028514256444e+02 4.066141049286559945e-05
6.123061530765382940e+02 4.039071495677660709e-05
6.132066033016508300e+02 4.013030093643023190e-05
6.141070535267633659e+02 3.999061686569372687e-05
6.150075037518759018e+02 4.006693366222155033e-05
6.159079539769884377e+02 4.031039625390150921e-05
6.168084042021009736e+02 4.060048953809498824e-05
6.177088544272136232e+02 4.082847346664044222e-05
6.186093046523261592e+02 4.087683573376056997e-05
6.195097548774386951e+02 4.077551985099404751e-05
6.204102051025512310e+02 4.068203033913065010e-05
6.213106553276637669e+02 4.057955438484407419e-05
6.222111055527763028e+02 4.029182257203766960e-05
6.231115557778889524e+02 3.971670065198662177e-05
6.240120060030014884e+02 3.889678208611249406e-05
6.249124562281140243e+02 3.803139808963707630e-05
6.258129064532265602e+02 3.739368859427955039e-05
6.267133566783390961e+02 3.711973757778967860e-05
6.276138069034517457e+02 3.711529581147256598e-05
6.285142571285642816e+02 3.726995948421451762e-05
6.294147073536768175e+02 3.761947628188154892e-05
6.303151575787893535e+02 3.822343343414826949e-05
6.312156078039018894e+02 3.896034252533854330e-05
6.321160580290144253e+02 3.951842697683669633e-05
6.330165082541270749e+02 3.970328679083934314e-05
6.339169584792396108e+02 3.949118366084417443e-05
6.348174087043521467e+02 3.895125343582369194e-05
6.357178589294646827e+02 3.829579527426983058e-05
6.366183091545772186e+02 3.772187508396479761e-05
6.375187593796898682e+02 3.725284801673914791e-05
6.384192096048024041e+02 3.686149616163158095e-05
6.393196598299149400e+02 3.655121069414135626e-05
6.402201100550274759e+02 3.636847268375036459e-05
6.411205602801400119e+02 3.640771063079555389e-05
6.420210105052525478e+02 3.670805478198708760e-05
6.429214607303651974e+02 3.717523990745371434e-05
6.438219109554777333e+02 3.752280759662117345e-05
6.447223611805902692e+02 3.745469390114738848e-05
6.456228114057028051e+02 3.706697567246346935e-05
6.465232616308153411e+02 3.676852269116426069e-05
6.474237118559278770e+02 3.682875833089163930e-05
6.483241620810405266e+02 3.714734539478105606e-05
6.492246123061530625e+02 3.741030373585465331e-05
6.501250625312655984e+02 3.742734626165170877e-05
6.510255127563781343e+02 3.724786651833427679e-05
6.519259629814906702e+02 3.709739584228682641e-05
6.528264132066033198e+02 3.715369214325596627e-05
6.537268634317158558e+02 3.734540908135075310e-05
6.546273136568283917e+02 3.744003277137890009e-05
6.555277638819409276e+02 3.725036262855689319e-05
6.564282141070534635e+02 3.682212654047070248e-05
6.573286643321659994e+02 3.637810993986235201e-05
6.582291145572786490e+02 3.619162735845937094e-05
6.591295647823911850e+02 3.638919920292864112e-05
6.600300150075037209e+02 3.683619471445512847e-05
6.609304652326162568e+02 3.735439390341531272e-05
6.618309154577287927e+02 3.789092848599789621e-05
6.627313656828414423e+02 3.840699686115374114e-05
6.636318159079539782e+02 3.875869314642142846e-05
6.645322661330665142e+02 3.879825815636654023e-05
6.654327163581790501e+02 3.853382743176606711e-05
6.663331665832915860e+02 3.803897005791549572e-05
6.672336168084041219e+02 3.740541738653358454e-05
6.681340670335167715e+02 3.671278270972585313e-05
6.690345172586293074e+02 3.600368490894847914e-05
6.699349674837418434e+02 3.538412982007266603e-05
6.708354177088543793e+02 3.498384870889866514e-05
6.717358679339669152e+02 3.484199424572589080e-05
6.726363181590794511e+02 3.491330664845674508e-05
6.735367683841921007e+02 3.511948120588489287e-05
6.744372186093046366e+02 3.536516330804188505e-05
6.753376688344171725e+02 3.558496958386426340e-05
6.762381190595297085e+02 3.576056460862727683e-05
6.771385692846422444e+02 3.588223625720576783e-05
6.780390195097548940e+02 3.594554563067305802e-05
6.789394697348674299e+02 3.595185168963629203e-05
6.798399199599799658e+02 3.591001497436421017e-05
6.807403701850925017e+02 3.586853955760837290e-05
6.816408204102050377e+02 3.587412743404638386e-05
6.825412706353175736e+02 3.588490701073513133e-05
6.834417208604302232e+02 3.585653587534900837e-05
6.843421710855427591e+02 3.590747764545562475e-05
6.852426213106552950e+02 3.621986123427425153e-05
6.861430715357678309e+02 3.677634844579793979e-05
6.870435217608803669e+02 3.739562360421824181e-05
6.879439719859930165e+02 3.802621367786189477e-05
6.888444222111055524e+02 3.878434207488674754e-05
6.897448724362180883e+02 3.976832841614053781e-05
6.906453226613306242e+02 4.093763487941973873e-05
6.915457728864431601e+02 4.203524108694079575e-05
6.924462231115556961e+02 4.268120102750332578e-05
6.933466733366683457e+02 4.258109587082023885e-05
6.942471235617808816e+02 4.187639206343780332e-05
6.951475737868934175e+02 4.114790215978892843e-05
6.960480240120059534e+02 4.079193153685927673e-05
6.969484742371184893e+02 4.074891773715331794e-05
6.978489244622311389e+02 4.077774338400355067e-05
6.987493746873436749e+02 4.069058822310824811e-05
6.996498249124562108e+02 4.046370296199510049e-05
7.005502751375687467e+02 4.019922685530990663e-05
7.014507253626812826e+02 4.002867505387432790e-05
7.023511755877938185e+02 4.008188302298894859e-05
7.032516258129064681e+02 4.034558508157690398e-05
7.041520760380190040e+02 4.068038791249274655e-05
7.050525262631315400e+02 4.097039405513569900e-05
7.059529764882440759e+02 4.116227513341641926e-05
7.068534267133566118e+02 4.130046497163499398e-05
7.077538769384691477e+02 4.145319439824135782e-05
7.086543271635817973e+02 4.166311228566048970e-05
7.095547773886943332e+02 4.189182900225589637e-05
7.104552276138068692e+02 4.203801177255714485e-05
7.113556778389194051e+02 4.203420261748233306e-05
7.122561280640319410e+02 4.185331594176804851e-05
7.131565782891445906e+02 4.148679377875787497e-05
7.140570285142571265e+02 4.099087476470535943e-05
7.149574787393696624e+02 4.050072894209084701e-05
7.158579289644821984e+02 4.018915858437908559e-05
7.167583791895947343e+02 4.006178484485081363e-05
7.176588294147072702e+02 4.001643266051577673e-05
7.185592796398199198e+02 4.004122924096750199e-05
7.194597298649324557e+02 4.011704241501836538e-05
7.203601800900449916e+02 4.014060899076184988e-05
7.212606303151575275e+02 4.003308069958935961e-05
7.221610805402700635e+02 3.983624551677646092e-05
7.230615307653827131e+02 3.966037186212417206e-05
7.239619809904952490e+02 3.960076559377063098e-05
7.248624312156077849e+02 3.973546106557389513e-05
7.257628814407203208e+02 4.007384787541372567e-05
7.266633316658328567e+02 4.048814193326272579e-05
7.275637818909453927e+02 4.073177912087096912e-05
7.284642321160580423e+02 4.066982830773982070e-05
7.293646823411705782e+02 4.040533731142814845e-05
7.302651325662831141e+02 4.016988609644172610e-05
7.311655827913956500e+02 4.016914178493616924e-05
7.320660330165081859e+02 4.044604548163813478e-05
7.329664832416207219e+02 4.087141125126719397e-05
7.338669334667333715e+02 4.130862254158272889e-05
7.347673836918459074e+02 4.164286927361093659e-05
7.356678339169584433e+02 4.176282401813174143e-05
7.365682841420709792e+02 4.171195514245329633e-05
7.374687343671835151e+02 4.160534429686375016e-05
7.383691845922961647e+02 4.142268317825698515e-05
7.392696348174087007e+02 4.109636267377471381e-05
7.401700850425212366e+02 4.068938223253962217e-05
7.410705352676337725e+02 4.035920704966957555e-05
7.419709854927463084e+02 4.018279544594173584e-05
7.428714357178588443e+02 4.011011924327367585e-05
7.437718859429714939e+02 4.010508228024887441e-05
7.446723361680840299e+02 4.022898643713746029e-05
7.455727863931965658e+02 4.055733075296830625e-05
7.464732366183091017e+02 4.097005427782962915e-05
7.473736868434216376e+02 4.124786921018106531e-05
7.482741370685342872e+02 4.138111735499674872e-05
7.491745872936468231e+02 4.150457189977678393e-05
7.500750375187593590e+02 4.173031289739355073e-05
7.509754877438718950e+02 4.206962550494836744e-05
7.518759379689844309e+02 4.229849593114150421e-05
7.527763881940969668e+02 4.218228418255072531e-05
7.536768384192096164e+02 4.195655873815786911e-05
7.545772886443221523e+02 4.205681686069458311e-05
7.554777388694346882e+02 4.257428036746535100e-05
7.563781890945472242e+02 4.328546264402130842e-05
7.572786393196597601e+02 4.390330500447849082e-05
7.581790895447722960e+02 4.430159383155677136e-05
7.590795397698849456e+02 4.447514150547656332e-05
7.599799899949974815e+02 4.432842422512830592e-05
7.608804402201100174e+02 4.388464154696899348e-05
7.617808904452225534e+02 4.341458588625102163e-05
7.626813406703350893e+02 4.312373975829865170e-05
7.635817908954477389e+02 4.299851917127315567e-05
7.644822411205602748e+02 4.302504147565709209e-05
7.653826913456728107e+02 4.327534882303952623e-05
7.662831415707853466e+02 4.371728242697664365e-05
7.671835917958978825e+02 4.419937508612718487e-05
7.680840420210104185e+02 4.468807882100577601e-05
7.689844922461230681e+02 4.531193819981638643e-05
7.698849424712356040e+02 4.609051388078554747e-05
7.707853926963481399e+02 4.682060054763398366e-05
7.716858429214606758e+02 4.731154286771751638e-05
7.725862931465732117e+02 4.751819496729672350e-05
7.734867433716858613e+02 4.741734175613009268e-05
7.743871935967983973e+02 4.706449798858273207e-05
7.752876438219109332e+02 4.668631903086089923e-05
7.761880940470234691e+02 4.655238311948326564e-05
7.770885442721360050e+02 4.676965317324641196e-05
7.779889944972485409e+02 4.719743461955146430e-05
7.788894447223611905e+02 4.756002940403705162e-05
7.797898949474737265e+02 4.787425335805717264e-05
7.806903451725862624e+02 4.853060806959504016e-05
7.815907953976987983e+02 4.977907034803284497e-05
7.824912456228113342e+02 5.143417803227693188e-05
7.833916958479238701e+02 5.293142217117994403e-05
7.842921460730365197e+02 5.372015206172769860e-05
7.851925962981490557e+02 5.380582201919209209e-05
7.860930465232615916e+02 5.360829546843083544e-05
7.869934967483741275e+02 5.336192969694850152e-05
7.878939469734866634e+02 5.306002674440491205e-05
7.887943971985993130e+02 5.273452498990805956e-05
7.896948474237118489e+02 5.249355484405465321e-05
7.905952976488243849e+02 5.254868632000635957e-05
7.914957478739369208e+02 5.300330726470846223e-05
7.923961980990494567e+02 5.360651970643228928e-05
7.932966483241619926e+02 5.401646003446915624e-05
7.941970985492746422e+02 5.418746730991067212e-05
7.950975487743871781e+02 5.412915207221459226e-05
7.959979989994997140e+02 5.373890719015115197e-05
7.968984492246122500e+02 5.309251512951726823e-05
7.977988994497247859e+02 5.249727973268536848e-05
7.986993496748374355e+02 5.222676604875393550e-05
7.995997998999499714e+02 5.223122921055866361e-05
8.005002501250625073e+02 5.224645217643313159e-05
8.014007003501750432e+02 5.214085788897032420e-05
8.023011505752875792e+02 5.192668748979824153e-05
8.032016008004001151e+02 5.150600240098429606e-05
8.041020510255127647e+02 5.069667584675954900e-05
8.050025012506253006e+02 4.961834894682435541e-05
8.059029514757378365e+02 4.856804018335916952e-05
8.068034017008503724e+02 4.765547033425683549e-05
8.077038519259629084e+02 4.700815603275031336e-05
8.086043021510754443e+02 4.681350991507797661e-05
8.095047523761880939e+02 4.707806516459948437e-05
8.104052026013006298e+02 4.762508119370210372e-05
8.113056528264131657e+02 4.821227579525342081e-05
8.122061030515257016e+02 4.871757815543043305e-05
8.131065532766382375e+02 4.913949048333542303e-05
8.140070035017508872e+02 4.943762693871658654e-05
8.149074537268634231e+02 4.951863912556999563e-05
8.158079039519759590e+02 4.943724559323680207e-05
8.167083541770884949e+02 4.938995969301387100e-05
8.176088044022010308e+02 4.947034953339894117e-05
8.185092546273135667e+02 4.962417525429241294e-05
8.194097048524262163e+02 4.973407040832885441e-05
8.203101550775387523e+02 4.959171483815817634e-05
8.212106053026512882e+02 4.909151225669730080e-05
8.221110555277638241e+02 4.826694726183943814e-05
8.230115057528763600e+02 4.722902762080476375e-05
8.239119559779890096e+02 4.627923835417798348e-05
8.248124062031015455e+02 4.565655306066990443e-05
8.257128564282140815e+02 4.530919046347671231e-05
8.266133066533266174e+02 4.512518652401166893e-05
8.275137568784391533e+02 4.522216798124850109e-05
8.284142071035516892e+02 4.569874219182701449e-05
8.293146573286643388e+02 4.638234283755242560e-05
8.302151075537768747e+02 4.702533375780237879e-05
8.311155577788894107e+02 4.755140362052401282e-05
8.320160080040019466e+02 4.802295944472152875e-05
8.329164582291144825e+02 4.840381658056114853e-05
8.338169084542270184e+02 4.850115276193434338e-05
8.347173586793396680e+02 4.819012160855656255e-05
8.356178089044522039e+02 4.750455299505106831e-05
8.365182591295647399e+02 4.665920527389558697e-05
8.374187093546772758e+02 4.598896596817189333e-05
8.383191595797898117e+02 4.567223341489928541e-05
8.392196098049024613e+02 4.574498648152959583e-05
8.401200600300149972e+02 4.609926285861714972e-05
8.410205102551275331e+02 4.649633695469641424e-05
8.419209604802400690e+02 4.676351791785694333e-05
8.428214107053526050e+02 4.691595147155313037e-05
8.437218609304651409e+02 4.705670075012044468e-05
8.446223111555777905e+02 4.725952747322291242e-05
8.455227613806903264e+02 4.746062267484236829e-05
8.464232116058028623e+02 4.733310406334937742e-05
8.473236618309153982e+02 4.671862361472158454e-05
8.482241120560279342e+02 4.596113427184746810e-05
8.491245622811405838e+02 4.552117907213694062e-05
8.500250125062531197e+02 4.553883929944037545e-05
8.509254627313656556e+02 4.574134328049804326e-05
8.518259129564781915e+02 4.574851996421077651e-05
8.527263631815907274e+02 4.553072236473472607e-05
8.536268134067032634e+02 4.541319036291432249e-05
8.545272636318159130e+02 4.564288348336927503e-05
8.554277138569284489e+02 4.619199303563594503e-05
8.563281640820409848e+02 4.679491767061754099e-05
8.572286143071535207e+02 4.710199104509555236e-05
8.581290645322660566e+02 4.694069263385116058e-05
8.590295147573785925e+02 4.643415566847327263e-05
8.599299649824912422e+02 4.580860305468158276e-05
8.608304152076037781e+02 4.526090960025758598e-05
8.617308654327163140e+02 4.504582186819283218e-05
8.626313156578288499e+02 4.540591198584893691e-05
8.635317658829413858e+02 4.641144928618806025e-05
8.644322161080540354e+02 4.776940618880961398e-05
8.653326663331665713e+02 4.897319098924224383e-05
8.662331165582791073e+02 4.971603546388706553e-05
8.671335667833916432e+02 5.005048016220825605e-05
8.680340170085041791e+02 5.012709723559969521e-05
8.689344672336167150e+02 5.007046060592931330e-05
8.698349174587293646e+02 5.009957951881448333e-05
8.707353676838419005e+02 5.035741706014831089e-05
8.716358179089544365e+02 5.093742925880439545e-05
8.725362681340669724e+02 5.198488467806253963e-05
8.734367183591795083e+02 5.337834193178035783e-05
8.743371685842921579e+02 5.447830890649324904e-05
8.752376188094046938e+02 5.462892973662670951e-05
8.761380690345172297e+02 5.390460641587755980e-05
8.770385192596297657e+02 5.301536119664927710e-05
8.779389694847423016e+02 5.257900772863112270e-05
8.788394197098548375e+02 5.281610048791990283e-05
8.797398699349674871e+02 5.356570900158498066e-05
8.806403201600800230e+02 5.431718545541091100e-05
8.815407703851925589e+02 5.444868397003882737e-05
8.824412206103050949e+02 5.377737056483695733e-05
8.833416708354176308e+02 5.277330616794011941e-05
8.842421210605301667e+02 5.206429248227065687e-05
8.851425712856428163e+02 5.196425198940296243e-05
8.860430215107553522e+02 5.237830559486373748e-05
8.869434717358678881e+02 5.318393598146008453e-05
8.878439219609804240e+02 5.422038276757825244e-05
8.887443721860929600e+02 5.513586896200592749e-05
8.896448224112056096e+02 5.554754041416766844e-05
8.905452726363181455e+02 5.530227350313769963e-05
8.914457228614306814e+02 5.457678910181464662e-05
8.923461730865432173e+02 5.366575326193590803e-05
8.932466233116557532e+02 5.285025391703316211e-05
8.941470735367682892e+02 5.234609987531463950e-05
8.950475237618809388e+02 5.233659497217690837e-05
8.959479739869934747e+02 5.292309352408639195e-05
8.968484242121060106e+02 5.387241145567549521e-05
8.977488744372185465e+02 5.479574326944107769e-05
8.986493246623310824e+02 5.551234982443141241e-05
8.995497748874437320e+02 5.598025986802488129e-05
9.004502251125562680e+02 5.625682412288197546e-05
9.013506753376688039e+02 5.655995818948141159e-05
9.022511255627813398e+02 5.721634979769140485e-05
9.031515757878938757e+02 5.834482567790620313e-05
9.040520260130064116e+02 5.965997482181193502e-05
9.049524762381190612e+02 6.076174217849587595e-05
9.058529264632315972e+02 6.153886915522914492e-05
9.067533766883441331e+02 6.212383895304199408e-05
9.076538269134566690e+02 6.252828573134548002e-05
9.085542771385692049e+02 6.261995067195300232e-05
9.094547273636817408e+02 6.241960438629709930e-05
9.103551775887943904e+02 6.219380211029520891e-05
9.112556278139069263e+02 6.222484748135114754e-05
9.121560780390194623e+02 6.267442125222753466e-05
9.130565282641319982e+02 6.340920900574358195e-05
9.139569784892445341e+02 6.405728959513382992e-05
9.148574287143571837e+02 6.440679242342348923e-05
9.157578789394697196e+02 6.453410862015546156e-05
9.166583291645822555e+02 6.474843280647196058e-05
9.175587793896947915e+02 6.540626282817152957e-05
9.184592296148073274e+02 6.668630671334591531e-05
9.193596798399198633e+02 6.850617478778516813e-05
9.202601300650325129e+02 7.047717238036200181e-05
9.211605802901450488e+02 7.211840568299653065e-05
9.220610305152575847e+02 7.326598209483412417e-05
9.229614807403701207e+02 7.407228873542844798e-05
9.238619309654826566e+02 7.457076378784637753e-05
9.247623811905953062e+02 7.479770769509260029e-05
9.256628314157078421e+02 7.513691579720839227e-05
9.265632816408203780e+02 7.588303939812100123e-05
9.274637318659329139e+02 7.682562029399718051e-05
9.283641820910454499e+02 7.753377869621568106e-05
9.292646323161579858e+02 7.787552768999756933e-05
9.301650825412706354e+02 7.803106912682924599e-05
9.310655327663831713e+02 7.819234350755901260e-05
9.319659829914957072e+02 7.837949547068428623e-05
9.328664332166082431e+02 7.831948845863299089e-05
9.337668834417207790e+02 7.785821039751183038e-05
9.346673336668334287e+02 7.717690943156677735e-05
9.355677838919459646e+02 7.656027187337221618e-05
9.364682341170585005e+02 7.618344398599202674e-05
9.373686843421710364e+02 7.609600571747595613e-05
9.382691345672835723e+02 7.652571358723668060e-05
9.391695847923961082e+02 7.776692088024408976e-05
9.400700350175087578e+02 7.985782154913089435e-05
9.409704852426212938e+02 8.280557211365789855e-05
9.418709354677338297e+02 8.647410088989935281e-05
9.427713856928463656e+02 9.005118278314153677e-05
9.436718359179589015e+02 9.255535324302434689e-05
9.445722861430714374e+02 9.411660516894475976e-05
9.454727363681840870e+02 9.545805887776440558e-05
9.463731865932966230e+02 9.665241306157380515e-05
9.472736368184091589e+02 9.732395681568518442e-05
9.481740870435216948e+02 9.744664545959454724e-05
9.490745372686342307e+02 9.765499057021797082e-05
9.499749874937468803e+02 9.882665947932140448e-05
9.508754377188594162e+02 1.012076943615331100e-04
9.517758879439719522e+02 1.041608951437313340e-04
9.526763381690844881e+02 1.068745318089343670e-04
9.535767883941970240e+02 1.086891775180383980e-04
9.544772386193095599e+02 1.088616941808614211e-04
9.553776888444222095e+02 1.070800575288268202e-04
9.562781390695347454e+02 1.041600148571942430e-04
9.571785892946472813e+02 1.014143471750732103e-04
9.580790395197598173e+02 9.981867498317132411e-05
9.589794897448723532e+02 9.971194740121074030e-05
9.598799399699850028e+02 1.009170411409955544e-04
9.607803901950975387e+02 1.031280727920551451e-04
9.616808404202100746e+02 1.062196053221127679e-04
9.625812906453226105e+02 1.100344031002217917e-04
9.634817408704351465e+02 1.137574281515387880e-04
9.643821910955476824e+02 1.161446569415183874e-04
9.652826413206603320e+02 1.165972793527995954e-04
9.661830915457728679e+02 1.157096152985199252e-04
9.670835417708854038e+02 1.146114341440896062e-04
9.679839919959979397e+02 1.140767262017830308e-04
9.688844422211104757e+02 1.142956927950509170e-04
9.697848924462230116e+02 1.149682906217700044e-04
9.706853426713356612e+02 1.156481588109907672e-04
9.715857928964481971e+02 1.157809444045013582e-04
9.724862431215607330e+02 1.150214374076730925e-04
9.733866933466732689e+02 1.137292528933513559e-04
9.742871435717858049e+02 1.125156189417971908e-04
9.751875937968984545e+02 1.117642473417531675e-04
9.760880440220109904e+02 1.115447209701827668e-04
9.769884942471235263e+02 1.115904423381208917e-04
9.778889444722360622e+02 1.115760326711194621e-04
9.787893946973485981e+02 1.113013175012043205e-04
9.796898449224611340e+02 1.108802398159284500e-04
9.805902951475737837e+02 1.108109054617556813e-04
9.814907453726863196e+02 1.115048795792168294e-04
9.823911955977988555e+02 1.129232530684574958e-04
9.832916458229113914e+02 1.147124156861329715e-04
9.841920960480239273e+02 1.165420629223310926e-04
9.850925462731365769e+02 1.182163328450621076e-04
9.859929964982491128e+02 1.195668499414854650e-04
9.868934467233616488e+02 1.205082573380992405e-04
9.877938969484741847e+02 1.211403227417405006e-04
9.886943471735867206e+02 1.217282301207950432e-04
9.895947973986992565e+02 1.225899675775045698e-04
9.904952476238119061e+02 1.239409874772127746e-04
9.913956978489244420e+02 1.257254540295762578e-04
9.922961480740369780e+02 1.279241626205765273e-04
9.931965982991495139e+02 1.308189919291619574e-04
9.940970485242620498e+02 1.344528519169909102e-04
9.949974987493745857e+02 1.384575674441673981e-04
9.958979489744872353e+02 1.422470638475615645e-04
9.967983991995997712e+02 1.452638514516120375e-04
9.976988494247123072e+02 1.477513798931573527e-04
9.985992996498248431e+02 1.505109042396482130e-04
9.994997498749373790e+02 1.537351506215085426e-04
1.000400200100050029e+03 1.568107925027437252e-04
1.001300650325162565e+03 1.589757846251907219e-04
1.002201100550275100e+03 1.597897265876040997e-04
1.003101550775387636e+03 1.596256919745182032e-04
1.004002001000500172e+03 1.595355330415253712e-04
1.004902451225612708e+03 1.603704674336694732e-04
1.005802901450725358e+03 1.621778308696364141e-04
1.006703351675837894e+03 1.643355318381777366e-04
1.007603801900950430e+03 1.660421560554589812e-04
1.008504252126062966e+03 1.669453391276191022e-04
1.009404702351175501e+03 1.673327630201493319e-04
1.010305152576288151e+03 1.674401480380987705e-04
1.011205602801400687e+03 1.671653847260858852e-04
1.012106053026513223e+03 1.662636460979687091e-04
1.013006503251625759e+03 1.648614360532914356e-04
1.013906953476738295e+03 1.633327319042148884e-04
1.014807403701850831e+03 1.618342095270210548e-04
1.015707853926963480e+03 1.604209016954562153e-04
1.016608304152076016e+03 1.594096922883267127e-04
1.017508754377188552e+03 1.595351651143406941e-04
1.018409204602301088e+03 1.612612150395242188e-04
1.019309654827413624e+03 1.639071450128807195e-04
1.020210105052526160e+03 1.662370680117212693e-04
1.021110555277638809e+03 1.680850333116997537e-04
1.022011005502751345e+03 1.700205953915971647e-04
1.022911455727863881e+03 1.716994923811234332e-04
1.023811905952976417e+03 1.725793512578265249e-04
1.024712356178089067e+03 1.733274570715087907e-04
1.025612806403201603e+03 1.749345142228435758e-04
1.026513256628314139e+03 1.775326217647604126e-04
1.027413706853426675e+03 1.808497620517493564e-04
1.028314157078539210e+03 1.848312524821525010e-04
1.029214607303651746e+03 1.889752402659079713e-04
1.030115057528764282e+03 1.918549942162000731e-04
1.031015507753876818e+03 1.925460619939416466e-04
1.031915957978989354e+03 1.918283684880682180e-04
1.032816408204101890e+03 1.911676014356297141e-04
1.033716858429214653e+03 1.914938253857583752e-04
1.034617308654327189e+03 1.932011036830612912e-04
1.035517758879439725e+03 1.964189049764098252e-04
1.036418209104552261e+03 2.011519863870980579e-04
1.037318659329664797e+03 2.069259938952146120e-04
1.038219109554777333e+03 2.121838483799245913e-04
1.039119559779889869e+03 2.152386470129003166e-04
1.040020010005002405e+03 2.159236416410918746e-04
1.040920460230114941e+03 2.155629190795076838e-04
1.041820910455227477e+03 2.155540414589891991e-04
1.042721360680340013e+03 2.160952141408960117e-04
1.043621810905452776e+03 2.166506995612713321e-04
1.044522261130565312e+03 2.172268519359676236e-04
1.045422711355677848e+03 2.187281145168008378e-04
1.046323161580790384e+03 2.216298205912831175e-04
1.047223611805902920e+03 2.246180039563722814e-04
1.048124062031015455e+03 2.257630950589949637e-04
1.049024512256127991e+03 2.249414944938303096e-04
1.049924962481240527e+03 2.239011206679074795e-04
1.050825412706353063e+03 2.237637659635959681e-04
1.051725862931465599e+03 2.238601898346766661e-04
1.052626313156578135e+03 2.233343685183621205e-04
1.053526763381690898e+03 2.222731500900231917e-04
1.054427213606803434e+03 2.211500831245003472e-04
1.055327663831915970e+03 2.204410649770069148e-04
1.056228114057028506e+03 2.204525590877683193e-04
1.057128564282141042e+03 2.208147502461329907e-04
1.058029014507253578e+03 2.208193537576283623e-04
1.058929464732366114e+03 2.201700259155056909e-04
1.059829914957478650e+03 2.192657484389903171e-04
1.060730365182591186e+03 2.187983127263363103e-04
1.061630815407703722e+03 2.188750553115818604e-04
1.062531265632816257e+03 2.188678660974177734e-04
1.063431715857929021e+03 2.182212927315452179e-04
1.064332166083041557e+03 2.171631305111688286e-04
1.065232616308154093e+03 2.163184607231963404e-04
1.066133066533266629e+03 2.161290348071547073e-04
1.067033516758379164e+03 2.166896061326794199e-04
1.067933966983491700e+03 2.179229538498430826e-04
1.068834417208604236e+03 2.191845278180416410e-04
1.069734867433716772e+03 2.194101557411048693e-04
1.070635317658829308e+03 2.185592172368248888e-04
1.071535767883941844e+03 2.174926594664286061e-04
1.072436218109054380e+03 2.171098748941425094e-04
1.073336668334167143e+03 2.178288912805702781e-04
1.074237118559279679e+03 2.194716502825116490e-04
1.075137568784392215e+03 2.214294881818455448e-04
1.076038019009504751e+03 2.227308289451394765e-04
1.076938469234617287e+03 2.227365887140503179e-04
1.077838919459729823e+03 2.221048080926096597e-04
1.078739369684842359e+03 2.222865714335615808e-04
1.079639819909954895e+03 2.243077011392347574e-04
1.080540270135067431e+03 2.277892912836200782e-04
1.081440720360179967e+03 2.314620970567214794e-04
1.082341170585292502e+03 2.346547006415043615e-04
1.083241620810405038e+03 2.370805556846565737e-04
1.084142071035517802e+03 2.381125526274475870e-04
1.085042521260630338e+03 2.365662021661818373e-04
1.085942971485742873e+03 2.318453898193771092e-04
1.086843421710855409e+03 2.256776590057625587e-04
1.087743871935967945e+03 2.208049687169987430e-04
1.088644322161080481e+03 2.184513008188439687e-04
1.089544772386193017e+03 2.182312409431185027e-04
1.090445222611305553e+03 2.196166616262748778e-04
1.091345672836418089e+03 2.225876470881177913e-04
1.092246123061530625e+03 2.266504236167900634e-04
1.093146573286643161e+03 2.301544303026967057e-04
1.094047023511755924e+03 2.314126012624683479e-04
1.094947473736868460e+03 2.302102337225553407e-04
1.095847923961980996e+03 2.273673686174162881e-04
1.096748374187093532e+03 2.239883868732427759e-04
1.097648824412206068e+03 2.217583822795087347e-04
1.098549274637318604e+03 2.218991868301027777e-04
1.099449724862431140e+03 2.244583256322204320e-04
1.100350175087543676e+03 2.287495049696679293e-04
1.101250625312656211e+03 2.335697680658578622e-04
1.102151075537768747e+03 2.375126918122250454e-04
1.103051525762881283e+03 2.399007558095081634e-04
1.103951975987994047e+03 2.414522269965959636e-04
1.104852426213106583e+03 2.435441887875170028e-04
1.105752876438219118e+03 2.463938066283441670e-04
1.106653326663331654e+03 2.489488047452721861e-04
1.107553776888444190e+03 2.504639248103463899e-04
1.108454227113556726e+03 2.509930737769073541e-04
1.109354677338669262e+03 2.504886284248722980e-04
1.110255127563781798e+03 2.485630665910722680e-04
1.111155577788894334e+03 2.454672661608514150e-04
1.112056028014006870e+03 2.424283205705335419e-04
1.112956478239119406e+03 2.401685358261453030e-04
1.113856928464232169e+03 2.386805612044885186e-04
1.114757378689344705e+03 2.379714555942270739e-04
1.115657828914457241e+03 2.378176898356698459e-04
1.116558279139569777e+03 2.382230153150883894e-04
1.117458729364682313e+03 2.398220854661686698e-04
1.118359179589794849e+03 2.426568287043504783e-04
1.119259629814907385e+03 2.461249542628420484e-04
1.120160080040019920e+03 2.502258675292122285e-04
1.121060530265132456e+03 2.554814491843161012e-04
1.121960980490244992e+03 2.621523481916778896e-04
1.122861430715357528e+03 2.700751959047211479e-04
1.123761880940470292e+03 2.783830798259336178e-04
1.124662331165582827e+03 2.859226327364817305e-04
1.125562781390695363e+03 2.929558300950179674e-04
1.126463231615807899e+03 3.001394369910788417e-04
1.127363681840920435e+03 3.071136149273728279e-04
1.128264132066032971e+03 3.132736477573191177e-04
1.129164582291145507e+03 3.177365879241655640e-04
1.130065032516258043e+03 3.196753537187219606e-04
1.130965482741370579e+03 3.188664999354962190e-04
1.131865932966483115e+03 3.163816414884041903e-04
1.132766383191595651e+03 3.148968394532792973e-04
1.133666833416708187e+03 3.167310669166207909e-04
1.134567283641820950e+03 3.216341737505872727e-04
1.135467733866933486e+03 3.277198249682845193e-04
1.136368184092046022e+03 3.343571106528088802e-04
1.137268634317158558e+03 3.419150937576404675e-04
1.138169084542271094e+03 3.488330758254607638e-04
1.139069534767383630e+03 3.533275968880794497e-04
1.139969984992496165e+03 3.567100091880502145e-04
1.140870435217608701e+03 3.612752225705493248e-04
1.141770885442721237e+03 3.686916363549038139e-04
1.142671335667833773e+03 3.804771980515294911e-04
1.143571785892946309e+03 3.967693038384799246e-04
1.144472236118059072e+03 4.174519059115927556e-04
1.145372686343171608e+03 4.445412593836078658e-04
1.146273136568284144e+03 4.801736514868503326e-04
1.147173586793396680e+03 5.241178938605332762e-04
1.148074037018509216e+03 5.758109964611136597e-04
1.148974487243621752e+03 6.356850744616797519e-04
1.149874937468734288e+03 7.037330368355069815e-04
1.150775387693846824e+03 7.809831419688150270e-04
1.151675837918959360e+03 8.692189071048553664e-04
1.152576288144071896e+03 9.681973943407425282e-04
1.153476738369184432e+03 1.072729065268886997e-03
1.154377188594297195e+03 1.172075032770723054e-03
1.155277638819409731e+03 1.262268700538531248e-03
1.156178089044522267e+03 1.353691216006493040e-03
1.157078539269634803e+03 1.455022189847582359e-03
1.157978989494747339e+03 1.562546524300327706e-03
1.158879439719859874e+03 1.665186194314638955e-03
1.159779889944972410e+03 1.758240697862420519e-03
1.160680340170084946e+03 1.849571004397827529e-03
1.161580790395197482e+03 1.950463376383804702e-03
1.162481240620310018e+03 2.059916866497101245e-03
1.163381690845422554e+03 2.155836446997769478e-03
1.164282141070535317e+03 2.215338252141741803e-03
1.165182591295647853e+03 2.228544074736743975e-03
1.166083041520760389e+03 2.194070155086092194e-03
1.166983491745872925e+03 2.122580792189470919e-03
1.167883941970985461e+03 2.033337600025301225e-03
1.168784392196097997e+03 1.942798879978790928e-03
1.169684842421210533e+03 1.858070304898875756e-03
1.170585292646323069e+03 1.773268695179505911e-03
1.171485742871435605e+03 1.678098331014330358e-03
1.172386193096548141e+03 1.572299096326470547e-03
1.173286643321660677e+03 1.466848769718678315e-03
1.174187093546773440e+03 1.372873838438135475e-03
1.175087543771885976e+03 1.295804656757772524e-03
1.175987993996998512e+03 1.235785154564321290e-03
1.176888444222111048e+03 1.190715064552542524e-03
1.177788894447223583e+03 1.156794285968449710e-03
1.178689344672336119e+03 1.132614926445575957e-03
1.179589794897448655e+03 1.115542211301198726e-03
1.180490245122561191e+03 1.098746498995920376e-03
1.181390695347673727e+03 1.080578204488018756e-03
1.182291145572786263e+03 1.066573302184197717e-03
1.183191595797898799e+03 1.059082661074231633e-03
1.184092046023011562e+03 1.056599233853679340e-03
1.184992496248124098e+03 1.058527272387853888e-03
1.185892946473236634e+03 1.060376515254410779e-03
1.186793396698349170e+03 1.054241168374662335e-03
1.187693846923461706e+03 1.037329676985498505e-03
1.188594297148574242e+03 1.016597043098802248e-03
1.189494747373686778e+03 1.003172854406082868e-03
1.190395197598799314e+03 1.001299617025441790e-03
1.191295647823911850e+03 1.006967444695600327e-03
1.192196098049024386e+03 1.014900150715275550e-03
1.193096548274136921e+03 1.022415979983231542e-03
1.193996998499249457e+03 1.030180585271054609e-03
1.194897448724362221e+03 1.037955190363438899e-03
1.195797898949474757e+03 1.040953748521730986e-03
1.196698349174587293e+03 1.032992161876537937e-03
1.197598799399699828e+03 1.014728252653048770e-03
1.198499249624812364e+03 9.950668114604823214e-04
1.199399699849924900e+03 9.808103449868645247e-04
1.200300150075037436e+03 9.699172144543149196e-04
1.201200600300149972e+03 9.563245544398339291e-04
1.202101050525262508e+03 9.356468220821539169e-04
1.203001500750375044e+03 9.077108648874338557e-04
1.203901950975487580e+03 8.766170598139927340e-04
1.204802401200600343e+03 8.472083953414134795e-04
1.205702851425712879e+03 8.232919475119638295e-04
1.206603301650825415e+03 8.099888045189977378e-04
1.207503751875937951e+03 8.091311486321384324e-04
1.208404202101050487e+03 8.145207057738083206e-04
1.209304652326163023e+03 8.175382780533386323e-04
1.210205102551275559e+03 8.115732733688812463e-04
1.211105552776388095e+03 7.935888090645258977e-04
1.212006003001500630e+03 7.677755566675979228e-04
1.212906453226613166e+03 7.415655940097101457e-04
1.213806903451725702e+03 7.191349348980449014e-04
1.214707353676838466e+03 7.002859186175770063e-04
1.215607803901951002e+03 6.842893447866545565e-04
1.216508254127063537e+03 6.720044244072693367e-04
1.217408704352176073e+03 6.657793178824242914e-04
1.218309154577288609e+03 6.655601672449674858e-04
1.219209604802401145e+03 6.689428728264321762e-04
1.220110055027513681e+03 6.738213447578146479e-04
1.221010505252626217e+03 6.777999703688819067e-04
1.221910955477738753e+03 6.807114296197157473e-04
1.222811405702851289e+03 6.852602594320458687e-04
1.223711855927963825e+03 6.890396666187211753e-04
1.224612306153076588e+03 6.832005014245549988e-04
1.225512756378189124e+03 6.644794876431318669e-04
1.226413206603301660e+03 6.416910916609511878e-04
1.227313656828414196e+03 6.264720765051697005e-04
1.228214107053526732e+03 6.229275035116771300e-04
1.229114557278639268e+03 6.272694063637082682e-04
1.230015007503751804e+03 6.328576076431683285e-04
1.230915457728864340e+03 6.369019392934665126e-04
1.231815907953976875e+03 6.414979591529952965e-04
1.232716358179089411e+03 6.484407267732408917e-04
1.233616808404201947e+03 6.563435843595432717e-04
1.234517258629314711e+03 6.612322497882397758e-04
1.235417708854427246e+03 6.606871592947533576e-04
1.236318159079539782e+03 6.548180487512706436e-04
1.237218609304652318e+03 6.455438256307817826e-04
1.238119059529764854e+03 6.357753093533380752e-04
1.239019509754877390e+03 6.281163050757347091e-04
1.239919959979989926e+03 6.243492355998280126e-04
1.240820410205102462e+03 6.255185515199595137e-04
1.241720860430214998e+03 6.321975341349366168e-04
1.242621310655327534e+03 6.447897122907588147e-04
1.243521760880440070e+03 6.625553817103320723e-04
1.244422211105552606e+03 6.820508023085846035e-04
1.245322661330665369e+03 7.000743942420428398e-04
1.246223111555777905e+03 7.141513256566045477e-04
1.247123561780890441e+03 7.206138897417143805e-04
1.248024012006002977e+03 7.192420569292882516e-04
1.248924462231115513e+03 7.160407726826308050e-04
1.249824912456228049e+03 7.173248000850848596e-04
1.250725362681340584e+03 7.241776620141636509e-04
1.251625812906453120e+03 7.321088071412264458e-04
1.252526263131565656e+03 7.361809750239804067e-04
1.253426713356678192e+03 7.377374998882072453e-04
1.254327163581790728e+03 7.415149495202553662e-04
1.255227613806903491e+03 7.488958487319642308e-04
1.256128064032016027e+03 7.592066275094948953e-04
1.257028514257128563e+03 7.731272846279844567e-04
1.257928964482241099e+03 7.916319761980476332e-04
1.258829414707353635e+03 8.123841752720880553e-04
1.259729864932466171e+03 8.304693592976268275e-04
1.260630315157578707e+03 8.442496879638437032e-04
1.261530765382691243e+03 8.549470353477306005e-04
1.262431215607803779e+03 8.636558445315678989e-04
1.263331665832916315e+03 8.722272059242733430e-04
1.264232116058028851e+03 8.827389860994248709e-04
1.265132566283141614e+03 8.962208367559640863e-04
1.266033016508254150e+03 9.136760073293045742e-04
1.266933466733366686e+03 9.362892224800230994e-04
1.267833916958479222e+03 9.642076810870342301e-04
1.268734367183591758e+03 9.948648246927574781e-04
1.269634817408704293e+03 1.024556377403341252e-03
1.270535267633816829e+03 1.050522562201258985e-03
1.271435717858929365e+03 1.071088934626125396e-03
1.272336168084041901e+03 1.087217298265963491e-03
1.273236618309154437e+03 1.101325774174802610e-03
1.274137068534266973e+03 1.113636618191304667e-03
1.275037518759379736e+03 1.122918714941727007e-03
1.275937968984492272e+03 1.130472974817874413e-03
1.276838419209604808e+03 1.139914440472959874e-03
1.277738869434717344e+03 1.153353938619196446e-03
1.278639319659829880e+03 1.170351343150412846e-03
1.279539769884942416e+03 1.191376264216835110e-03
1.280440220110054952e+03 1.216302978172107167e-03
1.281340670335167488e+03 1.241720638988821901e-03
1.282241120560280024e+03 1.264588607580383441e-03
1.283141570785392560e+03 1.284479818981772853e-03
1.284042021010505096e+03 1.301843245052570477e-03
1.284942471235617859e+03 1.317487147228025776e-03
1.285842921460730395e+03 1.333570772113121987e-03
1.286743371685842931e+03 1.352315989834296543e-03
1.287643821910955467e+03 1.374453636940169751e-03
1.288544272136068003e+03 1.398669406629479608e-03
1.289444722361180538e+03 1.422568263489107409e-03
1.290345172586293074e+03 1.444144268308692391e-03
1.291245622811405610e+03 1.461838307110722513e-03
1.292146073036518146e+03 1.474467531244826046e-03
1.293046523261630682e+03 1.483944852621386099e-03
1.293946973486743218e+03 1.494972219922686843e-03
1.294847423711855754e+03 1.510388117339458774e-03
1.295747873936968517e+03 1.529735237906677163e-03
1.296648324162081053e+03 1.551853501369462613e-03
1.297548774387193589e+03 1.576121367937252053e-03
1.298449224612306125e+03 1.601252297654737720e-03
1.299349674837418661e+03 1.624546630875383334e-03
1.300250125062531197e+03 1.643931141677297449e-03
1.301150575287643733e+03 1.660456474711041784e-03
1.302051025512756269e+03 1.677075959883266932e-03
1.302951475737868805e+03 1.694252559493767763e-03
1.303851925962981340e+03 1.708206201781806849e-03
1.304752376188093876e+03 1.715150030861811725e-03
1.305652826413206640e+03 1.715117756747070550e-03
1.306553276638319176e+03 1.711119163613194919e-03
1.307453726863431712e+03 1.708377456688337176e-03
1.308354177088544247e+03 1.713437099063889850e-03
1.309254627313656783e+03 1.729295579758128492e-03
1.310155077538769319e+03 1.754204125623082342e-03
1.311055527763881855e+03 1.785735507153367579e-03
1.311955977988994391e+03 1.821048511179171716e-03
1.312856428214106927e+03 1.855235191074338860e-03
1.313756878439219463e+03 1.886350825495887755e-03
1.314657328664331999e+03 1.917963977304284985e-03
1.315557778889444762e+03 1.952214620592043976e-03
1.316458229114557298e+03 1.987519264644480033e-03
1.317358679339669834e+03 2.023846164490806978e-03
1.318259129564782370e+03 2.060111455961188831e-03
1.319159579789894906e+03 2.094323639191651796e-03
1.320060030015007442e+03 2.129631561155990484e-03
1.320960480240119978e+03 2.171013727546204121e-03
1.321860930465232514e+03 2.218888930515997178e-03
1.322761380690345050e+03 2.270161750323251588e-03
1.323661830915457585e+03 2.321025285194631797e-03
1.324562281140570121e+03 2.369433331043661450e-03
1.325462731365682885e+03 2.414147080044997274e-03
1.326363181590795421e+03 2.457701671002137604e-03
1.327263631815907956e+03 2.507432980708206895e-03
1.328164082041020492e+03 2.568584663798357919e-03
1.329064532266133028e+03 2.639620779739579835e-03
1.329964982491245564e+03 2.715175967965654472e-03
1.330865432716358100e+03 2.792342783205933876e-03
1.331765882941470636e+03 2.872936624401385610e-03
1.332666333166583172e+03 2.962408114681682695e-03
1.333566783391695708e+03 3.063839184016404170e-03
1.334467233616808244e+03 3.166790607487387707e-03
1.335367683841921007e+03 3.254899972790853847e-03
1.336268134067033543e+03 3.325287431263052734e-03
1.337168584292146079e+03 3.388268689432880412e-03
1.338069034517258615e+03 3.450712803398418849e-03
1.338969484742371151e+03 3.514615600666626694e-03
1.339869934967483687e+03 3.584157781139751114e-03
1.340770385192596223e+03 3.664555053116768692e-03
1.341670835417708759e+03 3.758681590314863659e-03
1.342571285642821294e+03 3.868821229323290978e-03
1.343471735867933830e+03 3.998350531160981859e-03
1.344372186093046366e+03 4.145116242125165308e-03
1.345272636318158902e+03 4.297140508888018171e-03
1.346173086543271666e+03 4.441657278509014359e-03
1.347073536768384201e+03 4.573748299389076774e-03
1.347973986993496737e+03 4.695834106600770171e-03
1.348874437218609273e+03 4.821610297586762135e-03
1.349774887443721809e+03 4.967859739191740620e-03
1.350675337668834345e+03 5.135857407751645565e-03
1.351575787893946881e+03 5.317164029865126956e-03
1.352476238119059417e+03 5.510308797536520552e-03
1.353376688344171953e+03 5.716711443973803222e-03
1.354277138569284489e+03 5.922377368870647071e-03
1.355177588794397025e+03 6.103692274050970257e-03
1.356078039019509788e+03 6.258136188518038066e-03
1.356978489244622324e+03 6.411073623345542490e-03
1.357878939469734860e+03 6.588145605614781526e-03
1.358779389694847396e+03 6.792465963810279117e-03
1.359679839919959932e+03 7.015136473577585942e-03
1.360580290145072468e+03 7.262540852824513754e-03
1.361480740370185003e+03 7.543663523165150889e-03
1.362381190595297539e+03 7.845271141769093876e-03
1.363281640820410075e+03 8.150884325586062185e-03
1.364182091045522611e+03 8.450480898445253755e-03
1.365082541270635147e+03 8.733574892051586269e-03
1.365982991495747910e+03 8.996509041964625975e-03
1.366883441720860446e+03 9.257859836053481881e-03
1.367783891945972982e+03 9.536691486049008251e-03
1.368684342171085518e+03 9.821879857849631981e-03
1.369584792396198054e+03 1.010179140761022221e-02
1.370485242621310590e+03 1.039547789553463449e-02
1.371385692846423126e+03 1.071942721560479976e-02
1.372286143071535662e+03 1.106724025612275397e-02
1.373186593296648198e+03 1.142150373691190948e-02
1.374087043521760734e+03 1.177082259582437444e-02
1.374987493746873270e+03 1.211700494570141021e-02
1.375887943971986033e+03 1.245952906363586958e-02
1.376788394197098569e+03 1.278871972544194484e-02
1.377688844422211105e+03 1.310310492567916089e-02
1.378589294647323641e+03 1.341908874511364529e-02
1.379489744872436177e+03 1.376466681237749692e-02
1.380390195097548713e+03 1.417554590008543274e-02
1.381290645322661248e+03 1.466057368303969217e-02
1.382191095547773784e+03 1.517243141630720236e-02
1.383091545772886320e+03 1.563980797152015115e-02
1.383991995997998856e+03 1.605720756350217243e-02
1.384892446223111392e+03 1.651686687196570261e-02
1.385792896448224155e+03 1.709981198194993057e-02
1.386693346673336691e+03 1.781166476133175594e-02
1.387593796898449227e+03 1.859475167465828027e-02
1.388494247123561763e+03 1.932568955745539094e-02
1.389394697348674299e+03 1.986678150220222774e-02
1.390295147573786835e+03 2.015564848467409770e-02
1.391195597798899371e+03 2.023358297273092007e-02
1.392096048024011907e+03 2.020794611818730463e-02
1.392996498249124443e+03 2.022684156139267775e-02
1.393896948474236979e+03 2.039977566270044507e-02
1.394797398699349515e+03 2.071345358093238179e-02
1.395697848924462278e+03 2.107167102336433145e-02
1.396598299149574814e+03 2.140286692776846925e-02
1.397498749374687350e+03 2.170916959030013554e-02
1.398399199599799886e+03 2.201606770127999269e-02
1.399299649824912422e+03 2.229057918826870752e-02
1.400200100050024957e+03 2.245776638582261744e-02
1.401100550275137493e+03 2.247880097951106271e-02
1.402001000500250029e+03 2.236459790782868023e-02
1.402901450725362565e+03 2.213182816867871605e-02
1.403801900950475101e+03 2.181191783975720486e-02
1.404702351175587637e+03 2.148279227372968531e-02
1.405602801400700173e+03 2.121307555574183587e-02
1.406503251625812936e+03 2.100058759831911759e-02
1.407403701850925472e+03 2.080604647989801534e-02
1.408304152076038008e+03 2.061910678265619842e-02
1.409204602301150544e+03 2.043261122579109398e-02
1.410105052526263080e+03 2.021545552092938319e-02
1.411005502751375616e+03 1.997675806495980907e-02
1.411905952976488152e+03 1.975237549863633271e-02
1.412806403201600688e+03 1.955580437889675380e-02
1.413706853426713224e+03 1.933905817600616028e-02
1.414607303651825760e+03 1.902931558799082420e-02
1.415507753876938295e+03 1.860828160174982440e-02
1.416408204102051059e+03 1.811517590649093512e-02
1.417308654327163595e+03 1.761148563975536291e-02
1.418209104552276131e+03 1.713012194350820722e-02
1.419109554777388666e+03 1.665642744105354234e-02
1.420010005002501202e+03 1.620142422447483702e-02
1.420910455227613738e+03 1.581965120545311340e-02
1.421810905452726274e+03 1.550926473721758736e-02
1.422711355677838810e+03 1.518507599955935816e-02
1.423611805902951346e+03 1.476545039044634827e-02
1.424512256128063882e+03 1.425778466025795672e-02
1.425412706353176418e+03 1.372546930359274005e-02
1.426313156578289181e+03 1.318760040959917473e-02
1.427213606803401717e+03 1.263446582234749489e-02
1.428114057028514253e+03 1.208659051596609746e-02
1.429014507253626789e+03 1.156156897622124397e-02
1.429914957478739325e+03 1.105677225028274015e-02
1.430815407703851861e+03 1.059605833224131800e-02
1.431715857928964397e+03 1.020290956154350920e-02
1.432616308154076933e+03 9.864260324780873765e-03
1.433516758379189469e+03 9.571432871202953038e-03
1.434417208604302004e+03 9.328866479553535665e-03
1.435317658829414540e+03 9.117814950396648660e-03
1.436218109054527304e+03 8.908963532643216637e-03
1.437118559279639840e+03 8.696237322055657207e-03
1.438019009504752376e+03 8.488694449014410476e-03
1.438919459729864911e+03 8.291280572924258213e-03
1.439819909954977447e+03 8.092807646146513503e-03
1.440720360180089983e+03 7.870941054730589206e-03
1.441620810405202519e+03 7.625202906375336959e-03
1.442521260630315055e+03 7.376432560764482199e-03
1.443421710855427591e+03 7.144400586784073991e-03
1.444322161080540127e+03 6.937131721699840541e-03
1.445222611305652663e+03 6.751910679639304760e-03
1.446123061530765426e+03 6.590600777169145288e-03
1.447023511755877962e+03 6.452888017077731964e-03
1.447923961980990498e+03 6.319555462292473537e-03
1.448824412206103034e+03 6.179352869452146499e-03
1.449724862431215570e+03 6.039817018607314750e-03
1.450625312656328106e+03 5.902598376040004043e-03
1.451525762881440642e+03 5.761612537511219719e-03
1.452426213106553178e+03 5.614337351274483086e-03
1.453326663331665713e+03 5.467505893485435052e-03
1.454227113556778249e+03 5.328570056772416984e-03
1.455127563781890785e+03 5.208793731267869799e-03
1.456028014007003321e+03 5.119885283960303422e-03
1.456928464232116085e+03 5.057385970398248047e-03
1.457828914457228620e+03 5.004109461731019379e-03
1.458729364682341156e+03 4.940320736359503535e-03
1.459629814907453692e+03 4.847595061619059363e-03
1.460530265132566228e+03 4.721443241324997826e-03
1.461430715357678764e+03 4.577919375569661914e-03
1.462331165582791300e+03 4.443334833007854708e-03
1.463231615807903836e+03 4.334540549681928021e-03
1.464132066033016372e+03 4.242500126714002749e-03
1.465032516258128908e+03 4.145297159161525150e-03
1.465932966483241444e+03 4.031257957207888369e-03
1.466833416708354207e+03 3.900433105469427921e-03
1.467733866933466743e+03 3.753781610567883016e-03
1.468634317158579279e+03 3.596148984054813730e-03
1.469534767383691815e+03 3.440412570473276154e-03
1.470435217608804351e+03 3.298491307378174312e-03
1.471335667833916887e+03 3.177685503505168086e-03
1.472236118059029423e+03 3.082293952710652828e-03
1.473136568284141958e+03 3.004268506105861689e-03
1.474037018509254494e+03 2.923820585695244625e-03
1.474937468734367030e+03 2.832197535724619453e-03
1.475837918959479566e+03 2.738518563423109932e-03
1.476738369184592329e+03 2.656137314215139839e-03
1.477638819409704865e+03 2.592331753054935919e-03
1.478539269634817401e+03 2.541070820779567450e-03
1.479439719859929937e+03 2.485702573806412765e-03
1.480340170085042473e+03 2.415492314960463079e-03
1.481240620310155009e+03 2.336018391574890170e-03
1.482141070535267545e+03 2.258459199296273916e-03
1.483041520760380081e+03 2.186690129874644707e-03
1.483941970985492617e+03 2.118094271971898614e-03
1.484842421210605153e+03 2.050096888674077852e-03
1.485742871435717689e+03 1.985007027709389908e-03
1.486643321660830452e+03 1.928802030520391630e-03
1.487543771885942988e+03 1.882571724081366681e-03
1.488444222111055524e+03 1.842592619851392104e-03
1.489344672336168060e+03 1.806676161664472723e-03
1.490245122561280596e+03 1.772957565182960897e-03
1.491145572786393132e+03 1.740613177352111959e-03
1.492046023011505667e+03 1.710452707210141686e-03
1.492946473236618203e+03 1.681876129560291215e-03
1.493846923461730739e+03 1.652069048876096680e-03
1.494747373686843275e+03 1.617372280022204376e-03
1.495647823911955811e+03 1.577327964976242688e-03
1.496548274137068574e+03 1.537303953053474528e-03
1.497448724362181110e+03 1.503874726710131187e-03
1.498349174587293646e+03 1.480289550116888975e-03
1.499249624812406182e+03 1.463992390733594683e-03
1.500150075037518718e+03 1.448968104040766368e-03
1.501050525262631254e+03 1.431512927455596499e-03
1.501950975487743790e+03 1.409299692880496609e-03
1.502851425712856326e+03 1.380603380185832247e-03
1.503751875937968862e+03 1.348745800320572119e-03
1.504652326163081398e+03 1.320021043802384894e-03
1.505552776388193934e+03 1.297858529198422321e-03
1.506453226613306470e+03 1.283727723237114643e-03
1.507353676838419233e+03 1.278486530956364498e-03
1.508254127063531769e+03 1.281991726115892360e-03
1.509154577288644305e+03 1.294653656190463938e-03
1.510055027513756841e+03 1.317503822001324897e-03
1.510955477738869376e+03 1.347020947209338947e-03
1.511855927963981912e+03 1.372847403754812960e-03
1.512756378189094448e+03 1.384372503805129159e-03
1.513656828414206984e+03 1.377943329448789393e-03
1.514557278639319520e+03 1.357530447549937670e-03
1.515457728864432056e+03 1.327448022730132833e-03
1.516358179089544592e+03 1.291365573855896010e-03
1.517258629314657355e+03 1.255456136961540913e-03
1.518159079539769891e+03 1.224422071658577476e-03
1.519059529764882427e+03 1.201097643317432457e-03
1.519959979989994963e+03 1.186824483366891603e-03
1.520860430215107499e+03 1.179599415842988441e-03
1.521760880440220035e+03 1.175159967802134496e-03
1.522661330665332571e+03 1.171556393359280508e-03
1.523561780890445107e+03 1.171950675605380396e-03
1.524462231115557643e+03 1.181416517300707281e-03
1.525362681340670179e+03 1.200894135135223851e-03
1.526263131565782714e+03 1.222261278247209438e-03
1.527163581790895478e+03 1.232934904749827558e-03
1.528064032016008014e+03 1.228798899175792114e-03
1.528964482241120550e+03 1.216646281189792417e-03
1.529864932466233086e+03 1.204995363570068737e-03
1.530765382691345621e+03 1.198010855606199175e-03
1.531665832916458157e+03 1.192635207477867835e-03
1.532566283141570693e+03 1.181027171388766102e-03
1.533466733366683229e+03 1.159728702078639210e-03
1.534367183591795765e+03 1.134561461194429294e-03
1.535267633816908301e+03 1.115487557833553080e-03
1.536168084042020837e+03 1.106836291083682262e-03
1.537068534267133600e+03 1.105788593334759056e-03
1.537968984492246136e+03 1.105880520931008457e-03
1.538869434717358672e+03 1.100939519622118985e-03
1.539769884942471208e+03 1.090221687497122107e-03
1.540670335167583744e+03 1.078540649061955235e-03
1.541570785392696280e+03 1.070478881460166934e-03
1.542471235617808816e+03 1.065887046356850821e-03
1.543371685842921352e+03 1.059079464101711152e-03
1.544272136068033888e+03 1.045263598978867208e-03
1.545172586293146423e+03 1.028559231955103199e-03
1.546073036518258959e+03 1.014817352743907974e-03
1.546973486743371723e+03 1.002574881378018529e-03
1.547873936968484259e+03 9.880649439221104828e-04
1.548774387193596795e+03 9.727321697117974819e-04
1.549674837418709330e+03 9.615966659650705250e-04
1.550575287643821866e+03 9.575199088160137560e-04
1.551475737868934402e+03 9.589038473810349060e-04
1.552376188094046938e+03 9.603784651493970943e-04
1.553276638319159474e+03 9.581020493954443959e-04
1.554177088544272010e+03 9.526178996856319876e-04
1.555077538769384546e+03 9.449622912707823785e-04
1.555977988994497082e+03 9.334306849466711712e-04
1.556878439219609618e+03 9.161981761524563492e-04
1.557778889444722381e+03 8.931997670025785402e-04
1.558679339669834917e+03 8.660443583985684771e-04
1.559579789894947453e+03 8.379409341994774503e-04
1.560480240120059989e+03 8.139393497860002548e-04
1.561380690345172525e+03 7.988680404005749167e-04
1.562281140570285061e+03 7.925076615024473489e-04
1.563181590795397597e+03 7.904340550295781316e-04
1.564082041020510133e+03 7.868506132465848775e-04
1.564982491245622668e+03 7.778773044685233706e-04
1.565882941470735204e+03 7.652661483554444805e-04
1.566783391695847740e+03 7.541825021027806280e-04
1.567683841920960504e+03 7.464509123054613839e-04
1.568584292146073039e+03 7.393503481682419049e-04
1.569484742371185575e+03 7.310481692922282237e-04
1.570385192596298111e+03 7.193877827911649391e-04
1.571285642821410647e+03 7.005254843253892749e-04
1.572186093046523183e+03 6.730010969256326704e-04
1.573086543271635719e+03 6.374249391121403078e-04
1.573986993496748255e+03 5.963304981487008421e-04
1.574887443721860791e+03 5.506984181913918532e-04
1.575787893946973327e+03 4.981523918714746927e-04
1.576688344172085863e+03 4.390456742911234204e-04
1.577588794397198626e+03 3.794476705990934952e-04
1.578489244622311162e+03 3.263525218023898391e-04
1.579389694847423698e+03 2.833590076216744051e-04
1.580290145072536234e+03 2.510111858330960218e-04
1.581190595297648770e+03 2.278254706542917119e-04
1.582091045522761306e+03 2.110963923244113202e-04
1.582991495747873842e+03 1.975885423906529866e-04
1.583891945972986377e+03 1.849073594164836866e-04
1.584792396198098913e+03 1.723284062704863494e-04
1.585692846423211449e+03 1.594762514954312538e-04
1.586593296648323985e+03 1.468417529070710926e-04
1.587493746873436749e+03 1.355732812283799910e-04
1.588394197098549284e+03 1.260641141944785848e-04
1.589294647323661820e+03 1.181503414956663927e-04
1.590195097548774356e+03 1.116001950886335908e-04
1.591095547773886892e+03 1.061658121206088100e-04
1.591995997998999428e+03 1.016106005932098879e-04
1.592896448224111964e+03 9.774575438935296774e-05
1.593796898449224500e+03 9.443015063649543993e-05
1.594697348674337036e+03 9.154698592431042116e-05
1.595597798899449572e+03 8.898385056270389907e-05
1.596498249124562108e+03 8.666217084780220535e-05
1.597398699349674871e+03 8.457674919326234428e-05
1.598299149574787407e+03 8.275285778529575234e-05
1.599199599799899943e+03 8.120365043056661312e-05
1.600100050025012479e+03 7.993750808810689689e-05
1.601000500250125015e+03 7.897381569866916381e-05
1.601900950475237551e+03 7.835280807927669504e-05
1.602801400700350086e+03 7.814413005299574615e-05
1.603701850925462622e+03 7.845996956176625662e-05
1.604602301150575158e+03 7.947873370047804512e-05
1.605502751375687694e+03 8.146961824410761698e-05
1.606403201600800230e+03 8.477440577934473485e-05
1.607303651825912766e+03 8.964753673188940628e-05
1.608204102051025529e+03 9.582551267014457553e-05
1.609104552276138065e+03 1.021162351330387409e-04
1.610005002501250601e+03 1.069079784891545002e-04
1.610905452726363137e+03 1.095399807423429514e-04
1.611805902951475673e+03 1.101806976776194177e-04
1.612706353176588209e+03 1.083221679999152190e-04
1.613606803401700745e+03 1.039213313657736027e-04
1.614507253626813281e+03 9.846776982336182676e-05
1.615407703851925817e+03 9.358227340877260441e-05
1.616308154077038353e+03 8.971572785364339512e-05
1.617208604302150889e+03 8.606722822643254542e-05
1.618109054527263652e+03 8.196893810843846348e-05
1.619009504752376188e+03 7.764788120604201166e-05
1.619909954977488724e+03 7.358105773548068846e-05
1.620810405202601260e+03 7.034154319846626542e-05
1.621710855427713796e+03 6.836990550120550659e-05
1.622611305652826331e+03 6.770218829461535637e-05
1.623511755877938867e+03 6.795235049335966628e-05
1.624412206103051403e+03 6.850525551878710044e-05
1.625312656328163939e+03 6.922101700758082966e-05
1.626213106553276475e+03 7.034980806963857366e-05
1.627113556778389011e+03 7.109705570325297803e-05
1.628014007003501774e+03 6.960491638530077844e-05
1.628914457228614310e+03 6.553719026328252517e-05
1.629814907453726846e+03 6.065178567687374520e-05
1.630715357678839382e+03 5.637863230227389545e-05
1.631615807903951918e+03 5.305380149597636066e-05
1.632516258129064454e+03 5.052519860739635219e-05
1.633416708354176990e+03 4.857040464229498995e-05
1.634317158579289526e+03 4.701387451270694519e-05
1.635217608804402062e+03 4.573482928753795873e-05
1.636118059029514598e+03 4.465292859373985078e-05
1.637018509254627133e+03 4.371462213199155518e-05
1.637918959479739897e+03 4.288364769504478307e-05
1.638819409704852433e+03 4.213493240622290308e-05
1.639719859929964969e+03 4.145075173679574159e-05
1.640620310155077505e+03 4.081829985677608850e-05
1.641520760380190040e+03 4.022813103732398514e-05
1.642421210605302576e+03 3.967314175402874676e-05
1.643321660830415112e+03 3.914789306174340879e-05
1.644222111055527648e+03 3.864815079029915168e-05
1.645122561280640184e+03 3.817056773391796500e-05
1.646023011505752720e+03 3.771246010462634221e-05
1.646923461730865256e+03 3.727164768005650816e-05
1.647823911955978019e+03 3.684633772258047099e-05
1.648724362181090555e+03 3.643503946296925507e-05
1.649624812406203091e+03 3.603650024996028295e-05
1.650525262631315627e+03 3.564965727624561396e-05
1.651425712856428163e+03 3.527360065210203015e-05
1.652326163081540699e+03 3.490754484911629370e-05
1.653226613306653235e+03 3.455080638994195550e-05
1.654127063531765771e+03 3.420278625015989063e-05
1.655027513756878307e+03 3.386295585161852047e-05
1.655927963981990843e+03 3.353084581961484717e-05
1.656828414207103378e+03 3.320603688637053835e-05
1.657728864432216142e+03 3.288815247553173354e-05
1.658629314657328678e+03 3.257685261395092547e-05
1.659529764882441214e+03 3.227182889945414416e-05
1.660430215107553749e+03 3.197280031484206508e-05
1.661330665332666285e+03 3.167950972468384083e-05
1.662231115557778821e+03 3.139172092661739931e-05
1.663131565782891357e+03 3.110921615576286124e-05
1.664032016008003893e+03 3.083179396157005630e-05
1.664932466233116429e+03 3.055926739251171387e-05
1.665832916458228965e+03 3.029146243659023639e-05
1.666733366683341501e+03 3.002821667551113562e-05
1.667633816908454037e+03 2.976937811819344240e-05
1.668534267133566800e+03 2.951480418550585499e-05
1.669434717358679336e+03 2.926436082309865689e-05
1.670335167583791872e+03 2.901792172320605067e-05
1.671235617808904408e+03 2.877536763953186962e-05
1.672136068034016944e+03 2.853658578196744002e-05
1.673036518259129480e+03 2.830146928003740196e-05
1.673936968484242016e+03 2.806991670573187405e-05
1.674837418709354552e+03 2.784183164784075569e-05
1.675737868934467087e+03 2.761712233110057843e-05
1.676638319159579623e+03 2.739570127446943105e-05
1.677538769384692159e+03 2.717748498367513491e-05
1.678439219609804923e+03 2.696239367387569464e-05
1.679339669834917459e+03 2.675035101886228856e-05
1.680240120060029994e+03 2.654128392372567824e-05
1.681140570285142530e+03 2.633512231832200331e-05
1.682041020510255066e+03 2.613179896923342895e-05
1.682941470735367602e+03 2.593124930821998943e-05
1.683841920960480138e+03 2.573341127541019466e-05
1.684742371185592674e+03 2.553822517571113760e-05
1.685642821410705210e+03 2.534563354709730703e-05
1.686543271635817746e+03 2.515558103961009466e-05
1.687443721860930282e+03 2.496801430403389134e-05
1.688344172086043045e+03 2.478288188934699740e-05
1.689244622311155581e+03 2.460013414814525424e-05
1.690145072536268117e+03 2.441972314933177536e-05
1.691045522761380653e+03 2.424160259745306026e-05
1.691945972986493189e+03 2.406572775812723021e-05
1.692846423211605725e+03 2.389205538907947644e-05
1.693746873436718261e+03 2.372054367635424843e-05
1.694647323661830796e+03 2.355115217532533834e-05
1.695547773886943332e+03 2.338384175617001890e-05
1.696448224112055868e+03 2.321857455351487940e-05
1.697348674337168404e+03 2.305531391999986684e-05
1.698249124562281168e+03 2.289402438353913788e-05
1.699149574787393703e+03 2.273467160809135136e-05
1.700050025012506239e+03 2.257722235778181915e-05
1.700950475237618775e+03 2.242164446424540166e-05
1.701850925462731311e+03 2.226790679709220701e-05
1.702751375687843847e+03 2.211597923741620876e-05
1.703651825912956383e+03 2.196583265430235340e-05
1.704552276138068919e+03 2.181743888431014505e-05
1.705452726363181455e+03 2.167077071394009398e-05
1.706353176588293991e+03 2.152580186511886509e-05
1.707253626813406527e+03 2.138250698376951362e-05
1.708154077038519290e+03 2.124086163156724573e-05
1.709054527263631826e+03 2.110084228101556848e-05
1.709954977488744362e+03 2.096242631401837192e-05
1.710855427713856898e+03 2.082559202416971999e-05
1.711755877938969434e+03 2.069031862303092711e-05
1.712656328164081970e+03 2.055658625072297283e-05
1.713556778389194506e+03 2.042437599122976478e-05
1.714457228614307041e+03 2.029366989288030677e-05
1.715357678839419577e+03 2.016445099457073474e-05
1.716258129064532113e+03 2.003670335838543605e-05
1.717158579289644649e+03 1.991041210940250897e-05
1.718059029514757185e+03 1.978556348361059611e-05
1.718959479739869948e+03 1.966214488503009958e-05
1.719859929964982484e+03 1.954014495334176194e-05
1.720760380190095020e+03 1.941955364356011667e-05
1.721660830415207556e+03 1.930036231958088091e-05
1.722561280640320092e+03 1.918256386378527391e-05
1.723461730865432628e+03 1.906615280529843035e-05
1.724362181090545164e+03 1.895112547002113430e-05
1.725262631315657700e+03 1.883748015617061453e-05
1.726163081540770236e+03 1.872521733984060756e-05
1.727063531765882772e+03 1.861433991602646996e-05
1.727963981990995308e+03 1.850485348172801103e-05
1.728864432216108071e+03 1.839676666918490887e-05
1.729764882441220607e+03 1.829009153910170020e-05
1.730665332666333143e+03 1.818484404597128627e-05
1.731565782891445679e+03 1.808104459045093191e-05
1.732466233116558215e+03 1.797871867733660180e-05
1.733366683341670750e+03 1.787789770226742936e-05
1.734267133566783286e+03 1.777861989614751384e-05
1.735167583791895822e+03 1.768093146384209970e-05
1.736068034017008358e+03 1.758488796349842853e-05
1.736968484242120894e+03 1.749055598564326031e-05
1.737868934467233430e+03 1.739801520803646500e-05
1.738769384692346193e+03 1.730736092455625226e-05
1.739669834917458729e+03 1.721870717615189310e-05
1.740570285142571265e+03 1.713219065197356625e-05
1.741470735367683801e+03 1.704797558319415618e-05
1.742371185592796337e+03 1.696625992661236182e-05
1.743271635817908873e+03 1.688728323830710582e-05
1.744172086043021409e+03 1.681133678187489165e-05
1.745072536268133945e+03 1.673877661967099550e-05
1.745972986493246481e+03 1.667004072694084374e-05
1.746873436718359017e+03 1.660567159052311713e-05
1.747773886943471553e+03 1.654634637205391656e-05
1.748674337168584316e+03 1.649291763422266411e-05
1.749574787393696852e+03 1.644646901321334911e-05
1.750475237618809388e+03 1.640839233896583974e-05
1.751375687843921924e+03 1.638049599751914469e-05
1.752276138069034459e+03 1.636515953052457341e-05
1.753176588294146995e+03 1.636555781717943740e-05
1.754077038519259531e+03 1.638599180573929219e-05
1.754977488744372067e+03 1.643238530738024808e-05
1.755877938969484603e+03 1.651304509090307010e-05
1.756778389194597139e+03 1.663984485195351735e-05
1.757678839419709675e+03 1.683009854074088131e-05
1.758579289644822438e+03 1.710955322671226238e-05
1.759479739869934974e+03 1.751714826116223308e-05
1.760380190095047510e+03 1.811228446901013103e-05
1.761280640320160046e+03 1.898441999699364502e-05
1.762181090545272582e+03 2.025913517439818811e-05
1.763081540770385118e+03 2.207200629644358580e-05
1.763981990995497654e+03 2.441880523222538977e-05
1.764882441220610190e+03 2.675809386380188012e-05
1.765782891445722726e+03 2.777693941960561916e-05
1.766683341670835262e+03 2.660472856371578091e-05
1.767583791895947797e+03 2.411262852691519167e-05
1.768484242121060333e+03 2.161337660746842106e-05
1.769384692346173097e+03 1.964809391229480634e-05
1.770285142571285633e+03 1.822088242426950057e-05
1.771185592796398169e+03 1.719614298404323474e-05
1.772086043021510704e+03 1.644829808003095011e-05
1.772986493246623240e+03 1.588789323639407317e-05
1.773886943471735776e+03 1.545552767730120746e-05
1.774787393696848312e+03 1.511225896232093584e-05
1.775687843921960848e+03 1.483233492236362585e-05
1.776588294147073384e+03 1.459843539207720570e-05
1.777488744372185920e+03 1.439867995249204483e-05
1.778389194597298456e+03 1.422475500808614580e-05
1.779289644822411219e+03 1.407073009856567606e-05
1.780190095047523755e+03 1.393229801468430034e-05
1.781090545272636291e+03 1.380627817791928929e-05
1.781990995497748827e+03 1.369028606651412622e-05
1.782891445722861363e+03 1.358250918883817452e-05
1.783791895947973899e+03 1.348155264658500095e-05
1.784692346173086435e+03 1.338633095016022803e-05
1.785592796398198971e+03 1.329599109791100474e-05
1.786493246623311506e+03 1.320985713159819242e-05
1.787393696848424042e+03 1.312738967365721626e-05
1.788294147073536578e+03 1.304815607129210298e-05
1.789194597298649342e+03 1.297180815850776766e-05
1.790095047523761878e+03 1.289806556780589716e-05
1.790995497748874413e+03 1.282670314414080305e-05
1.791895947973986949e+03 1.275754143891008100e-05
1.792796398199099485e+03 1.269043955760561914e-05
1.793696848424212021e+03 1.262528984429334197e-05
1.794597298649324557e+03 1.256201403770135276e-05
1.795497748874437093e+03 1.250056064647448412e-05
1.796398199099549629e+03 1.244090337833459744e-05
1.797298649324662165e+03 1.238304052898138880e-05
1.798199099549774701e+03 1.232699529888921813e-05
1.799099549774887464e+03 1.227281706583605626e-05
1.800000000000000000e+03 1.222058370384640805e-05
