0.000000000000000000e+00 8.249140448821762599e-04
9.004502251125562351e-01 1.091517213142198300e-03
1.800900450225112470e+00 1.405237305417649223e-03
2.701350675337668594e+00 1.673973202868229851e-03
3.601800900450224940e+00 1.791274274667157326e-03
4.502251125562780842e+00 1.788767763235567547e-03
5.402701350675337189e+00 1.773177963035638778e-03
6.303151575787893535e+00 1.737008109804177424e-03
7.203601800900449881e+00 1.582625596960013804e-03
8.104052026013006227e+00 1.310481184024745371e-03
9.004502251125561685e+00 1.021591060761878464e-03
9.904952476238118919e+00 7.804961411299960253e-04
1.080540270135067438e+01 5.980659055831152784e-04
1.170585292646323161e+01 4.652148347002432586e-04
1.260630315157578707e+01 3.691539740949802357e-04
1.350675337668834430e+01 2.989330102324122269e-04
1.440720360180089976e+01 2.466696450354845314e-04
1.530765382691345522e+01 2.070493754123049507e-04
1.620810405202601245e+01 1.765176803330764188e-04
1.710855427713856969e+01 1.526212410998685595e-04
1.800900450225112337e+01 1.335071535125834444e-04
1.890945472736368060e+01 1.176822988659771214e-04
1.980990495247623784e+01 1.041748350038360495e-04
2.071035517758879507e+01 9.258975605507346429e-05
2.161080540270134875e+01 8.274766809009892140e-05
2.251125562781390599e+01 7.443441552981089001e-05
2.341170585292646322e+01 6.740192322739419276e-05
2.431215607803901690e+01 6.142598691091467401e-05
2.521260630315157414e+01 5.632963509185036826e-05
2.611305652826413137e+01 5.197994466304171136e-05
2.701350675337668861e+01 4.827034707186314891e-05
2.791395697848924229e+01 4.508786903397344893e-05
2.881440720360179952e+01 4.229278565571220768e-05
2.971485742871435676e+01 3.975244968567228629e-05
3.061530765382691044e+01 3.735986144495410623e-05
3.151575787893946767e+01 3.503877152908400048e-05
3.241620810405202491e+01 3.280092811231353600e-05
3.331665832916458214e+01 3.072681017796517907e-05
3.421710855427713938e+01 2.888509986796798952e-05
3.511755877938969661e+01 2.727872632457409565e-05
3.601800900450224674e+01 2.583496165196648312e-05
3.691845922961480397e+01 2.446475113992767372e-05
3.781890945472736121e+01 2.315182024991714447e-05
3.871935967983991844e+01 2.194364362320582119e-05
3.961980990495247568e+01 2.087670728189548069e-05
4.052026013006503291e+01 1.995379696772807561e-05
4.142071035517759015e+01 1.916227532872098066e-05
4.232116058029014027e+01 1.848475582840647914e-05
4.322161080540269751e+01 1.788993557082200364e-05
4.412206103051525474e+01 1.734205298732538451e-05
4.502251125562781198e+01 1.684714036876278274e-05
4.592296148074036921e+01 1.645388914946239745e-05
4.682341170585292645e+01 1.617703363639819942e-05
4.772386193096548368e+01 1.595655184096513352e-05
4.862431215607803381e+01 1.570877875973758018e-05
4.952476238119059104e+01 1.539322034652361307e-05
5.042521260630314828e+01 1.502269367009290796e-05
5.132566283141570551e+01 1.462727002695583520e-05
5.222611305652826275e+01 1.422232846340435044e-05
5.312656328164081998e+01 1.383607516391880986e-05
5.402701350675337721e+01 1.347809645547139091e-05
5.492746373186592734e+01 1.308834458163530896e-05
5.582791395697848458e+01 1.263496663981649990e-05
5.672836418209104181e+01 1.217426512623769309e-05
5.762881440720359905e+01 1.176979984670537010e-05
5.852926463231615628e+01 1.142561242250521861e-05
5.942971485742871351e+01 1.108478424228308218e-05
6.033016508254127075e+01 1.069770846692513794e-05
6.123061530765382088e+01 1.029812078368205404e-05
6.213106553276637811e+01 9.959943413258820195e-06
6.303151575787893535e+01 9.721060882746676655e-06
6.393196598299149258e+01 9.573881564911339238e-06
6.483241620810404982e+01 9.477999343965214777e-06
6.573286643321659994e+01 9.375198705497037559e-06
6.663331665832916428e+01 9.222172304931882666e-06
6.753376688344171441e+01 9.023472939656538064e-06
6.843421710855427875e+01 8.802048499670777701e-06
6.933466733366682888e+01 8.553131227789074920e-06
7.023511755877939322e+01 8.290931944242704101e-06
7.113556778389194335e+01 8.072858112109093523e-06
7.203601800900449348e+01 7.940602325022246165e-06
7.293646823411705782e+01 7.902314285876218915e-06
7.383691845922960795e+01 7.949513031155431626e-06
7.473736868434217229e+01 8.074455754449451515e-06
7.563781890945472242e+01 8.284801309269730285e-06
7.653826913456728676e+01 8.582517966304199753e-06
7.743871935967983688e+01 8.920035759875227235e-06
7.833916958479238701e+01 9.214665916185034851e-06
7.923961980990495135e+01 9.408584774318305710e-06
8.014007003501750148e+01 9.446306407255290367e-06
8.104052026013006582e+01 9.274371127423246763e-06
8.194097048524261595e+01 8.955941842906740342e-06
8.284142071035518029e+01 8.638413283423279480e-06
8.374187093546773042e+01 8.396362117894847423e-06
8.464232116058028055e+01 8.222645592533039586e-06
8.554277138569284489e+01 8.089331416049749875e-06
8.644322161080539502e+01 7.984157846539509498e-06
8.734367183591795936e+01 7.911445072977148422e-06
8.824412206103050949e+01 7.865602234626181786e-06
8.914457228614307382e+01 7.819308482339271314e-06
9.004502251125562395e+01 7.751428189336761343e-06
9.094547273636817408e+01 7.669569976584221228e-06
9.184592296148073842e+01 7.601681531291373002e-06
9.274637318659328855e+01 7.594743405463588869e-06
9.364682341170585289e+01 7.678113800239099080e-06
9.454727363681840302e+01 7.836657743909257253e-06
9.544772386193096736e+01 8.021477848042263015e-06
9.634817408704351749e+01 8.185103820208400259e-06
9.724862431215606762e+01 8.288219505229516742e-06
9.814907453726863196e+01 8.304619776089308428e-06
9.904952476238118209e+01 8.249256820125633208e-06
9.994997498749374643e+01 8.130551719849944635e-06
1.008504252126062966e+02 7.960220269088491413e-06
1.017508754377188609e+02 7.814917972318537642e-06
1.026513256628314110e+02 7.765080685810474704e-06
1.035517758879439612e+02 7.809889936788372834e-06
1.044522261130565255e+02 7.912709017755732596e-06
1.053526763381690756e+02 8.046331551314107069e-06
1.062531265632816400e+02 8.207510457680712002e-06
1.071535767883941901e+02 8.378576961982181595e-06
1.080540270135067544e+02 8.509750411214357820e-06
1.089544772386193046e+02 8.558306611454177609e-06
1.098549274637318547e+02 8.534672920899639433e-06
1.107553776888444190e+02 8.488387591118424840e-06
1.116558279139569692e+02 8.440783794471816000e-06
1.125562781390695335e+02 8.387019804991749128e-06
1.134567283641820836e+02 8.315294437875877671e-06
1.143571785892946480e+02 8.240029568146017881e-06
1.152576288144071981e+02 8.198224777120272018e-06
1.161580790395197482e+02 8.192910113727088522e-06
1.170585292646323126e+02 8.184988613862423189e-06
1.179589794897448627e+02 8.152258220528864845e-06
1.188594297148574270e+02 8.131321828568584799e-06
1.197598799399699772e+02 8.156296143777291044e-06
1.206603301650825415e+02 8.207348472680913519e-06
1.215607803901950916e+02 8.264205685881830524e-06
1.224612306153076418e+02 8.352814724365597565e-06
1.233616808404202061e+02 8.534231960952687031e-06
1.242621310655327562e+02 8.869135670767481662e-06
1.251625812906453206e+02 9.348799535191174354e-06
1.260630315157578707e+02 9.840387427779422006e-06
1.269634817408704350e+02 1.018626491497068428e-05
1.278639319659829852e+02 1.038285776924154897e-05
1.287643821910955353e+02 1.049525236496018947e-05
1.296648324162080996e+02 1.053442958972864058e-05
1.305652826413206640e+02 1.048220900039518219e-05
1.314657328664331999e+02 1.034258788872101137e-05
1.323661830915457642e+02 1.017330091730146528e-05
1.332666333166583286e+02 1.004048474658655188e-05
1.341670835417708929e+02 9.947592044868018820e-06
1.350675337668834288e+02 9.868632528436645582e-06
1.359679839919959932e+02 9.820105306429479359e-06
1.368684342171085575e+02 9.839657051258948297e-06
1.377688844422210934e+02 9.947193471525602533e-06
1.386693346673336578e+02 1.012534998837430971e-05
1.395697848924462221e+02 1.037755804174519429e-05
1.404702351175587864e+02 1.074130085073339362e-05
1.413706853426713224e+02 1.117112347839753915e-05
1.422711355677838867e+02 1.148287513037616986e-05
1.431715857928964510e+02 1.149040638978267572e-05
1.440720360180089870e+02 1.122793896728234923e-05
1.449724862431215513e+02 1.091712068674898117e-05
1.458729364682341156e+02 1.069259829254997517e-05
1.467733866933466800e+02 1.052430472457862680e-05
1.476738369184592159e+02 1.033180784687757674e-05
1.485742871435717802e+02 1.010919281288713942e-05
1.494747373686843446e+02 9.933609981906036158e-06
1.503751875937968805e+02 9.880032085036506785e-06
1.512756378189094448e+02 9.952702110190794855e-06
1.521760880440220092e+02 1.012530810814384191e-05
1.530765382691345735e+02 1.039278446986487076e-05
1.539769884942471094e+02 1.075564784951294560e-05
1.548774387193596738e+02 1.116688084110196501e-05
1.557778889444722381e+02 1.150468795584791871e-05
1.566783391695847740e+02 1.169149464052212703e-05
1.575787893946973384e+02 1.180142826658777229e-05
1.584792396198099027e+02 1.190843192329131417e-05
1.593796898449224670e+02 1.198663113483589976e-05
1.602801400700350030e+02 1.201491082760040865e-05
1.611805902951475673e+02 1.201560742523963995e-05
1.620810405202601316e+02 1.199450280327278802e-05
1.629814907453726676e+02 1.193586156584907150e-05
1.638819409704852319e+02 1.183199106081207816e-05
1.647823911955977962e+02 1.171597304302900990e-05
1.656828414207103606e+02 1.160905080028218033e-05
1.665832916458228965e+02 1.147022376207333728e-05
1.674837418709354608e+02 1.128620843600024918e-05
1.683841920960480252e+02 1.114991956291802044e-05
1.692846423211605611e+02 1.114368019056398339e-05
1.701850925462731254e+02 1.124796258584400972e-05
1.710855427713856898e+02 1.139881280566436923e-05
1.719859929964982541e+02 1.157097378280219083e-05
1.728864432216107900e+02 1.176703528909517236e-05
1.737868934467233544e+02 1.195270499309663093e-05
1.746873436718359187e+02 1.212197888573916299e-05
1.755877938969484546e+02 1.233136825572483822e-05
1.764882441220610190e+02 1.263519714560920291e-05
1.773886943471735833e+02 1.301136407581958471e-05
1.782891445722861476e+02 1.340237900662065161e-05
1.791895947973986836e+02 1.376845277754694917e-05
1.800900450225112479e+02 1.405333203903094344e-05
1.809904952476238122e+02 1.422063749074073719e-05
1.818909454727363482e+02 1.433399834358548603e-05
1.827913956978489125e+02 1.449303050436757132e-05
1.836918459229614768e+02 1.471907507567491896e-05
1.845922961480740412e+02 1.493967692638194137e-05
1.854927463731865771e+02 1.507880628816291270e-05
1.863931965982991414e+02 1.511964503656362710e-05
1.872936468234117058e+02 1.510644335565231844e-05
1.881940970485242417e+02 1.520291265498636575e-05
1.890945472736368060e+02 1.560292274207469545e-05
1.899949974987493704e+02 1.633629503460422435e-05
1.908954477238619347e+02 1.717997978410181864e-05
1.917958979489744706e+02 1.779916942050228568e-05
1.926963481740870350e+02 1.808223813865830588e-05
1.935967983991995993e+02 1.822071485772882007e-05
1.944972486243121352e+02 1.841448810036946230e-05
1.953976988494246996e+02 1.866764288319600133e-05
1.962981490745372639e+02 1.880518398842832413e-05
1.971985992996498283e+02 1.872333843215475760e-05
1.980990495247623642e+02 1.852337251069737661e-05
1.989994997498749285e+02 1.838524600353660710e-05
1.998999499749874929e+02 1.842989334349815069e-05
2.008004002001000288e+02 1.854949765878032296e-05
2.017008504252125931e+02 1.851684234497688540e-05
2.026013006503251574e+02 1.831194269559543826e-05
2.035017508754377218e+02 1.812592173556800180e-05
2.044022011005502577e+02 1.805494519106487833e-05
2.053026513256628220e+02 1.802051614147774658e-05
2.062031015507753864e+02 1.788668573475285677e-05
2.071035517758879223e+02 1.753781277254967715e-05
2.080040020010004866e+02 1.700602866829277579e-05
2.089044522261130510e+02 1.650229559644488295e-05
2.098049024512256153e+02 1.622539045757835337e-05
2.107053526763381512e+02 1.624182416999814699e-05
2.116058029014507156e+02 1.651350273764777568e-05
2.125062531265632799e+02 1.691054743304394971e-05
2.134067033516758158e+02 1.721264819724199603e-05
2.143071535767883802e+02 1.725500190986772428e-05
2.152076038019009445e+02 1.714017962124356380e-05
2.161080540270135089e+02 1.704357390077989494e-05
2.170085042521260448e+02 1.698692621139365967e-05
2.179089544772386091e+02 1.695512721747398824e-05
2.188094047023511735e+02 1.699849631414859154e-05
2.197098549274637094e+02 1.713163816803320790e-05
2.206103051525762737e+02 1.723621861030321216e-05
2.215107553776888381e+02 1.716741669606502985e-05
2.224112056028014024e+02 1.694170535538188309e-05
2.233116558279139383e+02 1.674277188678152586e-05
2.242121060530265027e+02 1.672895056191813201e-05
2.251125562781390670e+02 1.687504655486892822e-05
2.260130065032516029e+02 1.703685186210978348e-05
2.269134567283641672e+02 1.721987963801089127e-05
2.278139069534767316e+02 1.759419277511217912e-05
2.287143571785892959e+02 1.822104774816527190e-05
2.296148074037018318e+02 1.899114494862088039e-05
2.305152576288143962e+02 1.965025502975101325e-05
2.314157078539269605e+02 1.988502433548832641e-05
2.323161580790394964e+02 1.961607694919140004e-05
2.332166083041520608e+02 1.908656454890441019e-05
2.341170585292646251e+02 1.856688504736992695e-05
2.350175087543771895e+02 1.818509798062939423e-05
2.359179589794897254e+02 1.795208700802640109e-05
2.368184092046022897e+02 1.774619813102049028e-05
2.377188594297148541e+02 1.750813438611976806e-05
2.386193096548273900e+02 1.738288528844582990e-05
2.395197598799399543e+02 1.750944956367962951e-05
2.404202101050525187e+02 1.787793971970778512e-05
2.413206603301650830e+02 1.838827858191511566e-05
2.422211105552776189e+02 1.892021441028769992e-05
2.431215607803901833e+02 1.929078270573444392e-05
2.440220110055027476e+02 1.934348014861797231e-05
2.449224612306152835e+02 1.911786676597176108e-05
2.458229114557278479e+02 1.876175097085944400e-05
2.467233616808404122e+02 1.841090625165122191e-05
2.476238119059529765e+02 1.812924667119622407e-05
2.485242621310655124e+02 1.790518820560547397e-05
2.494247123561780768e+02 1.774712363374141255e-05
2.503251625812906411e+02 1.768292492020337209e-05
2.512256128064031770e+02 1.771330255671457377e-05
2.521260630315157414e+02 1.783471082441591857e-05
2.530265132566283057e+02 1.802851350434356008e-05
2.539269634817408701e+02 1.825201191055180312e-05
2.548274137068534060e+02 1.847406096230010158e-05
2.557278639319659703e+02 1.863578333794428795e-05
2.566283141570785347e+02 1.874537371564570737e-05
2.575287643821910706e+02 1.889860864424896099e-05
2.584292146073036633e+02 1.913575289712686473e-05
2.593296648324161993e+02 1.944666763448537169e-05
2.602301150575287352e+02 1.984753147375549267e-05
2.611305652826413279e+02 2.032477906265655669e-05
2.620310155077538639e+02 2.081617941985234622e-05
2.629314657328663998e+02 2.123794307703142224e-05
2.638319159579789925e+02 2.145333607433925222e-05
2.647323661830915285e+02 2.139782430235025298e-05
2.656328164082040644e+02 2.119097450592971968e-05
2.665332666333166571e+02 2.101964108943410244e-05
2.674337168584291931e+02 2.099503600316852652e-05
2.683341670835417858e+02 2.110797484980090596e-05
2.692346173086543217e+02 2.132157252428839946e-05
2.701350675337668577e+02 2.171038786297715915e-05
2.710355177588794504e+02 2.230910763267523618e-05
2.719359679839919863e+02 2.295302331663996533e-05
2.728364182091045222e+02 2.339587689945959591e-05
2.737368684342171150e+02 2.352180631660255074e-05
2.746373186593296509e+02 2.338584680372366963e-05
2.755377688844421868e+02 2.314701576111461239e-05
2.764382191095547796e+02 2.294033238243926062e-05
2.773386693346673155e+02 2.274932813445907642e-05
2.782391195597798514e+02 2.256290130174405572e-05
2.791395697848924442e+02 2.244025026195394036e-05
2.800400200100049801e+02 2.240346404655267472e-05
2.809404702351175729e+02 2.247390026606087371e-05
2.818409204602301088e+02 2.266666187528661313e-05
2.827413706853426447e+02 2.291176464144354766e-05
2.836418209104552375e+02 2.311162081563403778e-05
2.845422711355677734e+02 2.322723900747830837e-05
2.854427213606803093e+02 2.324206392888251115e-05
2.863431715857929021e+02 2.314673999205001565e-05
2.872436218109054380e+02 2.295300963048331602e-05
2.881440720360179739e+02 2.272727714694325077e-05
2.890445222611305667e+02 2.256349333705264047e-05
2.899449724862431026e+02 2.247072733489894009e-05
2.908454227113556385e+02 2.243617627294578081e-05
2.917458729364682313e+02 2.253239969990382090e-05
2.926463231615807672e+02 2.280979250621630622e-05
2.935467733866933600e+02 2.314349905862718234e-05
2.944472236118058959e+02 2.336520893971551568e-05
2.953476738369184318e+02 2.355491016766636815e-05
2.962481240620310246e+02 2.393632087517532679e-05
2.971485742871435605e+02 2.457561754479644552e-05
2.980490245122560964e+02 2.533946416468016433e-05
2.989494747373686891e+02 2.599493705104973583e-05
2.998499249624812251e+02 2.633086241436101476e-05
3.007503751875937610e+02 2.630888420750192441e-05
3.016508254127063537e+02 2.608393224995094592e-05
3.025512756378188897e+02 2.587908980279077744e-05
3.034517258629314256e+02 2.580336532446633329e-05
3.043521760880440183e+02 2.587798811893999621e-05
3.052526263131565543e+02 2.617360975116842902e-05
3.061530765382691470e+02 2.674412763420587090e-05
3.070535267633816829e+02 2.742303011807962538e-05
3.079539769884942189e+02 2.791924456610271922e-05
3.088544272136068116e+02 2.818532261507778191e-05
3.097548774387193475e+02 2.841455107527961606e-05
3.106553276638318835e+02 2.866806965039971297e-05
3.115557778889444762e+02 2.879863777247944868e-05
3.124562281140570121e+02 2.872461347712976449e-05
3.133566783391695481e+02 2.847588591181646501e-05
3.142571285642821408e+02 2.810536193118084276e-05
3.151575787893946767e+02 2.773841662525844659e-05
3.160580290145072127e+02 2.747346964601091640e-05
3.169584792396198054e+02 2.731442664890364509e-05
3.178589294647323413e+02 2.722023904769781851e-05
3.187593796898449341e+02 2.714164777946423768e-05
3.196598299149574700e+02 2.714046198484002944e-05
3.205602801400700059e+02 2.738181694968789547e-05
3.214607303651825987e+02 2.789455354920129958e-05
3.223611805902951346e+02 2.849125437461814278e-05
3.232616308154076705e+02 2.898874127468249295e-05
3.241620810405202633e+02 2.941523069228164520e-05
3.250625312656327992e+02 2.988372085714597980e-05
3.259629814907453351e+02 3.042764292413610138e-05
3.268634317158579279e+02 3.090314695437091199e-05
3.277638819409704638e+02 3.114687825710690160e-05
3.286643321660829997e+02 3.121602938424220534e-05
3.295647823911955925e+02 3.120756140151510028e-05
3.304652326163081284e+02 3.114621627587840102e-05
3.313656828414207212e+02 3.112295991174535083e-05
3.322661330665332571e+02 3.124099612879521222e-05
3.331665832916457930e+02 3.143244163738979197e-05
3.340670335167583858e+02 3.149772191941456798e-05
3.349674837418709217e+02 3.135877389913374207e-05
3.358679339669834576e+02 3.117929577049373668e-05
3.367683841920960504e+02 3.110975276540363019e-05
3.376688344172085863e+02 3.114509805460001030e-05
3.385692846423211222e+02 3.130818161322723655e-05
3.394697348674337150e+02 3.163415984725662219e-05
3.403701850925462509e+02 3.212608913169980024e-05
3.412706353176587868e+02 3.284917423791937054e-05
3.421710855427713796e+02 3.384753362687267997e-05
3.430715357678839155e+02 3.496456857729088682e-05
3.439719859929965082e+02 3.585528228926282841e-05
3.448724362181090441e+02 3.631299251922091121e-05
3.457728864432215801e+02 3.647219488851838126e-05
3.466733366683341728e+02 3.654751631705702153e-05
3.475737868934467087e+02 3.666717941654749593e-05
3.484742371185592447e+02 3.682507049997755377e-05
3.493746873436718374e+02 3.697152873693371411e-05
3.502751375687843733e+02 3.703217496133272833e-05
3.511755877938969093e+02 3.691143478225438146e-05
3.520760380190095020e+02 3.662031499213145024e-05
3.529764882441220379e+02 3.623875058947728488e-05
3.538769384692345739e+02 3.580715164828963352e-05
3.547773886943471666e+02 3.528848193046803787e-05
3.556778389194597025e+02 3.455974239277355718e-05
3.565782891445722953e+02 3.361718778238993217e-05
3.574787393696848312e+02 3.273805649239956846e-05
3.583791895947973671e+02 3.220731128604487878e-05
3.592796398199099599e+02 3.203009047546562379e-05
3.601800900450224958e+02 3.192499312734218550e-05
3.610805402701350317e+02 3.155447380413974463e-05
3.619809904952476245e+02 3.085937366033080306e-05
3.628814407203601604e+02 3.009289554751460338e-05
3.637818909454726963e+02 2.956462936317606990e-05
3.646823411705852891e+02 2.934607568456756418e-05
3.655827913956978250e+02 2.926736339299574791e-05
3.664832416208103609e+02 2.923987678789179774e-05
3.673836918459229537e+02 2.932971403476142210e-05
3.682841420710354896e+02 2.950645493968048300e-05
3.691845922961480824e+02 2.957372306505845670e-05
3.700850425212606183e+02 2.936253016034027835e-05
3.709854927463731542e+02 2.899648915274540990e-05
3.718859429714857470e+02 2.882404847771763941e-05
3.727863931965982829e+02 2.897979367917302720e-05
3.736868434217108188e+02 2.924955297981807805e-05
3.745872936468234116e+02 2.940076068842827967e-05
3.754877438719359475e+02 2.945567520849280436e-05
3.763881940970484834e+02 2.950727866421204375e-05
3.772886443221610762e+02 2.952046249342172912e-05
3.781890945472736121e+02 2.945721025192994712e-05
3.790895447723861480e+02 2.934754190073026752e-05
3.799899949974987408e+02 2.915978759907949099e-05
3.808904452226112767e+02 2.884055614105572851e-05
3.817908954477238694e+02 2.844475091769748304e-05
3.826913456728364054e+02 2.810267228422327210e-05
3.835917958979489413e+02 2.786117889773579736e-05
3.844922461230615340e+02 2.765219558402613287e-05
3.853926963481740700e+02 2.740297880932307249e-05
3.862931465732866059e+02 2.708268604456424221e-05
3.871935967983991986e+02 2.676373354110264736e-05
3.880940470235117346e+02 2.662414068053838340e-05
3.889944972486242705e+02 2.677929153744207803e-05
3.898949474737368632e+02 2.720000339344941489e-05
3.907953976988493991e+02 2.776281906462367723e-05
3.916958479239619351e+02 2.833299463427651756e-05
3.925962981490745278e+02 2.883924502140336693e-05
3.934967483741870637e+02 2.922679085473545702e-05
3.943971985992996565e+02 2.937951534872803485e-05
3.952976488244121924e+02 2.925027454348055970e-05
3.961980990495247283e+02 2.900822335870368508e-05
3.970985492746373211e+02 2.889899234157750183e-05
3.979989994997498570e+02 2.902022501796407003e-05
3.988994497248623929e+02 2.922567640769610528e-05
3.997998999499749857e+02 2.922844797437424216e-05
4.007003501750875216e+02 2.897597561126671691e-05
4.016008004002000575e+02 2.866109257425061870e-05
4.025012506253126503e+02 2.843436324099150086e-05
4.034017008504251862e+02 2.836846484448711457e-05
4.043021510755377221e+02 2.853610790112609273e-05
4.052026013006503149e+02 2.893702748096593587e-05
4.061030515257628508e+02 2.948291595603190105e-05
4.070035017508754436e+02 3.005485081158749060e-05
4.079039519759879795e+02 3.046100762221558105e-05
4.088044022011005154e+02 3.053253374480574339e-05
4.097048524262131082e+02 3.024860036120912004e-05
4.106053026513256441e+02 2.969851025306185474e-05
4.115057528764381800e+02 2.907162750626088454e-05
4.124062031015507728e+02 2.858513694881495740e-05
4.133066533266633087e+02 2.834097461943488000e-05
4.142071035517758446e+02 2.826710669576095936e-05
4.151075537768884374e+02 2.819825262521975112e-05
4.160080040020009733e+02 2.802432553678989869e-05
4.169084542271135092e+02 2.777436194039847140e-05
4.178089044522261020e+02 2.759974744310507745e-05
4.187093546773386379e+02 2.768687305747715227e-05
4.196098049024512306e+02 2.808960595044844650e-05
4.205102551275637666e+02 2.865611464329919896e-05
4.214107053526763025e+02 2.914269782141742389e-05
4.223111555777888952e+02 2.944151490344005018e-05
4.232116058029014312e+02 2.967087852375154447e-05
4.241120560280139671e+02 2.998613238056152024e-05
4.250125062531265598e+02 3.039845793053081189e-05
4.259129564782390958e+02 3.080122998598228357e-05
4.268134067033516317e+02 3.109736499489467734e-05
4.277138569284642244e+02 3.121774986987688205e-05
4.286143071535767604e+02 3.114158870527258550e-05
4.295147573786892963e+02 3.087860284518234788e-05
4.304152076038018890e+02 3.040997968438719973e-05
4.313156578289144250e+02 2.982413589622700167e-05
4.322161080540270177e+02 2.928885981327481971e-05
4.331165582791395536e+02 2.882315898209212763e-05
4.340170085042520896e+02 2.835612382061052767e-05
4.349174587293646823e+02 2.790231225764806783e-05
4.358179089544772182e+02 2.752068715029473101e-05
4.367183591795897541e+02 2.719651832616544435e-05
4.376188094047023469e+02 2.691163560592975615e-05
4.385192596298148828e+02 2.667340698256952589e-05
4.394197098549274187e+02 2.646430346490179352e-05
4.403201600800400115e+02 2.626279860616748018e-05
4.412206103051525474e+02 2.610970646373058743e-05
4.421210605302650833e+02 2.605553152468965278e-05
4.430215107553776761e+02 2.611290671238346208e-05
4.439219609804902120e+02 2.633492839369117045e-05
4.448224112056028048e+02 2.675009370120049167e-05
4.457228614307153407e+02 2.725392581794950701e-05
4.466233116558278766e+02 2.770960244548109700e-05
4.475237618809404694e+02 2.806967491698629703e-05
4.484242121060530053e+02 2.839719021620512159e-05
4.493246623311655412e+02 2.874934918290185723e-05
4.502251125562781340e+02 2.909018787002971138e-05
4.511255627813906699e+02 2.938804781265305128e-05
4.520260130065032058e+02 2.963879700298612996e-05
4.529264632316157986e+02 2.979668097596513879e-05
4.538269134567283345e+02 2.980379010421927617e-05
4.547273636818408704e+02 2.968304899694439397e-05
4.556278139069534632e+02 2.962304480304332231e-05
4.565282641320659991e+02 2.980233459975912102e-05
4.574287143571785919e+02 3.018007033940762717e-05
4.583291645822911278e+02 3.055996882765267547e-05
4.592296148074036637e+02 3.078055919443884153e-05
4.601300650325162565e+02 3.086432594486388078e-05
4.610305152576287924e+02 3.091050911939539886e-05
4.619309654827413283e+02 3.093762333040158910e-05
4.628314157078539210e+02 3.093708328765852053e-05
4.637318659329664570e+02 3.093173508064288616e-05
4.646323161580789929e+02 3.092058635795838517e-05
4.655327663831915856e+02 3.081770992567575446e-05
4.664332166083041216e+02 3.057273927922699914e-05
4.673336668334167143e+02 3.027360611682245278e-05
4.682341170585292502e+02 2.998936583481943228e-05
4.691345672836417862e+02 2.970170806335610522e-05
4.700350175087543789e+02 2.940492643470443522e-05
4.709354677338669148e+02 2.912576159618407033e-05
4.718359179589794508e+02 2.891802238367100375e-05
4.727363681840920435e+02 2.887428826795169630e-05
4.736368184092045794e+02 2.906773542591237607e-05
4.745372686343171154e+02 2.947361465453438988e-05
4.754377188594297081e+02 2.995113944398439658e-05
4.763381690845422440e+02 3.025701231692746841e-05
4.772386193096547800e+02 3.023408219163565102e-05
4.781390695347673727e+02 3.000770011997321542e-05
4.790395197598799086e+02 2.978555811265674741e-05
4.799399699849925014e+02 2.971235735509323620e-05
4.808404202101050373e+02 2.988811186001818200e-05
4.817408704352175732e+02 3.031487993515033291e-05
4.826413206603301660e+02 3.086420886927333915e-05
4.835417708854427019e+02 3.131304371514339945e-05
4.844422211105552378e+02 3.147357034504289034e-05
4.853426713356678306e+02 3.137172500205637058e-05
4.862431215607803665e+02 3.118865987837892231e-05
4.871435717858929024e+02 3.103415057294075456e-05
4.880440220110054952e+02 3.089638874532679258e-05
4.889444722361180311e+02 3.081234127814426303e-05
4.898449224612305670e+02 3.087217755470399058e-05
4.907453726863431598e+02 3.109922102088281747e-05
4.916458229114556957e+02 3.150033950492920183e-05
4.925462731365682885e+02 3.211625480089310119e-05
4.934467233616808244e+02 3.292107177543680937e-05
4.943471735867933603e+02 3.374928176428541800e-05
4.952476238119059531e+02 3.439439206872408798e-05
4.961480740370184890e+02 3.478914168824227680e-05
4.970485242621310249e+02 3.499529577489066308e-05
4.979489744872436177e+02 3.513462469501119371e-05
4.988494247123561536e+02 3.535055768072374284e-05
4.997498749374686895e+02 3.566462366362647556e-05
5.006503251625812823e+02 3.600153762914055748e-05
5.015507753876938182e+02 3.627872613307939268e-05
5.024512256128063541e+02 3.641254620784101090e-05
5.033516758379189469e+02 3.649379561020720994e-05
5.042521260630314828e+02 3.669659116319902279e-05
5.051525762881440755e+02 3.695202460593072468e-05
5.060530265132566115e+02 3.708301605949884103e-05
5.069534767383691474e+02 3.709798490961460009e-05
5.078539269634817401e+02 3.714586729784277388e-05
5.087543771885942760e+02 3.736622319273242437e-05
5.096548274137068120e+02 3.777128019880864870e-05
5.105552776388194047e+02 3.829113690186889990e-05
5.114557278639319406e+02 3.883950833763925387e-05
5.123561780890445334e+02 3.933330172774613862e-05
5.132566283141570693e+02 3.969023286342053005e-05
5.141570785392696052e+02 3.982003635258715441e-05
5.150575287643821412e+02 3.974649891185427558e-05
5.159579789894946771e+02 3.962237789207719620e-05
5.168584292146073267e+02 3.954056588584484709e-05
5.177588794397198626e+02 3.948051511145366947e-05
5.186593296648323985e+02 3.940014826353061889e-05
5.195597798899449344e+02 3.922527289000402175e-05
5.204602301150574704e+02 3.894394219671014069e-05
5.213606803401700063e+02 3.864369424138805334e-05
5.222611305652826559e+02 3.844860474950094627e-05
5.231615807903951918e+02 3.846312496477537879e-05
5.240620310155077277e+02 3.871402208999142561e-05
5.249624812406202636e+02 3.921844268572718983e-05
5.258629314657327996e+02 3.997128468375469966e-05
5.267633816908454492e+02 4.087386096754660526e-05
5.276638319159579851e+02 4.176907679980625322e-05
5.285642821410705210e+02 4.263494849908796577e-05
5.294647323661830569e+02 4.361136935111341437e-05
5.303651825912955928e+02 4.463676639711927418e-05
5.312656328164081287e+02 4.535174755013086716e-05
5.321660830415207784e+02 4.556890775581508404e-05
5.330665332666333143e+02 4.542951618269564168e-05
5.339669834917458502e+02 4.518589026310055256e-05
5.348674337168583861e+02 4.507122613398982530e-05
5.357678839419709220e+02 4.508163400356267325e-05
5.366683341670835716e+02 4.508067858341020210e-05
5.375687843921961075e+02 4.506123196485366451e-05
5.384692346173086435e+02 4.507675401892187168e-05
5.393696848424211794e+02 4.518882708075794123e-05
5.402701350675337153e+02 4.542424106840828161e-05
5.411705852926462512e+02 4.569864704972155067e-05
5.420710355177589008e+02 4.592822323855567728e-05
5.429714857428714367e+02 4.621582337781619516e-05
5.438719359679839727e+02 4.680581721796317143e-05
5.447723861930965086e+02 4.777649666466635538e-05
5.456728364182090445e+02 4.894059348079662046e-05
5.465732866433215804e+02 5.013343619264093556e-05
5.474737368684342300e+02 5.137419877711430909e-05
5.483741870935467659e+02 5.267066711687211540e-05
5.492746373186593019e+02 5.387022565014822924e-05
5.501750875437718378e+02 5.473379193084869685e-05
5.510755377688843737e+02 5.502427412155450992e-05
5.519759879939970233e+02 5.475732438528937935e-05
5.528764382191095592e+02 5.439915251667248078e-05
5.537768884442220951e+02 5.441705853319602854e-05
5.546773386693346310e+02 5.474360938302257968e-05
5.555777888944471670e+02 5.510185196416550929e-05
5.564782391195597029e+02 5.546122874521626674e-05
5.573786893446723525e+02 5.595098289284104222e-05
5.582791395697848884e+02 5.659451743960222035e-05
5.591795897948974243e+02 5.731909273489328932e-05
5.600800400200099602e+02 5.800129085980491910e-05
5.609804902451224962e+02 5.850829784757290229e-05
5.618809404702351458e+02 5.878136454989299741e-05
5.627813906953476817e+02 5.878636093748280559e-05
5.636818409204602176e+02 5.841120482712410021e-05
5.645822911455727535e+02 5.761500102289401226e-05
5.654827413706852894e+02 5.652121145829097789e-05
5.663831915957978254e+02 5.538214370727611305e-05
5.672836418209104750e+02 5.448429358547091832e-05
5.681840920460230109e+02 5.396259778446263272e-05
5.690845422711355468e+02 5.376022234680192700e-05
5.699849924962480827e+02 5.377539081312962630e-05
5.708854427213606186e+02 5.394387327477146040e-05
5.717858929464731546e+02 5.420749574804194682e-05
5.726863431715858042e+02 5.451738388952066301e-05
5.735867933966983401e+02 5.483482965666629531e-05
5.744872436218108760e+02 5.508025030764082658e-05
5.753876938469234119e+02 5.524138883444089772e-05
5.762881440720359478e+02 5.526104564952443523e-05
5.771885942971485974e+02 5.491798959345854539e-05
5.780890445222611334e+02 5.415153714549875185e-05
5.789894947473736693e+02 5.312492811396046338e-05
5.798899449724862052e+02 5.210127398092589978e-05
5.807903951975987411e+02 5.137368568883261529e-05
5.816908454227112770e+02 5.104671040919333050e-05
5.825912956478239266e+02 5.092299352925815689e-05
5.834917458729364625e+02 5.066524107097897185e-05
5.843921960980489985e+02 5.016110754729851670e-05
5.852926463231615344e+02 4.957585228389096239e-05
5.861930965482740703e+02 4.906136379201581581e-05
5.870935467733867199e+02 4.858277018280935072e-05
5.879939969984992558e+02 4.803251900003904139e-05
5.888944472236117917e+02 4.739395789008772305e-05
5.897948974487243277e+02 4.673519859115006107e-05
5.906953476738368636e+02 4.614107565304230668e-05
5.915957978989493995e+02 4.561870479601450799e-05
5.924962481240620491e+02 4.515103827013565858e-05
5.933966983491745850e+02 4.479802512389392566e-05
5.942971485742871209e+02 4.463232198442219987e-05
5.951975987993996569e+02 4.466913046042488163e-05
5.960980490245121928e+02 4.482270416548130791e-05
5.969984992496247287e+02 4.496542790404195971e-05
5.978989494747373783e+02 4.504283423519009019e-05
5.987993996998499142e+02 4.500628838742878082e-05
5.996998499249624501e+02 4.472533784774040754e-05
6.006003001500749860e+02 4.417212243627067933e-05
6.015007503751875220e+02 4.352814908155257093e-05
6.024012006003001716e+02 4.308966480844099792e-05
6.033016508254127075e+02 4.294660847244042749e-05
6.042021010505252434e+02 4.286619982862670134e-05
6.051025512756377793e+02 4.266240836304245664e-05
6.060030015007503152e+02 4.241343978745333706e-05
6.069034517258628512e+02 4.219224420691261817e-05
6.078039019509755008e+02 4.193364296524873058e-05
6.087043521760880367e+02 4.164413379829052462e-05
6.096048024012005726e+02 4.139161506115672707e-05
6.105052526263131085e+02 4.116367915427801468e-05
6.114057028514256444e+02 4.092511640173623704e-05
6.123061530765382940e+02 4.066648057401335033e-05
6.132066033016508300e+02 4.038197161627346559e-05
6.141070535267633659e+02 4.004682947440847994e-05
6.150075037518759018e+02 3.973011855079109224e-05
6.159079539769884377e+02 3.955449620234392425e-05
6.168084042021009736e+02 3.953314836547302657e-05
6.177088544272136232e+02 3.960578059317764539e-05
6.186093046523261592e+02 3.975405776735651029e-05
6.195097548774386951e+02 3.998522370114447919e-05
6.204102051025512310e+02 4.022704937645654310e-05
6.213106553276637669e+02 4.029951018035443270e-05
6.222111055527763028e+02 4.000096758773454762e-05
6.231115557778889524e+02 3.932334356387163653e-05
6.240120060030014884e+02 3.858269194035947899e-05
6.249124562281140243e+02 3.809227223333687336e-05
6.258129064532265602e+02 3.786418304847134785e-05
6.267133566783390961e+02 3.773216057680895406e-05
6.276138069034517457e+02 3.755694271860690386e-05
6.285142571285642816e+02 3.742788511212902236e-05
6.294147073536768175e+02 3.753018383956727551e-05
6.303151575787893535e+02 3.780028774363048105e-05
6.312156078039018894e+02 3.798750226535866525e-05
6.321160580290144253e+02 3.795096956584894738e-05
6.330165082541270749e+02 3.777418824068018573e-05
6.339169584792396108e+02 3.763444861491665777e-05
6.348174087043521467e+02 3.763512735375273478e-05
6.357178589294646827e+02 3.781663667764152128e-05
6.366183091545772186e+02 3.819937291989277891e-05
6.375187593796898682e+02 3.872993637624961107e-05
6.384192096048024041e+02 3.929941856044505627e-05
6.393196598299149400e+02 3.989048488012715121e-05
6.402201100550274759e+02 4.051796728237076956e-05
6.411205602801400119e+02 4.105056744898969459e-05
6.420210105052525478e+02 4.129171228455153262e-05
6.429214607303651974e+02 4.122778582363258892e-05
6.438219109554777333e+02 4.095677599334498575e-05
6.447223611805902692e+02 4.055059377478877384e-05
6.456228114057028051e+02 4.016699889856497962e-05
6.465232616308153411e+02 3.992488781306560366e-05
6.474237118559278770e+02 3.970042654580299430e-05
6.483241620810405266e+02 3.934695197098272805e-05
6.492246123061530625e+02 3.897296768169706681e-05
6.501250625312655984e+02 3.868199559872098289e-05
6.510255127563781343e+02 3.836988128495450904e-05
6.519259629814906702e+02 3.804090803523981526e-05
6.528264132066033198e+02 3.789103734912029742e-05
6.537268634317158558e+02 3.789977758700594467e-05
6.546273136568283917e+02 3.780634134200326391e-05
6.555277638819409276e+02 3.750927071455609452e-05
6.564282141070534635e+02 3.726027846067633028e-05
6.573286643321659994e+02 3.733004677870597327e-05
6.582291145572786490e+02 3.768220654275027218e-05
6.591295647823911850e+02 3.806138002327679723e-05
6.600300150075037209e+02 3.824362645772353195e-05
6.609304652326162568e+02 3.816176420689789328e-05
6.618309154577287927e+02 3.784187890694394759e-05
6.627313656828414423e+02 3.740984802687926937e-05
6.636318159079539782e+02 3.708238838242135195e-05
6.645322661330665142e+02 3.695868032390224231e-05
6.654327163581790501e+02 3.698520956745914273e-05
6.663331665832915860e+02 3.714189238468566004e-05
6.672336168084041219e+02 3.745520624150962182e-05
6.681340670335167715e+02 3.792765460816009508e-05
6.690345172586293074e+02 3.846874336351592321e-05
6.699349674837418434e+02 3.887647760022024172e-05
6.708354177088543793e+02 3.898489047052569703e-05
6.717358679339669152e+02 3.883839924140725086e-05
6.726363181590794511e+02 3.859908303665984477e-05
6.735367683841921007e+02 3.832899283056442777e-05
6.744372186093046366e+02 3.798281418003731703e-05
6.753376688344171725e+02 3.752137092015618439e-05
6.762381190595297085e+02 3.701371426114744657e-05
6.771385692846422444e+02 3.659380064993862126e-05
6.780390195097548940e+02 3.629747663609876206e-05
6.789394697348674299e+02 3.605389449779761824e-05
6.798399199599799658e+02 3.573972514372919333e-05
6.807403701850925017e+02 3.520472781693293938e-05
6.816408204102050377e+02 3.451530946300221143e-05
6.825412706353175736e+02 3.394448485247437795e-05
6.834417208604302232e+02 3.364499990449692059e-05
6.843421710855427591e+02 3.351180585306357137e-05
6.852426213106552950e+02 3.336307884638827956e-05
6.861430715357678309e+02 3.314969285573126772e-05
6.870435217608803669e+02 3.294314424544185732e-05
6.879439719859930165e+02 3.275467864378192969e-05
6.888444222111055524e+02 3.252759852508280310e-05
6.897448724362180883e+02 3.224302349438284043e-05
6.906453226613306242e+02 3.197080837886250005e-05
6.915457728864431601e+02 3.184327646679861197e-05
6.924462231115556961e+02 3.195029504769622639e-05
6.933466733366683457e+02 3.224117329736883770e-05
6.942471235617808816e+02 3.256598579991774775e-05
6.951475737868934175e+02 3.282887525844148022e-05
6.960480240120059534e+02 3.305737400975199386e-05
6.969484742371184893e+02 3.338603071688983544e-05
6.978489244622311389e+02 3.392214918485983726e-05
6.987493746873436749e+02 3.464099722464966593e-05
6.996498249124562108e+02 3.540344189544838765e-05
7.005502751375687467e+02 3.605361011718026981e-05
7.014507253626812826e+02 3.648737397367464414e-05
7.023511755877938185e+02 3.668737843155025276e-05
7.032516258129064681e+02 3.672500526484780072e-05
7.041520760380190040e+02 3.664016254732386228e-05
7.050525262631315400e+02 3.645680096570066362e-05
7.059529764882440759e+02 3.628368933503580784e-05
7.068534267133566118e+02 3.619382905620617731e-05
7.077538769384691477e+02 3.616335769116846554e-05
7.086543271635817973e+02 3.625665731657409547e-05
7.095547773886943332e+02 3.657328593996918195e-05
7.104552276138068692e+02 3.707031369615812954e-05
7.113556778389194051e+02 3.761552757323804427e-05
7.122561280640319410e+02 3.805994199028869899e-05
7.131565782891445906e+02 3.819612187434901700e-05
7.140570285142571265e+02 3.787404771064931163e-05
7.149574787393696624e+02 3.728450516326948226e-05
7.158579289644821984e+02 3.678903708199986796e-05
7.167583791895947343e+02 3.654625053477167894e-05
7.176588294147072702e+02 3.652188260394196310e-05
7.185592796398199198e+02 3.666280423675156514e-05
7.194597298649324557e+02 3.691200402467287637e-05
7.203601800900449916e+02 3.718083861458874162e-05
7.212606303151575275e+02 3.740247503272733855e-05
7.221610805402700635e+02 3.746059381306441135e-05
7.230615307653827131e+02 3.717888672073924971e-05
7.239619809904952490e+02 3.655071375766087921e-05
7.248624312156077849e+02 3.583930821995445570e-05
7.257628814407203208e+02 3.529169214252773803e-05
7.266633316658328567e+02 3.497192772915316453e-05
7.275637818909453927e+02 3.488621197637902020e-05
7.284642321160580423e+02 3.508195298115287180e-05
7.293646823411705782e+02 3.550803745228234347e-05
7.302651325662831141e+02 3.591289792244589462e-05
7.311655827913956500e+02 3.615670913504625433e-05
7.320660330165081859e+02 3.634674980627391447e-05
7.329664832416207219e+02 3.658917687818015761e-05
7.338669334667333715e+02 3.685469396856439313e-05
7.347673836918459074e+02 3.710135818268456477e-05
7.356678339169584433e+02 3.734167064530517283e-05
7.365682841420709792e+02 3.757779778878109190e-05
7.374687343671835151e+02 3.779047113782650163e-05
7.383691845922961647e+02 3.802223676153290802e-05
7.392696348174087007e+02 3.835792432648575255e-05
7.401700850425212366e+02 3.872479027794463739e-05
7.410705352676337725e+02 3.889786948325787096e-05
7.419709854927463084e+02 3.872561770411156072e-05
7.428714357178588443e+02 3.828877671491850060e-05
7.437718859429714939e+02 3.791091686995904622e-05
7.446723361680840299e+02 3.788633278114191308e-05
7.455727863931965658e+02 3.815615270915014690e-05
7.464732366183091017e+02 3.843456484056895537e-05
7.473736868434216376e+02 3.859866744840258283e-05
7.482741370685342872e+02 3.875364075526276569e-05
7.491745872936468231e+02 3.902037544247229334e-05
7.500750375187593590e+02 3.940711700943511764e-05
7.509754877438718950e+02 3.979787529284986320e-05
7.518759379689844309e+02 3.999422161323624281e-05
7.527763881940969668e+02 3.991044381029989395e-05
7.536768384192096164e+02 3.971115894087943272e-05
7.545772886443221523e+02 3.962681684579367222e-05
7.554777388694346882e+02 3.974858461656724626e-05
7.563781890945472242e+02 3.999711170380870225e-05
7.572786393196597601e+02 4.018705428394931772e-05
7.581790895447722960e+02 4.020592737673600397e-05
7.590795397698849456e+02 4.007936850366452034e-05
7.599799899949974815e+02 3.983839395867168180e-05
7.608804402201100174e+02 3.954797322432378859e-05
7.617808904452225534e+02 3.929939356948928609e-05
7.626813406703350893e+02 3.915687086263339921e-05
7.635817908954477389e+02 3.917346686716849987e-05
7.644822411205602748e+02 3.937185658097743998e-05
7.653826913456728107e+02 3.965412005949589752e-05
7.662831415707853466e+02 3.988969761177813548e-05
7.671835917958978825e+02 4.008086566031341974e-05
7.680840420210104185e+02 4.025011748536709311e-05
7.689844922461230681e+02 4.038524143690933136e-05
7.698849424712356040e+02 4.056321632043463269e-05
7.707853926963481399e+02 4.084729147238305773e-05
7.716858429214606758e+02 4.115921237813466082e-05
7.725862931465732117e+02 4.137621654952775843e-05
7.734867433716858613e+02 4.150190737266605241e-05
7.743871935967983973e+02 4.166799845155639756e-05
7.752876438219109332e+02 4.195736406066708212e-05
7.761880940470234691e+02 4.235955964329521253e-05
7.770885442721360050e+02 4.276883861324185220e-05
7.779889944972485409e+02 4.300229234118315477e-05
7.788894447223611905e+02 4.297579683590075760e-05
7.797898949474737265e+02 4.275821151620426354e-05
7.806903451725862624e+02 4.246728328851170648e-05
7.815907953976987983e+02 4.220764484069411784e-05
7.824912456228113342e+02 4.194691933668392964e-05
7.833916958479238701e+02 4.163761697484109783e-05
7.842921460730365197e+02 4.140952933933045500e-05
7.851925962981490557e+02 4.133762349236236799e-05
7.860930465232615916e+02 4.126533510373035356e-05
7.869934967483741275e+02 4.104426277657497683e-05
7.878939469734866634e+02 4.082860960722293282e-05
7.887943971985993130e+02 4.093957630902176080e-05
7.896948474237118489e+02 4.151798791177396141e-05
7.905952976488243849e+02 4.241609168202440094e-05
7.914957478739369208e+02 4.336242529654953332e-05
7.923961980990494567e+02 4.424845799568448239e-05
7.932966483241619926e+02 4.516809408332976881e-05
7.941970985492746422e+02 4.605061660314197311e-05
7.950975487743871781e+02 4.652626661823736342e-05
7.959979989994997140e+02 4.639874568616998262e-05
7.968984492246122500e+02 4.586532339988169199e-05
7.977988994497247859e+02 4.516890786072429935e-05
7.986993496748374355e+02 4.444164334057479311e-05
7.995997998999499714e+02 4.371098764846563571e-05
8.005002501250625073e+02 4.288367110276393256e-05
8.014007003501750432e+02 4.190491183176887414e-05
8.023011505752875792e+02 4.095298091834051522e-05
8.032016008004001151e+02 4.029051837025631497e-05
8.041020510255127647e+02 4.003063254822492110e-05
8.050025012506253006e+02 4.013510854751411116e-05
8.059029514757378365e+02 4.049585080602611332e-05
8.068034017008503724e+02 4.102007705180354665e-05
8.077038519259629084e+02 4.169950687781877904e-05
8.086043021510754443e+02 4.249489005727755846e-05
8.095047523761880939e+02 4.312095755647895386e-05
8.104052026013006298e+02 4.325049533457129381e-05
8.113056528264131657e+02 4.306203490211989258e-05
8.122061030515257016e+02 4.297339438890481123e-05
8.131065532766382375e+02 4.304516878213821419e-05
8.140070035017508872e+02 4.311328949896134854e-05
8.149074537268634231e+02 4.318902615097731462e-05
8.158079039519759590e+02 4.335874536980451375e-05
8.167083541770884949e+02 4.358486108691254305e-05
8.176088044022010308e+02 4.375124052101968123e-05
8.185092546273135667e+02 4.368268612086899551e-05
8.194097048524262163e+02 4.332828437318692727e-05
8.203101550775387523e+02 4.291520253254928966e-05
8.212106053026512882e+02 4.264205522605630860e-05
8.221110555277638241e+02 4.256712362942557932e-05
8.230115057528763600e+02 4.276006403539665200e-05
8.239119559779890096e+02 4.327085386007751633e-05
8.248124062031015455e+02 4.399995680356052471e-05
8.257128564282140815e+02 4.474367141058911495e-05
8.266133066533266174e+02 4.540841208127201504e-05
8.275137568784391533e+02 4.603436016278306776e-05
8.284142071035516892e+02 4.660893685103097535e-05
8.293146573286643388e+02 4.696652062135875844e-05
8.302151075537768747e+02 4.691504757446301251e-05
8.311155577788894107e+02 4.650960833124338903e-05
8.320160080040019466e+02 4.605553209518430487e-05
8.329164582291144825e+02 4.575011493931619675e-05
8.338169084542270184e+02 4.553122632606001352e-05
8.347173586793396680e+02 4.539410550135941809e-05
8.356178089044522039e+02 4.547760502024080783e-05
8.365182591295647399e+02 4.575744505115966494e-05
8.374187093546772758e+02 4.591915477493422096e-05
8.383191595797898117e+02 4.563963367008814354e-05
8.392196098049024613e+02 4.504881707540476479e-05
8.401200600300149972e+02 4.466700983521328252e-05
8.410205102551275331e+02 4.480756772001094878e-05
8.419209604802400690e+02 4.541445767577336075e-05
8.428214107053526050e+02 4.621432134772519179e-05
8.437218609304651409e+02 4.687131801441140727e-05
8.446223111555777905e+02 4.733272381197551861e-05
8.455227613806903264e+02 4.783673459475689814e-05
8.464232116058028623e+02 4.856353467263961377e-05
8.473236618309153982e+02 4.932722129223101709e-05
8.482241120560279342e+02 4.971527008167794321e-05
8.491245622811405838e+02 4.971790498655967504e-05
8.500250125062531197e+02 4.977189498519596128e-05
8.509254627313656556e+02 5.006925750107801436e-05
8.518259129564781915e+02 5.041595720357232963e-05
8.527263631815907274e+02 5.057730614077690038e-05
8.536268134067032634e+02 5.040529940575031733e-05
8.545272636318159130e+02 4.988230505980625418e-05
8.554277138569284489e+02 4.920539945926885220e-05
8.563281640820409848e+02 4.862956413884209766e-05
8.572286143071535207e+02 4.811469813876540619e-05
8.581290645322660566e+02 4.750138638759349527e-05
8.590295147573785925e+02 4.683187740435785389e-05
8.599299649824912422e+02 4.621531176150755072e-05
8.608304152076037781e+02 4.586614667094752708e-05
8.617308654327163140e+02 4.599506971987389939e-05
8.626313156578288499e+02 4.649678613669669115e-05
8.635317658829413858e+02 4.705756024659188955e-05
8.644322161080540354e+02 4.731064802131228268e-05
8.653326663331665713e+02 4.697264925855155441e-05
8.662331165582791073e+02 4.606667339017680627e-05
8.671335667833916432e+02 4.494984564788897336e-05
8.680340170085041791e+02 4.408835220012632462e-05
8.689344672336167150e+02 4.371706476449513303e-05
8.698349174587293646e+02 4.383910133262098978e-05
8.707353676838419005e+02 4.434827424634298418e-05
8.716358179089544365e+02 4.509705285658920782e-05
8.725362681340669724e+02 4.589936268555455814e-05
8.734367183591795083e+02 4.646357776543778628e-05
8.743371685842921579e+02 4.654346109344675419e-05
8.752376188094046938e+02 4.626578112927187274e-05
8.761380690345172297e+02 4.598224865579387990e-05
8.770385192596297657e+02 4.588570798362684840e-05
8.779389694847423016e+02 4.603056116075248706e-05
8.788394197098548375e+02 4.647221842243133083e-05
8.797398699349674871e+02 4.712265521870191362e-05
8.806403201600800230e+02 4.772530550333921426e-05
8.815407703851925589e+02 4.814693334905836261e-05
8.824412206103050949e+02 4.841434519440204862e-05
8.833416708354176308e+02 4.858227323827657868e-05
8.842421210605301667e+02 4.879063528239666037e-05
8.851425712856428163e+02 4.923886393949012991e-05
8.860430215107553522e+02 5.006975593563034704e-05
8.869434717358678881e+02 5.120654687351622271e-05
8.878439219609804240e+02 5.237614228524586977e-05
8.887443721860929600e+02 5.335503655816898114e-05
8.896448224112056096e+02 5.412426800752939644e-05
8.905452726363181455e+02 5.475139957808735172e-05
8.914457228614306814e+02 5.533668037880449126e-05
8.923461730865432173e+02 5.591386448495478360e-05
8.932466233116557532e+02 5.634280262586626570e-05
8.941470735367682892e+02 5.651784217817641394e-05
8.950475237618809388e+02 5.641380645676668582e-05
8.959479739869934747e+02 5.621438344391718273e-05
8.968484242121060106e+02 5.634687520982057692e-05
8.977488744372185465e+02 5.700914289465851747e-05
8.986493246623310824e+02 5.795093552299342919e-05
8.995497748874437320e+02 5.881767264972431432e-05
9.004502251125562680e+02 5.944283141621045966e-05
9.013506753376688039e+02 5.980833406526936478e-05
9.022511255627813398e+02 5.984355116058474476e-05
9.031515757878938757e+02 5.939007622645450253e-05
9.040520260130064116e+02 5.854042270119769870e-05
9.049524762381190612e+02 5.767196369750095410e-05
9.058529264632315972e+02 5.727403025682462772e-05
9.067533766883441331e+02 5.756598145360786672e-05
9.076538269134566690e+02 5.822892411030407929e-05
9.085542771385692049e+02 5.873231920900779757e-05
9.094547273636817408e+02 5.886399470712672078e-05
9.103551775887943904e+02 5.889744206410291589e-05
9.112556278139069263e+02 5.914451803041069716e-05
9.121560780390194623e+02 5.967201125576242920e-05
9.130565282641319982e+02 6.039260468575452599e-05
9.139569784892445341e+02 6.131202810857640511e-05
9.148574287143571837e+02 6.251542792150983875e-05
9.157578789394697196e+02 6.396003586030504545e-05
9.166583291645822555e+02 6.548592699729035833e-05
9.175587793896947915e+02 6.705386608114368840e-05
9.184592296148073274e+02 6.881515841928429367e-05
9.193596798399198633e+02 7.078541264295389870e-05
9.202601300650325129e+02 7.268889909789692913e-05
9.211605802901450488e+02 7.422529074114185684e-05
9.220610305152575847e+02 7.539403122092447665e-05
9.229614807403701207e+02 7.649597185974343027e-05
9.238619309654826566e+02 7.778457890461983786e-05
9.247623811905953062e+02 7.923512615777127815e-05
9.256628314157078421e+02 8.056576661735246974e-05
9.265632816408203780e+02 8.131605685039261728e-05
9.274637318659329139e+02 8.141565202773348752e-05
9.283641820910454499e+02 8.143105486674557354e-05
9.292646323161579858e+02 8.161616506578365908e-05
9.301650825412706354e+02 8.156423236118746781e-05
9.310655327663831713e+02 8.106145244957689751e-05
9.319659829914957072e+02 8.031893056919120206e-05
9.328664332166082431e+02 7.959593760189927712e-05
9.337668834417207790e+02 7.934652562376218936e-05
9.346673336668334287e+02 7.990942667478867761e-05
9.355677838919459646e+02 8.097023995105076099e-05
9.364682341170585005e+02 8.184978101666722818e-05
9.373686843421710364e+02 8.231984707106062909e-05
9.382691345672835723e+02 8.279083310240867245e-05
9.391695847923961082e+02 8.368071546485046273e-05
9.400700350175087578e+02 8.506198837783491640e-05
9.409704852426212938e+02 8.699444852117236551e-05
9.418709354677338297e+02 8.957788943502176780e-05
9.427713856928463656e+02 9.235718953029598184e-05
9.436718359179589015e+02 9.449116109666485771e-05
9.445722861430714374e+02 9.550755084576753769e-05
9.454727363681840870e+02 9.554758648738958984e-05
9.463731865932966230e+02 9.512240208256006555e-05
9.472736368184091589e+02 9.460964518027127038e-05
9.481740870435216948e+02 9.411639696993580979e-05
9.490745372686342307e+02 9.366789731137329918e-05
9.499749874937468803e+02 9.335631849714268670e-05
9.508754377188594162e+02 9.338372832844847886e-05
9.517758879439719522e+02 9.374177434187127254e-05
9.526763381690844881e+02 9.415086699532684790e-05
9.535767883941970240e+02 9.458473796445992718e-05
9.544772386193095599e+02 9.536628035283927266e-05
9.553776888444222095e+02 9.672374294372681851e-05
9.562781390695347454e+02 9.847393352946804670e-05
9.571785892946472813e+02 1.002660342451414501e-04
9.580790395197598173e+02 1.017788984647970005e-04
9.589794897448723532e+02 1.027513039250927134e-04
9.598799399699850028e+02 1.032158578785718984e-04
9.607803901950975387e+02 1.033451890574674020e-04
9.616808404202100746e+02 1.032070270141729112e-04
9.625812906453226105e+02 1.031588128072336052e-04
9.634817408704351465e+02 1.035948721722035836e-04
9.643821910955476824e+02 1.042077195448681332e-04
9.652826413206603320e+02 1.044370194251324177e-04
9.661830915457728679e+02 1.043517506722485278e-04
9.670835417708854038e+02 1.045766550628196985e-04
9.679839919959979397e+02 1.056349110570325078e-04
9.688844422211104757e+02 1.073799918852406661e-04
9.697848924462230116e+02 1.090506079207978973e-04
9.706853426713356612e+02 1.101073153966375124e-04
9.715857928964481971e+02 1.108110025472947658e-04
9.724862431215607330e+02 1.117496864176483379e-04
9.733866933466732689e+02 1.131116916702350520e-04
9.742871435717858049e+02 1.146056870188260566e-04
9.751875937968984545e+02 1.157990361830552706e-04
9.760880440220109904e+02 1.163495562203091576e-04
9.769884942471235263e+02 1.164593284613834082e-04
9.778889444722360622e+02 1.166914895177013694e-04
9.787893946973485981e+02 1.173610639312579689e-04
9.796898449224611340e+02 1.182464226874340509e-04
9.805902951475737837e+02 1.189546927170085646e-04
9.814907453726863196e+02 1.196445170310682767e-04
9.823911955977988555e+02 1.206874804981024796e-04
9.832916458229113914e+02 1.220340088415771464e-04
9.841920960480239273e+02 1.236401700919753915e-04
9.850925462731365769e+02 1.254135729666461339e-04
9.859929964982491128e+02 1.267724143019872875e-04
9.868934467233616488e+02 1.270840401101655331e-04
9.877938969484741847e+02 1.264131284833352152e-04
9.886943471735867206e+02 1.255613322834218601e-04
9.895947973986992565e+02 1.253502757391488644e-04
9.904952476238119061e+02 1.261014800385756938e-04
9.913956978489244420e+02 1.276705173729043407e-04
9.922961480740369780e+02 1.297424698292795858e-04
9.931965982991495139e+02 1.320885247918915698e-04
9.940970485242620498e+02 1.346761898756766197e-04
9.949974987493745857e+02 1.375179965639487453e-04
9.958979489744872353e+02 1.401973194457753870e-04
9.967983991995997712e+02 1.421782931750529666e-04
9.976988494247123072e+02 1.437708003181788761e-04
9.985992996498248431e+02 1.458853082464445130e-04
9.994997498749373790e+02 1.488086817313748319e-04
1.000400200100050029e+03 1.518501851842121535e-04
1.001300650325162565e+03 1.544591723778177689e-04
1.002201100550275100e+03 1.565839699260156582e-04
1.003101550775387636e+03 1.580402887589378472e-04
1.004002001000500172e+03 1.589738566222108525e-04
1.004902451225612708e+03 1.601034197421782521e-04
1.005802901450725358e+03 1.615116801260763134e-04
1.006703351675837894e+03 1.623931451715771403e-04
1.007603801900950430e+03 1.623868736127176892e-04
1.008504252126062966e+03 1.621453162499252411e-04
1.009404702351175501e+03 1.628011179797508488e-04
1.010305152576288151e+03 1.646957384467538535e-04
1.011205602801400687e+03 1.669635207982462784e-04
1.012106053026513223e+03 1.688361625282037396e-04
1.013006503251625759e+03 1.703259013884520043e-04
1.013906953476738295e+03 1.714381917003368594e-04
1.014807403701850831e+03 1.720907873740753504e-04
1.015707853926963480e+03 1.726402281623712939e-04
1.016608304152076016e+03 1.735288036442746585e-04
1.017508754377188552e+03 1.747376678511927282e-04
1.018409204602301088e+03 1.755813547529913718e-04
1.019309654827413624e+03 1.753350379251583625e-04
1.020210105052526160e+03 1.741003914071303973e-04
1.021110555277638809e+03 1.725140232190954513e-04
1.022011005502751345e+03 1.711246094631322344e-04
1.022911455727863881e+03 1.702636667718862996e-04
1.023811905952976417e+03 1.698127863765403075e-04
1.024712356178089067e+03 1.695162429941405235e-04
1.025612806403201603e+03 1.694160855527136820e-04
1.026513256628314139e+03 1.699766767182102909e-04
1.027413706853426675e+03 1.715370926766171479e-04
1.028314157078539210e+03 1.738753848934126447e-04
1.029214607303651746e+03 1.765922947038086038e-04
1.030115057528764282e+03 1.791533394623192135e-04
1.031015507753876818e+03 1.809582699692322970e-04
1.031915957978989354e+03 1.819553022298439908e-04
1.032816408204101890e+03 1.828010676397664959e-04
1.033716858429214653e+03 1.841162473750506301e-04
1.034617308654327189e+03 1.858725406075454223e-04
1.035517758879439725e+03 1.876128162295461160e-04
1.036418209104552261e+03 1.897424938594762770e-04
1.037318659329664797e+03 1.933465765159819824e-04
1.038219109554777333e+03 1.983951643735141221e-04
1.039119559779889869e+03 2.036062108205456743e-04
1.040020010005002405e+03 2.073703817301182607e-04
1.040920460230114941e+03 2.089536173559899815e-04
1.041820910455227477e+03 2.089986370281707805e-04
1.042721360680340013e+03 2.084368595089825091e-04
1.043621810905452776e+03 2.081353005611166838e-04
1.044522261130565312e+03 2.090714140702604922e-04
1.045422711355677848e+03 2.116046185641117991e-04
1.046323161580790384e+03 2.148008761171902063e-04
1.047223611805902920e+03 2.169818406678052135e-04
1.048124062031015455e+03 2.172686718315277818e-04
1.049024512256127991e+03 2.160747071604982277e-04
1.049924962481240527e+03 2.146085087028990889e-04
1.050825412706353063e+03 2.146196361527652442e-04
1.051725862931465599e+03 2.172527871344295488e-04
1.052626313156578135e+03 2.216299255101565656e-04
1.053526763381690898e+03 2.258677391933789898e-04
1.054427213606803434e+03 2.287042189688398433e-04
1.055327663831915970e+03 2.295646817000823693e-04
1.056228114057028506e+03 2.282153473766342219e-04
1.057128564282141042e+03 2.252304784132311602e-04
1.058029014507253578e+03 2.218014150093028695e-04
1.058929464732366114e+03 2.188084611947730958e-04
1.059829914957478650e+03 2.163884652230917962e-04
1.060730365182591186e+03 2.142935966740467898e-04
1.061630815407703722e+03 2.123483696808243441e-04
1.062531265632816257e+03 2.106039157389778544e-04
1.063431715857929021e+03 2.093666560070285934e-04
1.064332166083041557e+03 2.087985651940208191e-04
1.065232616308154093e+03 2.087950304743518652e-04
1.066133066533266629e+03 2.089780865793300672e-04
1.067033516758379164e+03 2.090822637486516096e-04
1.067933966983491700e+03 2.090258456144387944e-04
1.068834417208604236e+03 2.085611601299150355e-04
1.069734867433716772e+03 2.077568793646339743e-04
1.070635317658829308e+03 2.072425580582827772e-04
1.071535767883941844e+03 2.077457966703996639e-04
1.072436218109054380e+03 2.094152524704406717e-04
1.073336668334167143e+03 2.114630781436854833e-04
1.074237118559279679e+03 2.132451491002831814e-04
1.075137568784392215e+03 2.148374387553454268e-04
1.076038019009504751e+03 2.163576320876192812e-04
1.076938469234617287e+03 2.176948641577856869e-04
1.077838919459729823e+03 2.188207137304139043e-04
1.078739369684842359e+03 2.199177774886191964e-04
1.079639819909954895e+03 2.212967206804268517e-04
1.080540270135067431e+03 2.233616046414663354e-04
1.081440720360179967e+03 2.263580109483603723e-04
1.082341170585292502e+03 2.299991427710809731e-04
1.083241620810405038e+03 2.337450644270461556e-04
1.084142071035517802e+03 2.371236682999705385e-04
1.085042521260630338e+03 2.395652499857504848e-04
1.085942971485742873e+03 2.401791209541285544e-04
1.086843421710855409e+03 2.384744985722709459e-04
1.087743871935967945e+03 2.348389842138003743e-04
1.088644322161080481e+03 2.303338902903604411e-04
1.089544772386193017e+03 2.264552150200789440e-04
1.090445222611305553e+03 2.245321235705688954e-04
1.091345672836418089e+03 2.249817097721555929e-04
1.092246123061530625e+03 2.269405263359418909e-04
1.093146573286643161e+03 2.292142277147395254e-04
1.094047023511755924e+03 2.315056452535071334e-04
1.094947473736868460e+03 2.337249897187833152e-04
1.095847923961980996e+03 2.354436047474459158e-04
1.096748374187093532e+03 2.363380134275552369e-04
1.097648824412206068e+03 2.365132076211447947e-04
1.098549274637318604e+03 2.363641215179045193e-04
1.099449724862431140e+03 2.363122672992987400e-04
1.100350175087543676e+03 2.365474515403702632e-04
1.101250625312656211e+03 2.371219725675693620e-04
1.102151075537768747e+03 2.383094195895040629e-04
1.103051525762881283e+03 2.401932791329616540e-04
1.103951975987994047e+03 2.425156236631038854e-04
1.104852426213106583e+03 2.446789421660357992e-04
1.105752876438219118e+03 2.454633914111525308e-04
1.106653326663331654e+03 2.445059631964067526e-04
1.107553776888444190e+03 2.427046726841175820e-04
1.108454227113556726e+03 2.410098044474952262e-04
1.109354677338669262e+03 2.399516779167706188e-04
1.110255127563781798e+03 2.393901199081128139e-04
1.111155577788894334e+03 2.390345987821784648e-04
1.112056028014006870e+03 2.395094705805627170e-04
1.112956478239119406e+03 2.417909849597060009e-04
1.113856928464232169e+03 2.459503891211446908e-04
1.114757378689344705e+03 2.512356193593864124e-04
1.115657828914457241e+03 2.563715957762876000e-04
1.116558279139569777e+03 2.604380326227572406e-04
1.117458729364682313e+03 2.639194265589452754e-04
1.118359179589794849e+03 2.682396064815878011e-04
1.119259629814907385e+03 2.738908281443214513e-04
1.120160080040019920e+03 2.799697269070890214e-04
1.121060530265132456e+03 2.854931880818031690e-04
1.121960980490244992e+03 2.904351029926572833e-04
1.122861430715357528e+03 2.952397375374679308e-04
1.123761880940470292e+03 3.005063906424612218e-04
1.124662331165582827e+03 3.068854014353464038e-04
1.125562781390695363e+03 3.136471442995122406e-04
1.126463231615807899e+03 3.190811148106118943e-04
1.127363681840920435e+03 3.226470057718032990e-04
1.128264132066032971e+03 3.248162776990863435e-04
1.129164582291145507e+03 3.256258960864794462e-04
1.130065032516258043e+03 3.253426637145706113e-04
1.130965482741370579e+03 3.243901548708420920e-04
1.131865932966483115e+03 3.230546684780235601e-04
1.132766383191595651e+03 3.224126298673971199e-04
1.133666833416708187e+03 3.244348268787312483e-04
1.134567283641820950e+03 3.302991230346430645e-04
1.135467733866933486e+03 3.395454008074396085e-04
1.136368184092046022e+03 3.508936133802068860e-04
1.137268634317158558e+03 3.632756980144727539e-04
1.138169084542271094e+03 3.768174022479082617e-04
1.139069534767383630e+03 3.914942628157853455e-04
1.139969984992496165e+03 4.058177560355897585e-04
1.140870435217608701e+03 4.191019494839204264e-04
1.141770885442721237e+03 4.329043515188832434e-04
1.142671335667833773e+03 4.488844324851624088e-04
1.143571785892946309e+03 4.662305983258519578e-04
1.144472236118059072e+03 4.827821916946250310e-04
1.145372686343171608e+03 4.980761060755171509e-04
1.146273136568284144e+03 5.146439450558244625e-04
1.147173586793396680e+03 5.379207597491715608e-04
1.148074037018509216e+03 5.728375985535593415e-04
1.148974487243621752e+03 6.211159236481520948e-04
1.149874937468734288e+03 6.827826306232856295e-04
1.150775387693846824e+03 7.566226866432349809e-04
1.151675837918959360e+03 8.395470026920123612e-04
1.152576288144071896e+03 9.299334046180783835e-04
1.153476738369184432e+03 1.030700698817216829e-03
1.154377188594297195e+03 1.143620804216202236e-03
1.155277638819409731e+03 1.263024982090542748e-03
1.156178089044522267e+03 1.382170351947178705e-03
1.157078539269634803e+03 1.503861505645644496e-03
1.157978989494747339e+03 1.636131994594895245e-03
1.158879439719859874e+03 1.774600874862045530e-03
1.159779889944972410e+03 1.907792841728975100e-03
1.160680340170084946e+03 2.037545550829329612e-03
1.161580790395197482e+03 2.172647695100738460e-03
1.162481240620310018e+03 2.314049267915921533e-03
1.163381690845422554e+03 2.448916387442052166e-03
1.164282141070535317e+03 2.549668820987241891e-03
1.165182591295647853e+03 2.589639788518493472e-03
1.166083041520760389e+03 2.562239940042486570e-03
1.166983491745872925e+03 2.479097119311000300e-03
1.167883941970985461e+03 2.352991660288004851e-03
1.168784392196097997e+03 2.200484048839120195e-03
1.169684842421210533e+03 2.050176677389882376e-03
1.170585292646323069e+03 1.922755612421300905e-03
1.171485742871435605e+03 1.811048374317485860e-03
1.172386193096548141e+03 1.695917327387338070e-03
1.173286643321660677e+03 1.573727593145188806e-03
1.174187093546773440e+03 1.454436228197923805e-03
1.175087543771885976e+03 1.348251866225318868e-03
1.175987993996998512e+03 1.262856023926954736e-03
1.176888444222111048e+03 1.200685314176635826e-03
1.177788894447223583e+03 1.155529992886535117e-03
1.178689344672336119e+03 1.117791001336591785e-03
1.179589794897448655e+03 1.087173503944683815e-03
1.180490245122561191e+03 1.069303347203643621e-03
1.181390695347673727e+03 1.062785049336375381e-03
1.182291145572786263e+03 1.057622540382559045e-03
1.183191595797898799e+03 1.047371706202596033e-03
1.184092046023011562e+03 1.034872966713245093e-03
1.184992496248124098e+03 1.024114133669023563e-03
1.185892946473236634e+03 1.018812413761250105e-03
1.186793396698349170e+03 1.023135483202159812e-03
1.187693846923461706e+03 1.037396283795237418e-03
1.188594297148574242e+03 1.054267937791102377e-03
1.189494747373686778e+03 1.063389054253769967e-03
1.190395197598799314e+03 1.060330118137601217e-03
1.191295647823911850e+03 1.047647286608468587e-03
1.192196098049024386e+03 1.032171070150009412e-03
1.193096548274136921e+03 1.017228370777521328e-03
1.193996998499249457e+03 9.990483451665149381e-04
1.194897448724362221e+03 9.742000150055907812e-04
1.195797898949474757e+03 9.446051602920759989e-04
1.196698349174587293e+03 9.146327739483884169e-04
1.197598799399699828e+03 8.869246297305534909e-04
1.198499249624812364e+03 8.619432250251400120e-04
1.199399699849924900e+03 8.399478382964037154e-04
1.200300150075037436e+03 8.219689802423493829e-04
1.201200600300149972e+03 8.103220748180791798e-04
1.202101050525262508e+03 8.076644400211042268e-04
1.203001500750375044e+03 8.123042698744314168e-04
1.203901950975487580e+03 8.194593741633000904e-04
1.204802401200600343e+03 8.258431305089402848e-04
1.205702851425712879e+03 8.295544217147937617e-04
1.206603301650825415e+03 8.274497711909957866e-04
1.207503751875937951e+03 8.166254264089753715e-04
1.208404202101050487e+03 8.012266782732703832e-04
1.209304652326163023e+03 7.873738234924399946e-04
1.210205102551275559e+03 7.747058894296359431e-04
1.211105552776388095e+03 7.612027092801397152e-04
1.212006003001500630e+03 7.482997504716501144e-04
1.212906453226613166e+03 7.375083799626401277e-04
1.213806903451725702e+03 7.268486481889116068e-04
1.214707353676838466e+03 7.125806163024540419e-04
1.215607803901951002e+03 6.950340880076643886e-04
1.216508254127063537e+03 6.766609545244442296e-04
1.217408704352176073e+03 6.577649334015844580e-04
1.218309154577288609e+03 6.418745283036808190e-04
1.219209604802401145e+03 6.354734032763980668e-04
1.220110055027513681e+03 6.400525842636716270e-04
1.221010505252626217e+03 6.501123043868319278e-04
1.221910955477738753e+03 6.576907015490143565e-04
1.222811405702851289e+03 6.580056208821956180e-04
1.223711855927963825e+03 6.508511413851367049e-04
1.224612306153076588e+03 6.383069373084730757e-04
1.225512756378189124e+03 6.265264888764739961e-04
1.226413206603301660e+03 6.235724042935893554e-04
1.227313656828414196e+03 6.307996231181062967e-04
1.228214107053526732e+03 6.402773963887647708e-04
1.229114557278639268e+03 6.423773791191881568e-04
1.230015007503751804e+03 6.350078818027622522e-04
1.230915457728864340e+03 6.246288502649837565e-04
1.231815907953976875e+03 6.166627621307185867e-04
1.232716358179089411e+03 6.106858571918778343e-04
1.233616808404201947e+03 6.049228144393992016e-04
1.234517258629314711e+03 5.984975123533576831e-04
1.235417708854427246e+03 5.906215199303025288e-04
1.236318159079539782e+03 5.824773738692654891e-04
1.237218609304652318e+03 5.772922884140405629e-04
1.238119059529764854e+03 5.746619023045240315e-04
1.239019509754877390e+03 5.726513065174282770e-04
1.239919959979989926e+03 5.729850288945234149e-04
1.240820410205102462e+03 5.783657986201803589e-04
1.241720860430214998e+03 5.886747448278583207e-04
1.242621310655327534e+03 6.010057866776704304e-04
1.243521760880440070e+03 6.131445504524302018e-04
1.244422211105552606e+03 6.258005885195391240e-04
1.245322661330665369e+03 6.395831478352774317e-04
1.246223111555777905e+03 6.528524559239027875e-04
1.247123561780890441e+03 6.652704375768998769e-04
1.248024012006002977e+03 6.796829784156703438e-04
1.248924462231115513e+03 6.975920857557790225e-04
1.249824912456228049e+03 7.157090031364559670e-04
1.250725362681340584e+03 7.295260617350130244e-04
1.251625812906453120e+03 7.380039894913951667e-04
1.252526263131565656e+03 7.416732859824318397e-04
1.253426713356678192e+03 7.418883888740909240e-04
1.254327163581790728e+03 7.428446471761303857e-04
1.255227613806903491e+03 7.485614867126603187e-04
1.256128064032016027e+03 7.599576468869040846e-04
1.257028514257128563e+03 7.758825596086252633e-04
1.257928964482241099e+03 7.940444144856928814e-04
1.258829414707353635e+03 8.106078899161699158e-04
1.259729864932466171e+03 8.223202089269903738e-04
1.260630315157578707e+03 8.273512647307790062e-04
1.261530765382691243e+03 8.267597979693800704e-04
1.262431215607803779e+03 8.254617527465333898e-04
1.263331665832916315e+03 8.292925491533124785e-04
1.264232116058028851e+03 8.415867918249163608e-04
1.265132566283141614e+03 8.616988496301224848e-04
1.266033016508254150e+03 8.862263549519741124e-04
1.266933466733366686e+03 9.122124420027659039e-04
1.267833916958479222e+03 9.388809339944030954e-04
1.268734367183591758e+03 9.675472978060335478e-04
1.269634817408704293e+03 9.990141271913966295e-04
1.270535267633816829e+03 1.030311068382804094e-03
1.271435717858929365e+03 1.057229265314049184e-03
1.272336168084041901e+03 1.077101037737697529e-03
1.273236618309154437e+03 1.089754211435969497e-03
1.274137068534266973e+03 1.098732739915140710e-03
1.275037518759379736e+03 1.108906893422418943e-03
1.275937968984492272e+03 1.122794104349503523e-03
1.276838419209604808e+03 1.140642988945926757e-03
1.277738869434717344e+03 1.160864411781982160e-03
1.278639319659829880e+03 1.180481803252328519e-03
1.279539769884942416e+03 1.198437662110983341e-03
1.280440220110054952e+03 1.216905615921698089e-03
1.281340670335167488e+03 1.237921213412300101e-03
1.282241120560280024e+03 1.261287000840077615e-03
1.283141570785392560e+03 1.285990133906700708e-03
1.284042021010505096e+03 1.312604862241305249e-03
1.284942471235617859e+03 1.342792447818342725e-03
1.285842921460730395e+03 1.375854481144441485e-03
1.286743371685842931e+03 1.407679301690792362e-03
1.287643821910955467e+03 1.434339950406556159e-03
1.288544272136068003e+03 1.455284527838201798e-03
1.289444722361180538e+03 1.473521513842581537e-03
1.290345172586293074e+03 1.491735577544704228e-03
1.291245622811405610e+03 1.508755477704720911e-03
1.292146073036518146e+03 1.521419065718902959e-03
1.293046523261630682e+03 1.529083964543479033e-03
1.293946973486743218e+03 1.534483027933120341e-03
1.294847423711855754e+03 1.540848637545305438e-03
1.295747873936968517e+03 1.550224052243864619e-03
1.296648324162081053e+03 1.563836705924147134e-03
1.297548774387193589e+03 1.581254626506181172e-03
1.298449224612306125e+03 1.600510729830976987e-03
1.299349674837418661e+03 1.620033513150329193e-03
1.300250125062531197e+03 1.639070984495185311e-03
1.301150575287643733e+03 1.658380270574273804e-03
1.302051025512756269e+03 1.677577298788375960e-03
1.302951475737868805e+03 1.693392874924369660e-03
1.303851925962981340e+03 1.704385347157611570e-03
1.304752376188093876e+03 1.713493854501981287e-03
1.305652826413206640e+03 1.725302321993912175e-03
1.306553276638319176e+03 1.742839724147484748e-03
1.307453726863431712e+03 1.766359328035166419e-03
1.308354177088544247e+03 1.791390051890510678e-03
1.309254627313656783e+03 1.811204329696814190e-03
1.310155077538769319e+03 1.822619248216588925e-03
1.311055527763881855e+03 1.829835955415337915e-03
1.311955977988994391e+03 1.841004473327202337e-03
1.312856428214106927e+03 1.857166981063027196e-03
1.313756878439219463e+03 1.872944404411955831e-03
1.314657328664331999e+03 1.887805059968375096e-03
1.315557778889444762e+03 1.905595171205450586e-03
1.316458229114557298e+03 1.927953130414279247e-03
1.317358679339669834e+03 1.956553889209745097e-03
1.318259129564782370e+03 1.996378101006332680e-03
1.319159579789894906e+03 2.049446838491880436e-03
1.320060030015007442e+03 2.110063197817346834e-03
1.320960480240119978e+03 2.171189144991350108e-03
1.321860930465232514e+03 2.229737268301605190e-03
1.322761380690345050e+03 2.285290974179293808e-03
1.323661830915457585e+03 2.338672574259869665e-03
1.324562281140570121e+03 2.390603796608546314e-03
1.325462731365682885e+03 2.441591613296489882e-03
1.326363181590795421e+03 2.492204473859881055e-03
1.327263631815907956e+03 2.544727032000169108e-03
1.328164082041020492e+03 2.604590555855158286e-03
1.329064532266133028e+03 2.675392554590579584e-03
1.329964982491245564e+03 2.752533368802585843e-03
1.330865432716358100e+03 2.827225379087699650e-03
1.331765882941470636e+03 2.893539444438216358e-03
1.332666333166583172e+03 2.953491132969537220e-03
1.333566783391695708e+03 3.015758003178931838e-03
1.334467233616808244e+03 3.086767795588278660e-03
1.335367683841921007e+03 3.168746889856092520e-03
1.336268134067033543e+03 3.260960319668913549e-03
1.337168584292146079e+03 3.355924445926124731e-03
1.338069034517258615e+03 3.444615468894057526e-03
1.338969484742371151e+03 3.523948119426729194e-03
1.339869934967483687e+03 3.595049402619337076e-03
1.340770385192596223e+03 3.661966999381388848e-03
1.341670835417708759e+03 3.731264976879446887e-03
1.342571285642821294e+03 3.806717130600750093e-03
1.343471735867933830e+03 3.888933387663601107e-03
1.344372186093046366e+03 3.984186014685493944e-03
1.345272636318158902e+03 4.101171789849313368e-03
1.346173086543271666e+03 4.244610379462888418e-03
1.347073536768384201e+03 4.410694806046674445e-03
1.347973986993496737e+03 4.590210993945393822e-03
1.348874437218609273e+03 4.779016431605003987e-03
1.349774887443721809e+03 4.973605462832155280e-03
1.350675337668834345e+03 5.166603090261401299e-03
1.351575787893946881e+03 5.360805066261925371e-03
1.352476238119059417e+03 5.565870831215278570e-03
1.353376688344171953e+03 5.787390194829599398e-03
1.354277138569284489e+03 6.020556984290291458e-03
1.355177588794397025e+03 6.250899294572674278e-03
1.356078039019509788e+03 6.463464712492977306e-03
1.356978489244622324e+03 6.659875331332517842e-03
1.357878939469734860e+03 6.858058533491914049e-03
1.358779389694847396e+03 7.076506367541529965e-03
1.359679839919959932e+03 7.319134716302539562e-03
1.360580290145072468e+03 7.578445498599123420e-03
1.361480740370185003e+03 7.849470324860384138e-03
1.362381190595297539e+03 8.114315295958211480e-03
1.363281640820410075e+03 8.351412388634954845e-03
1.364182091045522611e+03 8.568384142596235237e-03
1.365082541270635147e+03 8.788771086028327600e-03
1.365982991495747910e+03 9.012815492485178048e-03
1.366883441720860446e+03 9.227747594586763191e-03
1.367783891945972982e+03 9.453159619382495854e-03
1.368684342171085518e+03 9.726843070233108166e-03
1.369584792396198054e+03 1.005291202982017650e-02
1.370485242621310590e+03 1.041225647347501955e-02
1.371385692846423126e+03 1.078035551574562517e-02
1.372286143071535662e+03 1.112783784952639000e-02
1.373186593296648198e+03 1.144579613217765017e-02
1.374087043521760734e+03 1.174608888669710638e-02
1.374987493746873270e+03 1.203574980784989992e-02
1.375887943971986033e+03 1.233114420330401820e-02
1.376788394197098569e+03 1.268323574218037028e-02
1.377688844422211105e+03 1.311250145085492494e-02
1.378589294647323641e+03 1.357152278625483460e-02
1.379489744872436177e+03 1.400730151289606741e-02
1.380390195097548713e+03 1.439692171675702008e-02
1.381290645322661248e+03 1.474989437867941372e-02
1.382191095547773784e+03 1.510158544859397343e-02
1.383091545772886320e+03 1.546962026273981765e-02
1.383991995997998856e+03 1.587699467126994779e-02
1.384892446223111392e+03 1.636173559715605949e-02
1.385792896448224155e+03 1.690580250698236683e-02
1.386693346673336691e+03 1.745034091306360557e-02
1.387593796898449227e+03 1.795663754014066582e-02
1.388494247123561763e+03 1.843800466758462736e-02
1.389394697348674299e+03 1.895563156859175757e-02
1.390295147573786835e+03 1.950270398972716104e-02
1.391195597798899371e+03 1.997312826490448348e-02
1.392096048024011907e+03 2.031751154923051861e-02
1.392996498249124443e+03 2.057656857557843208e-02
1.393896948474236979e+03 2.080630187272282383e-02
1.394797398699349515e+03 2.108062354944320940e-02
1.395697848924462278e+03 2.139634925337826829e-02
1.396598299149574814e+03 2.163857298140851870e-02
1.397498749374687350e+03 2.172711194559614686e-02
1.398399199599799886e+03 2.169623372685476614e-02
1.399299649824912422e+03 2.160186052247755131e-02
1.400200100050024957e+03 2.148857724336520128e-02
1.401100550275137493e+03 2.140799697418546352e-02
1.402001000500250029e+03 2.136690586722575155e-02
1.402901450725362565e+03 2.133432843873871512e-02
1.403801900950475101e+03 2.129011924297796732e-02
1.404702351175587637e+03 2.124184058136208836e-02
1.405602801400700173e+03 2.119973171957181476e-02
1.406503251625812936e+03 2.113003624641785275e-02
1.407403701850925472e+03 2.098513979152641720e-02
1.408304152076038008e+03 2.076033376223715421e-02
1.409204602301150544e+03 2.048614307494523584e-02
1.410105052526263080e+03 2.018401795043782421e-02
1.411005502751375616e+03 1.986452013373872505e-02
1.411905952976488152e+03 1.953787091228562783e-02
1.412806403201600688e+03 1.919311674626300937e-02
1.413706853426713224e+03 1.883230025265085830e-02
1.414607303651825760e+03 1.849901495888344252e-02
1.415507753876938295e+03 1.821753096795729679e-02
1.416408204102051059e+03 1.794687373483163512e-02
1.417308654327163595e+03 1.760774401295897573e-02
1.418209104552276131e+03 1.717340239966589494e-02
1.419109554777388666e+03 1.669147425406252230e-02
1.420010005002501202e+03 1.618912326661831741e-02
1.420910455227613738e+03 1.566087517937962345e-02
1.421810905452726274e+03 1.512067154871384045e-02
1.422711355677838810e+03 1.461332374601786131e-02
1.423611805902951346e+03 1.417061905605798526e-02
1.424512256128063882e+03 1.378432459403675439e-02
1.425412706353176418e+03 1.343039576420318806e-02
1.426313156578289181e+03 1.308219346480993077e-02
1.427213606803401717e+03 1.270912743294270661e-02
1.428114057028514253e+03 1.229001740130898288e-02
1.429014507253626789e+03 1.180893931652453321e-02
1.429914957478739325e+03 1.129306590044560840e-02
1.430815407703851861e+03 1.081932476504392400e-02
1.431715857928964397e+03 1.043810249950353521e-02
1.432616308154076933e+03 1.014202882937678858e-02
1.433516758379189469e+03 9.897223478294789323e-03
1.434417208604302004e+03 9.672764120386046979e-03
1.435317658829414540e+03 9.440882178426326932e-03
1.436218109054527304e+03 9.191775523774500453e-03
1.437118559279639840e+03 8.920050997632598608e-03
1.438019009504752376e+03 8.606402337673978165e-03
1.438919459729864911e+03 8.258236121863406914e-03
1.439819909954977447e+03 7.927313638141909174e-03
1.440720360180089983e+03 7.669185624937565476e-03
1.441620810405202519e+03 7.497354876769348440e-03
1.442521260630315055e+03 7.388317533688877094e-03
1.443421710855427591e+03 7.315823468935359238e-03
1.444322161080540127e+03 7.259315980576950926e-03
1.445222611305652663e+03 7.184955900484452443e-03
1.446123061530765426e+03 7.055677898655147474e-03
1.447023511755877962e+03 6.871161607420539844e-03
1.447923961980990498e+03 6.671332655134038468e-03
1.448824412206103034e+03 6.494566090821952617e-03
1.449724862431215570e+03 6.339481839237957883e-03
1.450625312656328106e+03 6.181423746188800979e-03
1.451525762881440642e+03 6.004921241649463330e-03
1.452426213106553178e+03 5.819535651157152316e-03
1.453326663331665713e+03 5.654087441256369466e-03
1.454227113556778249e+03 5.528121934569566256e-03
1.455127563781890785e+03 5.431443487783467472e-03
1.456028014007003321e+03 5.345077138904127077e-03
1.456928464232116085e+03 5.258256087790716751e-03
1.457828914457228620e+03 5.164038410089957787e-03
1.458729364682341156e+03 5.066614640019258611e-03
1.459629814907453692e+03 4.970822629283364741e-03
1.460530265132566228e+03 4.864937922428056415e-03
1.461430715357678764e+03 4.729554803311221758e-03
1.462331165582791300e+03 4.565932286246774524e-03
1.463231615807903836e+03 4.398988797793164374e-03
1.464132066033016372e+03 4.249497386269316529e-03
1.465032516258128908e+03 4.119658382830127842e-03
1.465932966483241444e+03 4.002228027589535726e-03
1.466833416708354207e+03 3.895602860239934153e-03
1.467733866933466743e+03 3.799155758627546006e-03
1.468634317158579279e+03 3.707923052852921814e-03
1.469534767383691815e+03 3.611860674590364629e-03
1.470435217608804351e+03 3.499054669610983555e-03
1.471335667833916887e+03 3.375324018539745553e-03
1.472236118059029423e+03 3.254004994800739625e-03
1.473136568284141958e+03 3.137826623175177503e-03
1.474037018509254494e+03 3.024729114701840346e-03
1.474937468734367030e+03 2.912609500095690584e-03
1.475837918959479566e+03 2.799482694641096218e-03
1.476738369184592329e+03 2.689507668824735881e-03
1.477638819409704865e+03 2.589426018466941225e-03
1.478539269634817401e+03 2.499780959745063428e-03
1.479439719859929937e+03 2.417169440377902375e-03
1.480340170085042473e+03 2.340349960964534324e-03
1.481240620310155009e+03 2.271831455787980472e-03
1.482141070535267545e+03 2.209412178434688040e-03
1.483041520760380081e+03 2.142241695332225849e-03
1.483941970985492617e+03 2.064804400502420235e-03
1.484842421210605153e+03 1.986689123258626212e-03
1.485742871435717689e+03 1.918030435416548992e-03
1.486643321660830452e+03 1.860593543422478686e-03
1.487543771885942988e+03 1.814747129235652796e-03
1.488444222111055524e+03 1.780370396453184820e-03
1.489344672336168060e+03 1.755158033701988184e-03
1.490245122561280596e+03 1.737162104079203800e-03
1.491145572786393132e+03 1.724359777140198292e-03
1.492046023011505667e+03 1.714095016201078571e-03
1.492946473236618203e+03 1.703836212037752613e-03
1.493846923461730739e+03 1.687788960083278465e-03
1.494747373686843275e+03 1.659172351721735711e-03
1.495647823911955811e+03 1.615981699982949266e-03
1.496548274137068574e+03 1.561389213979941454e-03
1.497448724362181110e+03 1.501464460765738378e-03
1.498349174587293646e+03 1.443766370810729751e-03
1.499249624812406182e+03 1.396598740970763242e-03
1.500150075037518718e+03 1.367278573941476359e-03
1.501050525262631254e+03 1.358040662494769792e-03
1.501950975487743790e+03 1.364321682296606303e-03
1.502851425712856326e+03 1.380198253704399735e-03
1.503751875937968862e+03 1.403063117125315489e-03
1.504652326163081398e+03 1.428957934562435700e-03
1.505552776388193934e+03 1.448564057852926284e-03
1.506453226613306470e+03 1.454273410693322516e-03
1.507353676838419233e+03 1.446211591939993747e-03
1.508254127063531769e+03 1.429552430249972968e-03
1.509154577288644305e+03 1.406448638337613483e-03
1.510055027513756841e+03 1.376803569355040556e-03
1.510955477738869376e+03 1.345382564816803355e-03
1.511855927963981912e+03 1.316913210868991607e-03
1.512756378189094448e+03 1.291790074015828097e-03
1.513656828414206984e+03 1.269606373897561079e-03
1.514557278639319520e+03 1.248290586603553482e-03
1.515457728864432056e+03 1.223840249532991186e-03
1.516358179089544592e+03 1.196080658598928839e-03
1.517258629314657355e+03 1.169081227452723522e-03
1.518159079539769891e+03 1.145813911626520666e-03
1.519059529764882427e+03 1.128970572626706659e-03
1.519959979989994963e+03 1.122796626318423464e-03
1.520860430215107499e+03 1.129470646586501394e-03
1.521760880440220035e+03 1.147041658012468201e-03
1.522661330665332571e+03 1.171100317642758022e-03
1.523561780890445107e+03 1.197925469493129561e-03
1.524462231115557643e+03 1.225230909816547300e-03
1.525362681340670179e+03 1.247389788520893768e-03
1.526263131565782714e+03 1.254786228276372120e-03
1.527163581790895478e+03 1.245218689523093329e-03
1.528064032016008014e+03 1.229316474423488821e-03
1.528964482241120550e+03 1.215896353493020176e-03
1.529864932466233086e+03 1.203044636833255519e-03
1.530765382691345621e+03 1.186417880536082790e-03
1.531665832916458157e+03 1.166912541778930947e-03
1.532566283141570693e+03 1.147938848584784512e-03
1.533466733366683229e+03 1.132940727137585419e-03
1.534367183591795765e+03 1.124873763157137937e-03
1.535267633816908301e+03 1.120659103910178834e-03
1.536168084042020837e+03 1.109803220072002206e-03
1.537068534267133600e+03 1.085340618106349483e-03
1.537968984492246136e+03 1.052324171001129587e-03
1.538869434717358672e+03 1.021798133500651266e-03
1.539769884942471208e+03 9.986513386822950221e-04
1.540670335167583744e+03 9.791107215076492488e-04
1.541570785392696280e+03 9.584003339976368248e-04
1.542471235617808816e+03 9.364926113220241755e-04
1.543371685842921352e+03 9.163166894564311014e-04
1.544272136068033888e+03 9.015985679833630161e-04
1.545172586293146423e+03 8.961367890697443999e-04
1.546073036518258959e+03 9.005383655450504904e-04
1.546973486743371723e+03 9.099613525432186144e-04
1.547873936968484259e+03 9.181361764763461839e-04
1.548774387193596795e+03 9.238945235682581667e-04
1.549674837418709330e+03 9.298562950774207862e-04
1.550575287643821866e+03 9.380212444558843916e-04
1.551475737868934402e+03 9.495968792104695451e-04
1.552376188094046938e+03 9.651811563365153080e-04
1.553276638319159474e+03 9.829263067609279262e-04
1.554177088544272010e+03 9.973510363944146622e-04
1.555077538769384546e+03 1.004665414247061421e-03
1.555977988994497082e+03 1.006423540947973261e-03
1.556878439219609618e+03 1.003339876938063409e-03
1.557778889444722381e+03 9.938330497915983178e-04
1.558679339669834917e+03 9.775327347608289263e-04
1.559579789894947453e+03 9.595980829053765574e-04
1.560480240120059989e+03 9.484732734016844543e-04
1.561380690345172525e+03 9.476068269624812745e-04
1.562281140570285061e+03 9.528333912844743746e-04
1.563181590795397597e+03 9.578466596740718144e-04
1.564082041020510133e+03 9.554619157036903969e-04
1.564982491245622668e+03 9.380905307878466574e-04
1.565882941470735204e+03 9.067280613137578731e-04
1.566783391695847740e+03 8.702244733836723848e-04
1.567683841920960504e+03 8.355705547326381863e-04
1.568584292146073039e+03 8.062864668461754581e-04
1.569484742371185575e+03 7.802006098043790753e-04
1.570385192596298111e+03 7.482323435421573288e-04
1.571285642821410647e+03 7.073068237353067386e-04
1.572186093046523183e+03 6.626076097530550751e-04
1.573086543271635719e+03 6.159291258771117713e-04
1.573986993496748255e+03 5.691681751220485858e-04
1.574887443721860791e+03 5.245858720857519671e-04
1.575787893946973327e+03 4.805380205124884898e-04
1.576688344172085863e+03 4.340912817318179438e-04
1.577588794397198626e+03 3.854656647737262297e-04
1.578489244622311162e+03 3.382414129177202826e-04
1.579389694847423698e+03 2.956195681639769155e-04
1.580290145072536234e+03 2.589718945782189946e-04
1.581190595297648770e+03 2.289833056230108801e-04
1.582091045522761306e+03 2.054665447235450395e-04
1.582991495747873842e+03 1.871366790334568961e-04
1.583891945972986377e+03 1.728858168166724416e-04
1.584792396198098913e+03 1.623394484671612532e-04
1.585692846423211449e+03 1.552091802596413717e-04
1.586593296648323985e+03 1.505359034358562983e-04
1.587493746873436749e+03 1.461876976307744530e-04
1.588394197098549284e+03 1.399602009486270772e-04
1.589294647323661820e+03 1.318866667672238216e-04
1.590195097548774356e+03 1.235823987415959858e-04
1.591095547773886892e+03 1.162903743564285599e-04
1.591995997998999428e+03 1.103860351263581582e-04
1.592896448224111964e+03 1.057672287781394641e-04
1.593796898449224500e+03 1.023112161461643791e-04
1.594697348674337036e+03 9.986362737963541442e-05
1.595597798899449572e+03 9.794613290185063073e-05
1.596498249124562108e+03 9.568099011503841114e-05
1.597398699349674871e+03 9.253109047731921202e-05
1.598299149574787407e+03 8.894950956893684236e-05
1.599199599799899943e+03 8.564853499480578464e-05
1.600100050025012479e+03 8.292879404361672309e-05
1.601000500250125015e+03 8.079664116298399641e-05
1.601900950475237551e+03 7.919318476473516735e-05
1.602801400700350086e+03 7.808913832215297064e-05
1.603701850925462622e+03 7.751103021466393839e-05
1.604602301150575158e+03 7.755313528558280647e-05
1.605502751375687694e+03 7.838913893673666569e-05
1.606403201600800230e+03 8.026387388695364585e-05
1.607303651825912766e+03 8.337668760267859420e-05
1.608204102051025529e+03 8.746308411162730329e-05
1.609104552276138065e+03 9.114006545001136197e-05
1.610005002501250601e+03 9.234811113541264440e-05
1.610905452726363137e+03 9.071677691935681436e-05
1.611805902951475673e+03 8.807968281315384565e-05
1.612706353176588209e+03 8.584627607331108041e-05
1.613606803401700745e+03 8.403343642869201362e-05
1.614507253626813281e+03 8.237665169472300586e-05
1.615407703851925817e+03 8.097371925388785203e-05
1.616308154077038353e+03 7.968753022267614696e-05
1.617208604302150889e+03 7.802440535119006999e-05
1.618109054527263652e+03 7.575907823440075997e-05
1.619009504752376188e+03 7.279580537685422024e-05
1.619909954977488724e+03 6.932978149463517206e-05
1.620810405202601260e+03 6.611029760347285984e-05
1.621710855427713796e+03 6.378128170028045732e-05
1.622611305652826331e+03 6.255271614852757160e-05
1.623511755877938867e+03 6.238573725572208188e-05
1.624412206103051403e+03 6.298436661293963738e-05
1.625312656328163939e+03 6.352343410772026515e-05
1.626213106553276475e+03 6.297079992695285805e-05
1.627113556778389011e+03 6.135340397053803117e-05
1.628014007003501774e+03 5.954718568378633071e-05
1.628914457228614310e+03 5.783851348373621410e-05
1.629814907453726846e+03 5.597006261905959694e-05
1.630715357678839382e+03 5.406171707770402189e-05
1.631615807903951918e+03 5.254294414166183050e-05
1.632516258129064454e+03 5.162270023269826982e-05
1.633416708354176990e+03 5.117563613990869779e-05
1.634317158579289526e+03 5.072343823848418648e-05
1.635217608804402062e+03 4.968466781418246023e-05
1.636118059029514598e+03 4.804421669054504036e-05
1.637018509254627133e+03 4.628887096479466519e-05
1.637918959479739897e+03 4.475461878804506049e-05
1.638819409704852433e+03 4.350072259813977157e-05
1.639719859929964969e+03 4.247613443827509213e-05
1.640620310155077505e+03 4.161854697476657336e-05
1.641520760380190040e+03 4.088001624129837400e-05
1.642421210605302576e+03 4.022753679309382731e-05
1.643321660830415112e+03 3.963893553249752831e-05
1.644222111055527648e+03 3.909922321822160258e-05
1.645122561280640184e+03 3.859808693014225541e-05
1.646023011505752720e+03 3.812828033336666637e-05
1.646923461730865256e+03 3.768460476844642907e-05
1.647823911955978019e+03 3.726326030702972790e-05
1.648724362181090555e+03 3.686142661529423010e-05
1.649624812406203091e+03 3.647698787599194765e-05
1.650525262631315627e+03 3.610834960169271560e-05
1.651425712856428163e+03 3.575431539312689513e-05
1.652326163081540699e+03 3.541400387936346805e-05
1.653226613306653235e+03 3.508679351657299561e-05
1.654127063531765771e+03 3.477228757359774572e-05
1.655027513756878307e+03 3.447029464698689712e-05
1.655927963981990843e+03 3.418082211514815585e-05
1.656828414207103378e+03 3.390408149127486836e-05
1.657728864432216142e+03 3.364050595999279139e-05
1.658629314657328678e+03 3.339078171352610123e-05
1.659529764882441214e+03 3.315589626398606594e-05
1.660430215107553749e+03 3.293720897027744952e-05
1.661330665332666285e+03 3.273655196427573794e-05
1.662231115557778821e+03 3.255637408447364825e-05
1.663131565782891357e+03 3.239994729068489880e-05
1.664032016008003893e+03 3.227166595381318907e-05
1.664932466233116429e+03 3.217748713414098858e-05
1.665832916458228965e+03 3.212558918243310180e-05
1.666733366683341501e+03 3.212737472930920704e-05
1.667633816908454037e+03 3.219902555791585164e-05
1.668534267133566800e+03 3.236395052923319926e-05
1.669434717358679336e+03 3.265667307930011362e-05
1.670335167583791872e+03 3.312895603779776826e-05
1.671235617808904408e+03 3.385897795304767155e-05
1.672136068034016944e+03 3.496277283346717265e-05
1.673036518259129480e+03 3.659843782873841762e-05
1.673936968484242016e+03 3.892075779505792564e-05
1.674837418709354552e+03 4.186462695524943961e-05
1.675737868934467087e+03 4.466078911354562136e-05
1.676638319159579623e+03 4.581170248959026052e-05
1.677538769384692159e+03 4.479358024585941344e-05
1.678439219609804923e+03 4.297986119915143710e-05
1.679339669834917459e+03 4.185410118526822909e-05
1.680240120060029994e+03 4.207003075665886600e-05
1.681140570285142530e+03 4.382589035624196187e-05
1.682041020510255066e+03 4.701216134009762331e-05
1.682941470735367602e+03 5.065360885945676664e-05
1.683841920960480138e+03 5.235479407779481184e-05
1.684742371185592674e+03 5.018997604303623286e-05
1.685642821410705210e+03 4.541552794468882551e-05
1.686543271635817746e+03 4.049406621527164421e-05
1.687443721860930282e+03 3.656058172558894617e-05
1.688344172086043045e+03 3.367375964850959742e-05
1.689244622311155581e+03 3.158421678358128772e-05
1.690145072536268117e+03 3.004926736708468923e-05
1.691045522761380653e+03 2.889366651655448227e-05
1.691945972986493189e+03 2.800055411225987694e-05
1.692846423211605725e+03 2.729336315896490334e-05
1.693746873436718261e+03 2.672174312974691742e-05
1.694647323661830796e+03 2.625229158621895459e-05
1.695547773886943332e+03 2.586274999876485894e-05
1.696448224112055868e+03 2.553843051673326063e-05
1.697348674337168404e+03 2.527005082656957018e-05
1.698249124562281168e+03 2.505248204068316714e-05
1.699149574787393703e+03 2.488413455040486277e-05
1.700050025012506239e+03 2.476685564359101398e-05
1.700950475237618775e+03 2.470632783075165750e-05
1.701850925462731311e+03 2.471306997321297288e-05
1.702751375687843847e+03 2.480428478236943417e-05
1.703651825912956383e+03 2.500699665145751749e-05
1.704552276138068919e+03 2.536319447403214805e-05
1.705452726363181455e+03 2.593791519787385112e-05
1.706353176588293991e+03 2.683063942480850745e-05
1.707253626813406527e+03 2.818581936408555788e-05
1.708154077038519290e+03 3.017838071545888540e-05
1.709054527263631826e+03 3.288715776481833175e-05
1.709954977488744362e+03 3.588473194297660328e-05
1.710855427713856898e+03 3.774221213527516517e-05
1.711755877938969434e+03 3.695410983782913171e-05
1.712656328164081970e+03 3.403686714251913018e-05
1.713556778389194506e+03 3.072933636811213919e-05
1.714457228614307041e+03 2.800009760973340932e-05
1.715357678839419577e+03 2.597938750253095118e-05
1.716258129064532113e+03 2.451565651543422518e-05
1.717158579289644649e+03 2.344076143040784652e-05
1.718059029514757185e+03 2.262974660390746463e-05
1.718959479739869948e+03 2.199867205528012473e-05
1.719859929964982484e+03 2.149244950945697021e-05
1.720760380190095020e+03 2.107475429464616821e-05
1.721660830415207556e+03 2.072125750565359057e-05
1.722561280640320092e+03 2.041534340080184364e-05
1.723461730865432628e+03 2.014543036697709284e-05
1.724362181090545164e+03 1.990328348563528467e-05
1.725262631315657700e+03 1.968293611891562566e-05
1.726163081540770236e+03 1.947998849507182853e-05
1.727063531765882772e+03 1.929114301113116147e-05
1.727963981990995308e+03 1.911389069595658723e-05
1.728864432216108071e+03 1.894629591867621858e-05
1.729764882441220607e+03 1.878684608030015685e-05
1.730665332666333143e+03 1.863434502271939746e-05
1.731565782891445679e+03 1.848783632769992493e-05
1.732466233116558215e+03 1.834654736653411070e-05
1.733366683341670750e+03 1.820984796407354919e-05
1.734267133566783286e+03 1.807721949527464747e-05
1.735167583791895822e+03 1.794823152384168187e-05
1.736068034017008358e+03 1.782252395843920344e-05
1.736968484242120894e+03 1.769979329055047183e-05
1.737868934467233430e+03 1.757978188345372277e-05
1.738769384692346193e+03 1.746226956446903327e-05
1.739669834917458729e+03 1.734706697205684559e-05
1.740570285142571265e+03 1.723401025160526063e-05
1.741470735367683801e+03 1.712295679628817054e-05
1.742371185592796337e+03 1.701378180402234993e-05
1.743271635817908873e+03 1.690637547640340792e-05
1.744172086043021409e+03 1.680064072616767383e-05
1.745072536268133945e+03 1.669649129012240526e-05
1.745972986493246481e+03 1.659385016740221172e-05
1.746873436718359017e+03 1.649264832030407235e-05
1.747773886943471553e+03 1.639282358825432884e-05
1.748674337168584316e+03 1.629431977571350101e-05
1.749574787393696852e+03 1.619708588275935713e-05
1.750475237618809388e+03 1.610107545328968070e-05
1.751375687843921924e+03 1.600624602064313668e-05
1.752276138069034459e+03 1.591255863427338792e-05
1.753176588294146995e+03 1.581997745415584887e-05
1.754077038519259531e+03 1.572846940203368398e-05
1.754977488744372067e+03 1.563800386055503872e-05
1.755877938969484603e+03 1.554855241292501868e-05
1.756778389194597139e+03 1.546008861695814652e-05
1.757678839419709675e+03 1.537258780845690548e-05
1.758579289644822438e+03 1.528602692967526188e-05
1.759479739869934974e+03 1.520038437932667558e-05
1.760380190095047510e+03 1.511563988115428355e-05
1.761280640320160046e+03 1.503177436856173785e-05
1.762181090545272582e+03 1.494876988318372742e-05
1.763081540770385118e+03 1.486660948560916290e-05
1.763981990995497654e+03 1.478527717673627823e-05
1.764882441220610190e+03 1.470475782847062943e-05
1.765782891445722726e+03 1.462503712266998732e-05
1.766683341670835262e+03 1.454610149740338523e-05
1.767583791895947797e+03 1.446793809973179690e-05
1.768484242121060333e+03 1.439053474433796651e-05
1.769384692346173097e+03 1.431387987743481254e-05
1.770285142571285633e+03 1.423796254547518704e-05
1.771185592796398169e+03 1.416277236825920297e-05
1.772086043021510704e+03 1.408829951611110596e-05
1.772986493246623240e+03 1.401453469085538520e-05
1.773886943471735776e+03 1.394146911038138868e-05
1.774787393696848312e+03 1.386909449663820826e-05
1.775687843921960848e+03 1.379740306694649678e-05
1.776588294147073384e+03 1.372638752857023196e-05
1.777488744372185920e+03 1.365604107652600632e-05
1.778389194597298456e+03 1.358635739466406651e-05
1.779289644822411219e+03 1.351733066009576639e-05
1.780190095047523755e+03 1.344895555109566276e-05
1.781090545272636291e+03 1.338122725865484147e-05
1.781990995497748827e+03 1.331414150192575007e-05
1.782891445722861363e+03 1.324769454785450043e-05
1.783791895947973899e+03 1.318188323537518076e-05
1.784692346173086435e+03 1.311670500461313080e-05
1.785592796398198971e+03 1.305215793164489543e-05
1.786493246623311506e+03 1.298824076946158000e-05
1.787393696848424042e+03 1.292495299591149277e-05
1.788294147073536578e+03 1.286229486954241660e-05
1.789194597298649342e+03 1.280026749443598915e-05
1.790095047523761878e+03 1.273887289533135140e-05
1.790995497748874413e+03 1.267811410458019991e-05
1.791895947973986949e+03 1.261799526276761440e-05
1.792796398199099485e+03 1.255852173518469372e-05
1.793696848424212021e+03 1.249970024676711982e-05
1.794597298649324557e+03 1.244153903862860153e-05
1.795497748874437093e+03 1.238404804995423731e-05
1.796398199099549629e+03 1.232723912978501856e-05
1.797298649324662165e+03 1.227112628418600269e-05
1.798199099549774701e+03 1.221572596545731208e-05
1.799099549774887464e+03 1.216105741151490805e-05
1.800000000000000000e+03 1.210714304538784946e-05
