0.000000000000000000e+00 8.393829083996901669e-04
9.004502251125562351e-01 1.117245817710363397e-03
1.800900450225112470e+00 1.467948063216947471e-03
2.701350675337668594e+00 1.823387239267135716e-03
3.601800900450224940e+00 2.057911432481008846e-03
4.502251125562780842e+00 2.114688435849554782e-03
5.402701350675337189e+00 2.009543457330243907e-03
6.303151575787893535e+00 1.745328951514060669e-03
7.203601800900449881e+00 1.396183836520435229e-03
8.104052026013006227e+00 1.072853688349892625e-03
9.004502251125561685e+00 8.197192247923529209e-04
9.904952476238118919e+00 6.311157023629530806e-04
1.080540270135067438e+01 4.925350125308319491e-04
1.170585292646323161e+01 3.914099200977886554e-04
1.260630315157578707e+01 3.172120101117874768e-04
1.350675337668834430e+01 2.618009827948385875e-04
1.440720360180089976e+01 2.194836927740972834e-04
1.530765382691345522e+01 1.865786365627084573e-04
1.620810405202601245e+01 1.606933739429609073e-04
1.710855427713856969e+01 1.401458815575414507e-04
1.800900450225112337e+01 1.235500303012458548e-04
1.890945472736368060e+01 1.096319942673375643e-04
1.980990495247623784e+01 9.751909861153817808e-05
2.071035517758879507e+01 8.697340420631065696e-05
2.161080540270134875e+01 7.795714937129202718e-05
2.251125562781390599e+01 7.031233455729241956e-05
2.341170585292646322e+01 6.381475963640672472e-05
2.431215607803901690e+01 5.825841495825454918e-05
2.521260630315157414e+01 5.348012298610591464e-05
2.611305652826413137e+01 4.935805790986490260e-05
2.701350675337668861e+01 4.580399147941558553e-05
2.791395697848924229e+01 4.274977577530753237e-05
2.881440720360179952e+01 4.011924532291197520e-05
2.971485742871435676e+01 3.779145357500882823e-05
3.061530765382691044e+01 3.562523679238684452e-05
3.151575787893946767e+01 3.354262503984109734e-05
3.241620810405202491e+01 3.150905306854462779e-05
3.331665832916458214e+01 2.953851058417674235e-05
3.421710855427713938e+01 2.771764996282034986e-05
3.511755877938969661e+01 2.610731462924745593e-05
3.601800900450224674e+01 2.469760284611732934e-05
3.691845922961480397e+01 2.343048110126567222e-05
3.781890945472736121e+01 2.224342086585477072e-05
3.871935967983991844e+01 2.112374486168235775e-05
3.961980990495247568e+01 2.009731955724696384e-05
4.052026013006503291e+01 1.918070851398902095e-05
4.142071035517759015e+01 1.837389707071402265e-05
4.232116058029014027e+01 1.767321082639951551e-05
4.322161080540269751e+01 1.707953823183545400e-05
4.412206103051525474e+01 1.660193688065171157e-05
4.502251125562781198e+01 1.625925252891475246e-05
4.592296148074036921e+01 1.607694808571481451e-05
4.682341170585292645e+01 1.606616355642407208e-05
4.772386193096548368e+01 1.616594096589781928e-05
4.862431215607803381e+01 1.618805409102007603e-05
4.952476238119059104e+01 1.591579392369626809e-05
5.042521260630314828e+01 1.533279744580812949e-05
5.132566283141570551e+01 1.461017388732149404e-05
5.222611305652826275e+01 1.386987981027500047e-05
5.312656328164081998e+01 1.316993795413603194e-05
5.402701350675337721e+01 1.256668019981325598e-05
5.492746373186592734e+01 1.206339243234711416e-05
5.582791395697848458e+01 1.160615901825220336e-05
5.672836418209104181e+01 1.117015631297808094e-05
5.762881440720359905e+01 1.078717886743817473e-05
5.852926463231615628e+01 1.047804261021441249e-05
5.942971485742871351e+01 1.022405616851485574e-05
6.033016508254127075e+01 1.000266326182651399e-05
6.123061530765382088e+01 9.823576596792404057e-06
6.213106553276637811e+01 9.712825310831824585e-06
6.303151575787893535e+01 9.662214614323567721e-06
6.393196598299149258e+01 9.618292750633586626e-06
6.483241620810404982e+01 9.532749007866982919e-06
6.573286643321659994e+01 9.392387540907518056e-06
6.663331665832916428e+01 9.193817264892635417e-06
6.753376688344171441e+01 8.945912195952567808e-06
6.843421710855427875e+01 8.689084704698297296e-06
6.933466733366682888e+01 8.488735959974930934e-06
7.023511755877939322e+01 8.395031179935146193e-06
7.113556778389194335e+01 8.418821406800112948e-06
7.203601800900449348e+01 8.525572084950643829e-06
7.293646823411705782e+01 8.643413237289420743e-06
7.383691845922960795e+01 8.732385432508714559e-06
7.473736868434217229e+01 8.845510736536743004e-06
7.563781890945472242e+01 9.069143112882729270e-06
7.653826913456728676e+01 9.411229466298574609e-06
7.743871935967983688e+01 9.783631075439922636e-06
7.833916958479238701e+01 1.008061871337728637e-05
7.923961980990495135e+01 1.021797923791691000e-05
8.014007003501750148e+01 1.013319591597087459e-05
8.104052026013006582e+01 9.847283199505468051e-06
8.194097048524261595e+01 9.493191369649778817e-06
8.284142071035518029e+01 9.202627364537106495e-06
8.374187093546773042e+01 8.971669698155664317e-06
8.464232116058028055e+01 8.731765762651207488e-06
8.554277138569284489e+01 8.495764973733821841e-06
8.644322161080539502e+01 8.339363854097763380e-06
8.734367183591795936e+01 8.266824402708512136e-06
8.824412206103050949e+01 8.164896802242330623e-06
8.914457228614307382e+01 7.945922688122108852e-06
9.004502251125562395e+01 7.649173229006870863e-06
9.094547273636817408e+01 7.360658976106954791e-06
9.184592296148073842e+01 7.137104485515099259e-06
9.274637318659328855e+01 7.002907886125105416e-06
9.364682341170585289e+01 6.972221576572670769e-06
9.454727363681840302e+01 7.050786627552681574e-06
9.544772386193096736e+01 7.222262724530125061e-06
9.634817408704351749e+01 7.439565398921302432e-06
9.724862431215606762e+01 7.644371808854207568e-06
9.814907453726863196e+01 7.792559350215289381e-06
9.904952476238118209e+01 7.878402073628152044e-06
9.994997498749374643e+01 7.955541651939964214e-06
1.008504252126062966e+02 8.097239395276614729e-06
1.017508754377188609e+02 8.321598771334618637e-06
1.026513256628314110e+02 8.564493283191095080e-06
1.035517758879439612e+02 8.721964326248538173e-06
1.044522261130565255e+02 8.776473603453718088e-06
1.053526763381690756e+02 8.811307742525457048e-06
1.062531265632816400e+02 8.859129528517356694e-06
1.071535767883941901e+02 8.890139676322679054e-06
1.080540270135067544e+02 8.908520823058265029e-06
1.089544772386193046e+02 8.956569500127503701e-06
1.098549274637318547e+02 9.057639732395355198e-06
1.107553776888444190e+02 9.178548329620226916e-06
1.116558279139569692e+02 9.263658694212049838e-06
1.125562781390695335e+02 9.283234166575782468e-06
1.134567283641820836e+02 9.227126431308918828e-06
1.143571785892946480e+02 9.103302301859200076e-06
1.152576288144071981e+02 8.965811649994706364e-06
1.161580790395197482e+02 8.878538299079480393e-06
1.170585292646323126e+02 8.881934275589431979e-06
1.179589794897448627e+02 8.969684028975434613e-06
1.188594297148574270e+02 9.052676828736234225e-06
1.197598799399699772e+02 9.014255914765392723e-06
1.206603301650825415e+02 8.832521541750141517e-06
1.215607803901950916e+02 8.588403232130833220e-06
1.224612306153076418e+02 8.385461129126530139e-06
1.233616808404202061e+02 8.306635950306844865e-06
1.242621310655327562e+02 8.422565273486495245e-06
1.251625812906453206e+02 8.783137709617943695e-06
1.260630315157578707e+02 9.357484452182905451e-06
1.269634817408704350e+02 1.002878004616100852e-05
1.278639319659829852e+02 1.064792572236207786e-05
1.287643821910955353e+02 1.110787977099044756e-05
1.296648324162080996e+02 1.145974323704700586e-05
1.305652826413206640e+02 1.185388399182656373e-05
1.314657328664331999e+02 1.231526101246693293e-05
1.323661830915457642e+02 1.270309046212968487e-05
1.332666333166583286e+02 1.283378165686011389e-05
1.341670835417708929e+02 1.267152988001314395e-05
1.350675337668834288e+02 1.235917222576561245e-05
1.359679839919959932e+02 1.200289660108744996e-05
1.368684342171085575e+02 1.163406526530547631e-05
1.377688844422210934e+02 1.131112929693502990e-05
1.386693346673336578e+02 1.106799675569419510e-05
1.395697848924462221e+02 1.090517051144579140e-05
1.404702351175587864e+02 1.086614793326821907e-05
1.413706853426713224e+02 1.099675324898768036e-05
1.422711355677838867e+02 1.129297837127030740e-05
1.431715857928964510e+02 1.168596743186831436e-05
1.440720360180089870e+02 1.206141637425954248e-05
1.449724862431215513e+02 1.234870792893074351e-05
1.458729364682341156e+02 1.256299045171494326e-05
1.467733866933466800e+02 1.279200790571243165e-05
1.476738369184592159e+02 1.306915350319913464e-05
1.485742871435717802e+02 1.328399832120125963e-05
1.494747373686843446e+02 1.334859513892057862e-05
1.503751875937968805e+02 1.332476309976188577e-05
1.512756378189094448e+02 1.331849759307724485e-05
1.521760880440220092e+02 1.341137654864718832e-05
1.530765382691345735e+02 1.366186937225427577e-05
1.539769884942471094e+02 1.409815221778702634e-05
1.548774387193596738e+02 1.466692300959998992e-05
1.557778889444722381e+02 1.517147036948615446e-05
1.566783391695847740e+02 1.540512343674069982e-05
1.575787893946973384e+02 1.537651790942405321e-05
1.584792396198099027e+02 1.525111894502929546e-05
1.593796898449224670e+02 1.513120919123429784e-05
1.602801400700350030e+02 1.497809982864692016e-05
1.611805902951475673e+02 1.475111108203135829e-05
1.620810405202601316e+02 1.449991163029708063e-05
1.629814907453726676e+02 1.428266605950713586e-05
1.638819409704852319e+02 1.415106325229332669e-05
1.647823911955977962e+02 1.414430358868848546e-05
1.656828414207103606e+02 1.420076194586133422e-05
1.665832916458228965e+02 1.421967287417604230e-05
1.674837418709354608e+02 1.417069511314053301e-05
1.683841920960480252e+02 1.409658070233896262e-05
1.692846423211605611e+02 1.406347249603334967e-05
1.701850925462731254e+02 1.403336222363788870e-05
1.710855427713856898e+02 1.393889307500667720e-05
1.719859929964982541e+02 1.384306449547439533e-05
1.728864432216107900e+02 1.386040544461760491e-05
1.737868934467233544e+02 1.404706418177946018e-05
1.746873436718359187e+02 1.438865768144272135e-05
1.755877938969484546e+02 1.481988871894268766e-05
1.764882441220610190e+02 1.522473405204010655e-05
1.773886943471735833e+02 1.551209344529665290e-05
1.782891445722861476e+02 1.569323205729599363e-05
1.791895947973986836e+02 1.579472135513838762e-05
1.800900450225112479e+02 1.583522383237804401e-05
1.809904952476238122e+02 1.586602724917312280e-05
1.818909454727363482e+02 1.589361672157492674e-05
1.827913956978489125e+02 1.589588972364972151e-05
1.836918459229614768e+02 1.580875182345048896e-05
1.845922961480740412e+02 1.551756963777917731e-05
1.854927463731865771e+02 1.506515560148676228e-05
1.863931965982991414e+02 1.463381945393252962e-05
1.872936468234117058e+02 1.436444931767751807e-05
1.881940970485242417e+02 1.429472106607510862e-05
1.890945472736368060e+02 1.435506247045952937e-05
1.899949974987493704e+02 1.442073379655067056e-05
1.908954477238619347e+02 1.439874089321080606e-05
1.917958979489744706e+02 1.434321151096330494e-05
1.926963481740870350e+02 1.438594169245159204e-05
1.935967983991995993e+02 1.458129080851405769e-05
1.944972486243121352e+02 1.490963236550992054e-05
1.953976988494246996e+02 1.537168725777496355e-05
1.962981490745372639e+02 1.594107187995473561e-05
1.971985992996498283e+02 1.647532117170913204e-05
1.980990495247623642e+02 1.683622113444806651e-05
1.989994997498749285e+02 1.697492444525443720e-05
1.998999499749874929e+02 1.686335057640297810e-05
2.008004002001000288e+02 1.658750332517385954e-05
2.017008504252125931e+02 1.635180580521229999e-05
2.026013006503251574e+02 1.637775320417837180e-05
2.035017508754377218e+02 1.680149674774200440e-05
2.044022011005502577e+02 1.748876926325742618e-05
2.053026513256628220e+02 1.806708236471852891e-05
2.062031015507753864e+02 1.836351317007755491e-05
2.071035517758879223e+02 1.858038475732298519e-05
2.080040020010004866e+02 1.891175019601098019e-05
2.089044522261130510e+02 1.932574756572570475e-05
2.098049024512256153e+02 1.964761991400556899e-05
2.107053526763381512e+02 1.974082683794301004e-05
2.116058029014507156e+02 1.960809250881751371e-05
2.125062531265632799e+02 1.931172528305993396e-05
2.134067033516758158e+02 1.890311029305016328e-05
2.143071535767883802e+02 1.843374102925761393e-05
2.152076038019009445e+02 1.797711837455295852e-05
2.161080540270135089e+02 1.760692169511487076e-05
2.170085042521260448e+02 1.736644765443514342e-05
2.179089544772386091e+02 1.725958382628386221e-05
2.188094047023511735e+02 1.726813840870377711e-05
2.197098549274637094e+02 1.734079457966972013e-05
2.206103051525762737e+02 1.741384890467345513e-05
2.215107553776888381e+02 1.751514146758645257e-05
2.224112056028014024e+02 1.776673876165278624e-05
2.233116558279139383e+02 1.822056743140591068e-05
2.242121060530265027e+02 1.874486414698901774e-05
2.251125562781390670e+02 1.910993231496937658e-05
2.260130065032516029e+02 1.924953334456848609e-05
2.269134567283641672e+02 1.930435627980209499e-05
2.278139069534767316e+02 1.944432468929846688e-05
2.287143571785892959e+02 1.972703692748732938e-05
2.296148074037018318e+02 2.009213078906433222e-05
2.305152576288143962e+02 2.052340032972807025e-05
2.314157078539269605e+02 2.103577839826935482e-05
2.323161580790394964e+02 2.153572165124266921e-05
2.332166083041520608e+02 2.186730403877726060e-05
2.341170585292646251e+02 2.192446501363139354e-05
2.350175087543771895e+02 2.165751608230480338e-05
2.359179589794897254e+02 2.118540760501019067e-05
2.368184092046022897e+02 2.080485368677504826e-05
2.377188594297148541e+02 2.065429529828115084e-05
2.386193096548273900e+02 2.055466396995314919e-05
2.395197598799399543e+02 2.031827539463877235e-05
2.404202101050525187e+02 1.997808051772257643e-05
2.413206603301650830e+02 1.962598601255616891e-05
2.422211105552776189e+02 1.933958622399608955e-05
2.431215607803901833e+02 1.919389909140597138e-05
2.440220110055027476e+02 1.914790555739243018e-05
2.449224612306152835e+02 1.909911970021094648e-05
2.458229114557278479e+02 1.910179015640103885e-05
2.467233616808404122e+02 1.931679112341215814e-05
2.476238119059529765e+02 1.971614428651256328e-05
2.485242621310655124e+02 2.007583604867555497e-05
2.494247123561780768e+02 2.026493652451524387e-05
2.503251625812906411e+02 2.031503453241438779e-05
2.512256128064031770e+02 2.025229317981695987e-05
2.521260630315157414e+02 2.005455090362316014e-05
2.530265132566283057e+02 1.974516834759197854e-05
2.539269634817408701e+02 1.945407380953745170e-05
2.548274137068534060e+02 1.928020922419187421e-05
2.557278639319659703e+02 1.918543138743393305e-05
2.566283141570785347e+02 1.902922883309997418e-05
2.575287643821910706e+02 1.872845012059385462e-05
2.584292146073036633e+02 1.834194165632350984e-05
2.593296648324161993e+02 1.798325856645909703e-05
2.602301150575287352e+02 1.772529693189728013e-05
2.611305652826413279e+02 1.758637630137444043e-05
2.620310155077538639e+02 1.756582634434322482e-05
2.629314657328663998e+02 1.768030156453690550e-05
2.638319159579789925e+02 1.796214436585376288e-05
2.647323661830915285e+02 1.832594655786109238e-05
2.656328164082040644e+02 1.854233393548309621e-05
2.665332666333166571e+02 1.849634144916630831e-05
2.674337168584291931e+02 1.838778271831742532e-05
2.683341670835417858e+02 1.845605631873667931e-05
2.692346173086543217e+02 1.866983049780437080e-05
2.701350675337668577e+02 1.885313569823333097e-05
2.710355177588794504e+02 1.900945027892649068e-05
2.719359679839919863e+02 1.930883275700745117e-05
2.728364182091045222e+02 1.980725592667110301e-05
2.737368684342171150e+02 2.039264097603770630e-05
2.746373186593296509e+02 2.090367250718890675e-05
2.755377688844421868e+02 2.120690294182324293e-05
2.764382191095547796e+02 2.123612450728392959e-05
2.773386693346673155e+02 2.103235066431035475e-05
2.782391195597798514e+02 2.075154060901512600e-05
2.791395697848924442e+02 2.051191634540705901e-05
2.800400200100049801e+02 2.034458616891527311e-05
2.809404702351175729e+02 2.031501857094638030e-05
2.818409204602301088e+02 2.046927246081062354e-05
2.827413706853426447e+02 2.070455011175387279e-05
2.836418209104552375e+02 2.090407338835449761e-05
2.845422711355677734e+02 2.107380555478663629e-05
2.854427213606803093e+02 2.129533465159398828e-05
2.863431715857929021e+02 2.169058897924751854e-05
2.872436218109054380e+02 2.232706585145883602e-05
2.881440720360179739e+02 2.311738343047368049e-05
2.890445222611305667e+02 2.386822371505280252e-05
2.899449724862431026e+02 2.444899574154705765e-05
2.908454227113556385e+02 2.488584779760375692e-05
2.917458729364682313e+02 2.523156671233976135e-05
2.926463231615807672e+02 2.544181765647596959e-05
2.935467733866933600e+02 2.555985391342552126e-05
2.944472236118058959e+02 2.572411195019338805e-05
2.953476738369184318e+02 2.601671299585541020e-05
2.962481240620310246e+02 2.653238775480203486e-05
2.971485742871435605e+02 2.734660855382566405e-05
2.980490245122560964e+02 2.835387098307118634e-05
2.989494747373686891e+02 2.939468411176745550e-05
2.998499249624812251e+02 3.042202124903372606e-05
3.007503751875937610e+02 3.128439959742655984e-05
3.016508254127063537e+02 3.168970580669339907e-05
3.025512756378188897e+02 3.150135186872782148e-05
3.034517258629314256e+02 3.092312538927994111e-05
3.043521760880440183e+02 3.030140193522586222e-05
3.052526263131565543e+02 2.983979463656916524e-05
3.061530765382691470e+02 2.963222352562283637e-05
3.070535267633816829e+02 2.969877920225467304e-05
3.079539769884942189e+02 2.984753405273120073e-05
3.088544272136068116e+02 2.981861182687680845e-05
3.097548774387193475e+02 2.963682324812896436e-05
3.106553276638318835e+02 2.944863622640935186e-05
3.115557778889444762e+02 2.931734919895455661e-05
3.124562281140570121e+02 2.926389632601000674e-05
3.133566783391695481e+02 2.926860916894245696e-05
3.142571285642821408e+02 2.924469916922634963e-05
3.151575787893946767e+02 2.907517949700135732e-05
3.160580290145072127e+02 2.885283922484983504e-05
3.169584792396198054e+02 2.878279705981502735e-05
3.178589294647323413e+02 2.884504743971561726e-05
3.187593796898449341e+02 2.890062622843541789e-05
3.196598299149574700e+02 2.886605016379741991e-05
3.205602801400700059e+02 2.882822541328519783e-05
3.214607303651825987e+02 2.902774157113898376e-05
3.223611805902951346e+02 2.955463388889089995e-05
3.232616308154076705e+02 3.018456419677091089e-05
3.241620810405202633e+02 3.060738077044872050e-05
3.250625312656327992e+02 3.072150999538167268e-05
3.259629814907453351e+02 3.061208369876547924e-05
3.268634317158579279e+02 3.041315994831448937e-05
3.277638819409704638e+02 3.027936332716829761e-05
3.286643321660829997e+02 3.033142978676224504e-05
3.295647823911955925e+02 3.052916444300487271e-05
3.304652326163081284e+02 3.075182200401127639e-05
3.313656828414207212e+02 3.100943793428861939e-05
3.322661330665332571e+02 3.127590610319104199e-05
3.331665832916457930e+02 3.135845301644723122e-05
3.340670335167583858e+02 3.120206729442649121e-05
3.349674837418709217e+02 3.099606698257480701e-05
3.358679339669834576e+02 3.095174065079772072e-05
3.367683841920960504e+02 3.111888868716724713e-05
3.376688344172085863e+02 3.137439401670486454e-05
3.385692846423211222e+02 3.155913498382642411e-05
3.394697348674337150e+02 3.153348244132323695e-05
3.403701850925462509e+02 3.124803665617438255e-05
3.412706353176587868e+02 3.082847929086599860e-05
3.421710855427713796e+02 3.051047330393091015e-05
3.430715357678839155e+02 3.046573256828159350e-05
3.439719859929965082e+02 3.073446673549453973e-05
3.448724362181090441e+02 3.118897268683411327e-05
3.457728864432215801e+02 3.160216114554197190e-05
3.466733366683341728e+02 3.179543993926394971e-05
3.475737868934467087e+02 3.171221497679673732e-05
3.484742371185592447e+02 3.142182461490983974e-05
3.493746873436718374e+02 3.101298150449535506e-05
3.502751375687843733e+02 3.056595489702422118e-05
3.511755877938969093e+02 3.013035164051471851e-05
3.520760380190095020e+02 2.973604778880365693e-05
3.529764882441220379e+02 2.943936637733291195e-05
3.538769384692345739e+02 2.927752407439527759e-05
3.547773886943471666e+02 2.923765814148183566e-05
3.556778389194597025e+02 2.933291265614553905e-05
3.565782891445722953e+02 2.961508274253538145e-05
3.574787393696848312e+02 3.005072795780359688e-05
3.583791895947973671e+02 3.049845710894033801e-05
3.592796398199099599e+02 3.078489816218441232e-05
3.601800900450224958e+02 3.083848786493924142e-05
3.610805402701350317e+02 3.070723769546476078e-05
3.619809904952476245e+02 3.044946691634206268e-05
3.628814407203601604e+02 3.015404295646061315e-05
3.637818909454726963e+02 2.997904786130713023e-05
3.646823411705852891e+02 3.005405783142085592e-05
3.655827913956978250e+02 3.032234121284612004e-05
3.664832416208103609e+02 3.058770884210158287e-05
3.673836918459229537e+02 3.072962052207356756e-05
3.682841420710354896e+02 3.073525071217986769e-05
3.691845922961480824e+02 3.064947029846277544e-05
3.700850425212606183e+02 3.061273110013750621e-05
3.709854927463731542e+02 3.068034743518087648e-05
3.718859429714857470e+02 3.068193499979252184e-05
3.727863931965982829e+02 3.049457500651345907e-05
3.736868434217108188e+02 3.021587732040677713e-05
3.745872936468234116e+02 2.997117257632936105e-05
3.754877438719359475e+02 2.982012846850827788e-05
3.763881940970484834e+02 2.979622658821884764e-05
3.772886443221610762e+02 2.979866543968180342e-05
3.781890945472736121e+02 2.965577154705396798e-05
3.790895447723861480e+02 2.942073542282056165e-05
3.799899949974987408e+02 2.924953930144496357e-05
3.808904452226112767e+02 2.908740494252741088e-05
3.817908954477238694e+02 2.888470925708508001e-05
3.826913456728364054e+02 2.877537415838730188e-05
3.835917958979489413e+02 2.885077976473957395e-05
3.844922461230615340e+02 2.901726168118765782e-05
3.853926963481740700e+02 2.909910333291281057e-05
3.862931465732866059e+02 2.903148563487374580e-05
3.871935967983991986e+02 2.884252559874176823e-05
3.880940470235117346e+02 2.861107082055261953e-05
3.889944972486242705e+02 2.845642401209505770e-05
3.898949474737368632e+02 2.848236474185543142e-05
3.907953976988493991e+02 2.870742057833266001e-05
3.916958479239619351e+02 2.898489169994437794e-05
3.925962981490745278e+02 2.918426778831073221e-05
3.934967483741870637e+02 2.937920279895447320e-05
3.943971985992996565e+02 2.956023343601738118e-05
3.952976488244121924e+02 2.954884255520535572e-05
3.961980990495247283e+02 2.933205018807205801e-05
3.970985492746373211e+02 2.911656378108025197e-05
3.979989994997498570e+02 2.911294032721007755e-05
3.988994497248623929e+02 2.937912441109733446e-05
3.997998999499749857e+02 2.977324729865206044e-05
4.007003501750875216e+02 3.013462263990848342e-05
4.016008004002000575e+02 3.041579898725882368e-05
4.025012506253126503e+02 3.058243662780257773e-05
4.034017008504251862e+02 3.058596133272691671e-05
4.043021510755377221e+02 3.042127689479464888e-05
4.052026013006503149e+02 3.018741541759037978e-05
4.061030515257628508e+02 3.005702067275842397e-05
4.070035017508754436e+02 3.008759897643144071e-05
4.079039519759879795e+02 3.015459087874195452e-05
4.088044022011005154e+02 3.006126684966146665e-05
4.097048524262131082e+02 2.970438015295374188e-05
4.106053026513256441e+02 2.916457330424677540e-05
4.115057528764381800e+02 2.868120230652497539e-05
4.124062031015507728e+02 2.843449209899921021e-05
4.133066533266633087e+02 2.837700715918243965e-05
4.142071035517758446e+02 2.836114422200653140e-05
4.151075537768884374e+02 2.827532485963654251e-05
4.160080040020009733e+02 2.802295069106687240e-05
4.169084542271135092e+02 2.761214555032726615e-05
4.178089044522261020e+02 2.717648166448283011e-05
4.187093546773386379e+02 2.687881347568295241e-05
4.196098049024512306e+02 2.682422628953022456e-05
4.205102551275637666e+02 2.697039199278031461e-05
4.214107053526763025e+02 2.712699591757253241e-05
4.223111555777888952e+02 2.710054671936686240e-05
4.232116058029014312e+02 2.689527792485358113e-05
4.241120560280139671e+02 2.667946020682242830e-05
4.250125062531265598e+02 2.655690908267558027e-05
4.259129564782390958e+02 2.656071347247672648e-05
4.268134067033516317e+02 2.670377227099422231e-05
4.277138569284642244e+02 2.689902708398514460e-05
4.286143071535767604e+02 2.705385251656857636e-05
4.295147573786892963e+02 2.716376333002952972e-05
4.304152076038018890e+02 2.722698391087904383e-05
4.313156578289144250e+02 2.724162333942135172e-05
4.322161080540270177e+02 2.723501066171203511e-05
4.331165582791395536e+02 2.728388160820791777e-05
4.340170085042520896e+02 2.751499154531253919e-05
4.349174587293646823e+02 2.800351864078505927e-05
4.358179089544772182e+02 2.874157566007892614e-05
4.367183591795897541e+02 2.960019812119834231e-05
4.376188094047023469e+02 3.026371974196867277e-05
4.385192596298148828e+02 3.038649108614321337e-05
4.394197098549274187e+02 2.993422816771239351e-05
4.403201600800400115e+02 2.925231971575655872e-05
4.412206103051525474e+02 2.869130307422792893e-05
4.421210605302650833e+02 2.835365511364630500e-05
4.430215107553776761e+02 2.824921478340143902e-05
4.439219609804902120e+02 2.842405487287302085e-05
4.448224112056028048e+02 2.884864689613698819e-05
4.457228614307153407e+02 2.937620420781610753e-05
4.466233116558278766e+02 2.979644963785548658e-05
4.475237618809404694e+02 2.992156751981958439e-05
4.484242121060530053e+02 2.971730215119459473e-05
4.493246623311655412e+02 2.928155282790458484e-05
4.502251125562781340e+02 2.878112515687187707e-05
4.511255627813906699e+02 2.841029144423591604e-05
4.520260130065032058e+02 2.822707293426825342e-05
4.529264632316157986e+02 2.811093411244602780e-05
4.538269134567283345e+02 2.795941959415491391e-05
4.547273636818408704e+02 2.780115950980663908e-05
4.556278139069534632e+02 2.773232961083142812e-05
4.565282641320659991e+02 2.783919466900351119e-05
4.574287143571785919e+02 2.814396453825172308e-05
4.583291645822911278e+02 2.856647829369781701e-05
4.592296148074036637e+02 2.895751311943133458e-05
4.601300650325162565e+02 2.924529380120079427e-05
4.610305152576287924e+02 2.943642374069628656e-05
4.619309654827413283e+02 2.949447230764246842e-05
4.628314157078539210e+02 2.940796158288187066e-05
4.637318659329664570e+02 2.929728428197341694e-05
4.646323161580789929e+02 2.929139342153760779e-05
4.655327663831915856e+02 2.939164313424438418e-05
4.664332166083041216e+02 2.953783749610416301e-05
4.673336668334167143e+02 2.973253013288281921e-05
4.682341170585292502e+02 3.002458517886536854e-05
4.691345672836417862e+02 3.033227653078770283e-05
4.700350175087543789e+02 3.049992981690251333e-05
4.709354677338669148e+02 3.047134800965304371e-05
4.718359179589794508e+02 3.022855324274367306e-05
4.727363681840920435e+02 2.983996249825317717e-05
4.736368184092045794e+02 2.950054330841665704e-05
4.745372686343171154e+02 2.934431579293494236e-05
4.754377188594297081e+02 2.936417645257226872e-05
4.763381690845422440e+02 2.950221985792612521e-05
4.772386193096547800e+02 2.971867907540924584e-05
4.781390695347673727e+02 2.996478208297399115e-05
4.790395197598799086e+02 3.011925191498026407e-05
4.799399699849925014e+02 3.003969906949648883e-05
4.808404202101050373e+02 2.977287768778406288e-05
4.817408704352175732e+02 2.953323818686768681e-05
4.826413206603301660e+02 2.949429086379087321e-05
4.835417708854427019e+02 2.973527741220739808e-05
4.844422211105552378e+02 3.024348301003349442e-05
4.853426713356678306e+02 3.089098767953024795e-05
4.862431215607803665e+02 3.153365808793956139e-05
4.871435717858929024e+02 3.211632683725076763e-05
4.880440220110054952e+02 3.261807226243773123e-05
4.889444722361180311e+02 3.303298064576124833e-05
4.898449224612305670e+02 3.335780629287525242e-05
4.907453726863431598e+02 3.353551009429029658e-05
4.916458229114556957e+02 3.348663565874461235e-05
4.925462731365682885e+02 3.326113163902935394e-05
4.934467233616808244e+02 3.302749530431631350e-05
4.943471735867933603e+02 3.284895688993342086e-05
4.952476238119059531e+02 3.264542276993225879e-05
4.961480740370184890e+02 3.235469255970891767e-05
4.970485242621310249e+02 3.202057643938864187e-05
4.979489744872436177e+02 3.170450372587829029e-05
4.988494247123561536e+02 3.151826840286502286e-05
4.997498749374686895e+02 3.166143455102848263e-05
5.006503251625812823e+02 3.219423535280555325e-05
5.015507753876938182e+02 3.290362452452823597e-05
5.024512256128063541e+02 3.351718474139786356e-05
5.033516758379189469e+02 3.389251789258977508e-05
5.042521260630314828e+02 3.403648393508781444e-05
5.051525762881440755e+02 3.406513236124137235e-05
5.060530265132566115e+02 3.420467259732344471e-05
5.069534767383691474e+02 3.460530317199669463e-05
5.078539269634817401e+02 3.522577509750718947e-05
5.087543771885942760e+02 3.596688193834440426e-05
5.096548274137068120e+02 3.667550912563779099e-05
5.105552776388194047e+02 3.714562789399947348e-05
5.114557278639319406e+02 3.727355172617282568e-05
5.123561780890445334e+02 3.712656508128162264e-05
5.132566283141570693e+02 3.687663152649976603e-05
5.141570785392696052e+02 3.667380761218981707e-05
5.150575287643821412e+02 3.656806573041439706e-05
5.159579789894946771e+02 3.656517134394966209e-05
5.168584292146073267e+02 3.670402454638158952e-05
5.177588794397198626e+02 3.706211484655943931e-05
5.186593296648323985e+02 3.766662502445445568e-05
5.195597798899449344e+02 3.833774381685292094e-05
5.204602301150574704e+02 3.883528872337236893e-05
5.213606803401700063e+02 3.909924253268487324e-05
5.222611305652826559e+02 3.924885336917048162e-05
5.231615807903951918e+02 3.940440854274826710e-05
5.240620310155077277e+02 3.957486456301201327e-05
5.249624812406202636e+02 3.969326459416352905e-05
5.258629314657327996e+02 3.976278842879125817e-05
5.267633816908454492e+02 3.991708610416029823e-05
5.276638319159579851e+02 4.021093500866046525e-05
5.285642821410705210e+02 4.055981660935307088e-05
5.294647323661830569e+02 4.097928015994940673e-05
5.303651825912955928e+02 4.153246232504519223e-05
5.312656328164081287e+02 4.216879405516769507e-05
5.321660830415207784e+02 4.275832723130869989e-05
5.330665332666333143e+02 4.324441486434749382e-05
5.339669834917458502e+02 4.372939974056257856e-05
5.348674337168583861e+02 4.430414852185686280e-05
5.357678839419709220e+02 4.495055124992397832e-05
5.366683341670835716e+02 4.561820709714188771e-05
5.375687843921961075e+02 4.621472287713819570e-05
5.384692346173086435e+02 4.666532446475197643e-05
5.393696848424211794e+02 4.701977805719911152e-05
5.402701350675337153e+02 4.734082497838233093e-05
5.411705852926462512e+02 4.759957162314401764e-05
5.420710355177589008e+02 4.781026221939869221e-05
5.429714857428714367e+02 4.806512376258169350e-05
5.438719359679839727e+02 4.836317361324610502e-05
5.447723861930965086e+02 4.862133728551990149e-05
5.456728364182090445e+02 4.880633834115605631e-05
5.465732866433215804e+02 4.894719910363863678e-05
5.474737368684342300e+02 4.910815321460050326e-05
5.483741870935467659e+02 4.938137809562058824e-05
5.492746373186593019e+02 4.980436101351478376e-05
5.501750875437718378e+02 5.032423384449202325e-05
5.510755377688843737e+02 5.086735945830424017e-05
5.519759879939970233e+02 5.134085103939000104e-05
5.528764382191095592e+02 5.161193723698302114e-05
5.537768884442220951e+02 5.173380698848883079e-05
5.546773386693346310e+02 5.193218823093632763e-05
5.555777888944471670e+02 5.227194870350652933e-05
5.564782391195597029e+02 5.258513616070438729e-05
5.573786893446723525e+02 5.266723160379713074e-05
5.582791395697848884e+02 5.245582299501106712e-05
5.591795897948974243e+02 5.211872085611868441e-05
5.600800400200099602e+02 5.181061189468319061e-05
5.609804902451224962e+02 5.144460852700889097e-05
5.618809404702351458e+02 5.093883524941612563e-05
5.627813906953476817e+02 5.038861436114832536e-05
5.636818409204602176e+02 4.995378719530799686e-05
5.645822911455727535e+02 4.976883115174761445e-05
5.654827413706852894e+02 4.987433885655830892e-05
5.663831915957978254e+02 5.021854861495984325e-05
5.672836418209104750e+02 5.063633146550280565e-05
5.681840920460230109e+02 5.088222123100571504e-05
5.690845422711355468e+02 5.084541462740113708e-05
5.699849924962480827e+02 5.051388120762457271e-05
5.708854427213606186e+02 4.987173152822774744e-05
5.717858929464731546e+02 4.894025063827267129e-05
5.726863431715858042e+02 4.787382560741337497e-05
5.735867933966983401e+02 4.691234639651118007e-05
5.744872436218108760e+02 4.624489464290166472e-05
5.753876938469234119e+02 4.595870605238834474e-05
5.762881440720359478e+02 4.599787626235848399e-05
5.771885942971485974e+02 4.623866121296197392e-05
5.780890445222611334e+02 4.665362106572167343e-05
5.789894947473736693e+02 4.730482850938356933e-05
5.798899449724862052e+02 4.813975654433384044e-05
5.807903951975987411e+02 4.883747660655971982e-05
5.816908454227112770e+02 4.903701068376161288e-05
5.825912956478239266e+02 4.867001003995991151e-05
5.834917458729364625e+02 4.785824707872813173e-05
5.843921960980489985e+02 4.688294970607330073e-05
5.852926463231615344e+02 4.612426403122819695e-05
5.861930965482740703e+02 4.565859459317445616e-05
5.870935467733867199e+02 4.527789254445268728e-05
5.879939969984992558e+02 4.488288787398085454e-05
5.888944472236117917e+02 4.444273610431513546e-05
5.897948974487243277e+02 4.388055960051750879e-05
5.906953476738368636e+02 4.323790057807905615e-05
5.915957978989493995e+02 4.268860716373069859e-05
5.924962481240620491e+02 4.239167497379176485e-05
5.933966983491745850e+02 4.231031432961826906e-05
5.942971485742871209e+02 4.223047922157945256e-05
5.951975987993996569e+02 4.193097509294346211e-05
5.960980490245121928e+02 4.138755140531167823e-05
5.969984992496247287e+02 4.075371243935914270e-05
5.978989494747373783e+02 4.018043878662742586e-05
5.987993996998499142e+02 3.965517436323362152e-05
5.996998499249624501e+02 3.911552141336188952e-05
6.006003001500749860e+02 3.858516896607443278e-05
6.015007503751875220e+02 3.809715179207608527e-05
6.024012006003001716e+02 3.769371133523467956e-05
6.033016508254127075e+02 3.745573799156176137e-05
6.042021010505252434e+02 3.743027211800733237e-05
6.051025512756377793e+02 3.752482862618797835e-05
6.060030015007503152e+02 3.757778831395723265e-05
6.069034517258628512e+02 3.760230980477939519e-05
6.078039019509755008e+02 3.776558207178531095e-05
6.087043521760880367e+02 3.808380244212944833e-05
6.096048024012005726e+02 3.838336326122850621e-05
6.105052526263131085e+02 3.851412770525565601e-05
6.114057028514256444e+02 3.849623378826964632e-05
6.123061530765382940e+02 3.845937500793540246e-05
6.132066033016508300e+02 3.846100178429763425e-05
6.141070535267633659e+02 3.845372724346959317e-05
6.150075037518759018e+02 3.844387414035559065e-05
6.159079539769884377e+02 3.851347374548879705e-05
6.168084042021009736e+02 3.873950441834917449e-05
6.177088544272136232e+02 3.908070168356529489e-05
6.186093046523261592e+02 3.928018218961622758e-05
6.195097548774386951e+02 3.913864730503494174e-05
6.204102051025512310e+02 3.872726006305557368e-05
6.213106553276637669e+02 3.823767666968489793e-05
6.222111055527763028e+02 3.776550440020851263e-05
6.231115557778889524e+02 3.735328387722173051e-05
6.240120060030014884e+02 3.705730283060777280e-05
6.249124562281140243e+02 3.693984172729857256e-05
6.258129064532265602e+02 3.714643082075529779e-05
6.267133566783390961e+02 3.780083845997384533e-05
6.276138069034517457e+02 3.874056701427522527e-05
6.285142571285642816e+02 3.958013751497324194e-05
6.294147073536768175e+02 4.005451163195555852e-05
6.303151575787893535e+02 4.009582088130106571e-05
6.312156078039018894e+02 3.982726739766719688e-05
6.321160580290144253e+02 3.958571856774379446e-05
6.330165082541270749e+02 3.964797604358129344e-05
6.339169584792396108e+02 3.997804350260273379e-05
6.348174087043521467e+02 4.034207819996282296e-05
6.357178589294646827e+02 4.057836832124593591e-05
6.366183091545772186e+02 4.070856773762158786e-05
6.375187593796898682e+02 4.088793191959354706e-05
6.384192096048024041e+02 4.119018803164385456e-05
6.393196598299149400e+02 4.143633227228715960e-05
6.402201100550274759e+02 4.134498374329051169e-05
6.411205602801400119e+02 4.090972712618683448e-05
6.420210105052525478e+02 4.032429248291771609e-05
6.429214607303651974e+02 3.965280656961408921e-05
6.438219109554777333e+02 3.885602980859924875e-05
6.447223611805902692e+02 3.798923115323774377e-05
6.456228114057028051e+02 3.721055917360120534e-05
6.465232616308153411e+02 3.661243515414184049e-05
6.474237118559278770e+02 3.620448904042173222e-05
6.483241620810405266e+02 3.597159511566468603e-05
6.492246123061530625e+02 3.590414483867185221e-05
6.501250625312655984e+02 3.603316089592302127e-05
6.510255127563781343e+02 3.633054363442682859e-05
6.519259629814906702e+02 3.659492961765960006e-05
6.528264132066033198e+02 3.664878081525986639e-05
6.537268634317158558e+02 3.653547819322048294e-05
6.546273136568283917e+02 3.639410773620806129e-05
6.555277638819409276e+02 3.628433368461102992e-05
6.564282141070534635e+02 3.618564087969485351e-05
6.573286643321659994e+02 3.613587018763783388e-05
6.582291145572786490e+02 3.621801150845689821e-05
6.591295647823911850e+02 3.640917780871472245e-05
6.600300150075037209e+02 3.659135025015844151e-05
6.609304652326162568e+02 3.670748543279458737e-05
6.618309154577287927e+02 3.672073087319527865e-05
6.627313656828414423e+02 3.659895638252387985e-05
6.636318159079539782e+02 3.633753970956533663e-05
6.645322661330665142e+02 3.597404782548942323e-05
6.654327163581790501e+02 3.563090720766898923e-05
6.663331665832915860e+02 3.545494408423293937e-05
6.672336168084041219e+02 3.548267517599188765e-05
6.681340670335167715e+02 3.556295613947202953e-05
6.690345172586293074e+02 3.548551650345327146e-05
6.699349674837418434e+02 3.518677886300147642e-05
6.708354177088543793e+02 3.476628032748223430e-05
6.717358679339669152e+02 3.436296018603836604e-05
6.726363181590794511e+02 3.409935989021759597e-05
6.735367683841921007e+02 3.410755065168232994e-05
6.744372186093046366e+02 3.445217565038372520e-05
6.753376688344171725e+02 3.502583291459017434e-05
6.762381190595297085e+02 3.561815384254213648e-05
6.771385692846422444e+02 3.613009066436063011e-05
6.780390195097548940e+02 3.659294961488846441e-05
6.789394697348674299e+02 3.697229568534168078e-05
6.798399199599799658e+02 3.712778523411834077e-05
6.807403701850925017e+02 3.698202657811477614e-05
6.816408204102050377e+02 3.659740820069093636e-05
6.825412706353175736e+02 3.611730788570780731e-05
6.834417208604302232e+02 3.567936900220928332e-05
6.843421710855427591e+02 3.537056697084284187e-05
6.852426213106552950e+02 3.513637662348224211e-05
6.861430715357678309e+02 3.483189575837198325e-05
6.870435217608803669e+02 3.443501095674511895e-05
6.879439719859930165e+02 3.408960856206806676e-05
6.888444222111055524e+02 3.392026389949896753e-05
6.897448724362180883e+02 3.392158932919972139e-05
6.906453226613306242e+02 3.396005379184408030e-05
6.915457728864431601e+02 3.389506115905136782e-05
6.924462231115556961e+02 3.367760647005047897e-05
6.933466733366683457e+02 3.334692433706783345e-05
6.942471235617808816e+02 3.301161613027329251e-05
6.951475737868934175e+02 3.282953671001983165e-05
6.960480240120059534e+02 3.293915558387246342e-05
6.969484742371184893e+02 3.331252665389257704e-05
6.978489244622311389e+02 3.376387368663140551e-05
6.987493746873436749e+02 3.411238723047443265e-05
6.996498249124562108e+02 3.425870346285760939e-05
7.005502751375687467e+02 3.417306729816330498e-05
7.014507253626812826e+02 3.388340555200465836e-05
7.023511755877938185e+02 3.352785896119574947e-05
7.032516258129064681e+02 3.328777803745144301e-05
7.041520760380190040e+02 3.321850220618922489e-05
7.050525262631315400e+02 3.328198477028731063e-05
7.059529764882440759e+02 3.343912169276924066e-05
7.068534267133566118e+02 3.367555868201807290e-05
7.077538769384691477e+02 3.392682292462656117e-05
7.086543271635817973e+02 3.412228974942254430e-05
7.095547773886943332e+02 3.426351433805734071e-05
7.104552276138068692e+02 3.431552099261624215e-05
7.113556778389194051e+02 3.421742936195515720e-05
7.122561280640319410e+02 3.399194246688188779e-05
7.131565782891445906e+02 3.374748100161697545e-05
7.140570285142571265e+02 3.360968861050915259e-05
7.149574787393696624e+02 3.367791090642438241e-05
7.158579289644821984e+02 3.393758267763016188e-05
7.167583791895947343e+02 3.427579586629821124e-05
7.176588294147072702e+02 3.461006063680262891e-05
7.185592796398199198e+02 3.496362725291486873e-05
7.194597298649324557e+02 3.535669029038934118e-05
7.203601800900449916e+02 3.578206634710459248e-05
7.212606303151575275e+02 3.625321604627744607e-05
7.221610805402700635e+02 3.675026874946746259e-05
7.230615307653827131e+02 3.727602669320213971e-05
7.239619809904952490e+02 3.787280470630170135e-05
7.248624312156077849e+02 3.852285911562223814e-05
7.257628814407203208e+02 3.909663802313116703e-05
7.266633316658328567e+02 3.941146478108431236e-05
7.275637818909453927e+02 3.943844272540956660e-05
7.284642321160580423e+02 3.937444169135839408e-05
7.293646823411705782e+02 3.927065059214424660e-05
7.302651325662831141e+02 3.906388588540356970e-05
7.311655827913956500e+02 3.892465943654259831e-05
7.320660330165081859e+02 3.904008449351123304e-05
7.329664832416207219e+02 3.934575912388377927e-05
7.338669334667333715e+02 3.969756291939705251e-05
7.347673836918459074e+02 3.998939346038538637e-05
7.356678339169584433e+02 4.016504533908934105e-05
7.365682841420709792e+02 4.020635835996849786e-05
7.374687343671835151e+02 4.011583532028433532e-05
7.383691845922961647e+02 3.993662600167351780e-05
7.392696348174087007e+02 3.972311887631219465e-05
7.401700850425212366e+02 3.951809906981148065e-05
7.410705352676337725e+02 3.946586769855253793e-05
7.419709854927463084e+02 3.974734092527401163e-05
7.428714357178588443e+02 4.031178574799786335e-05
7.437718859429714939e+02 4.094867493149884779e-05
7.446723361680840299e+02 4.148624860299341809e-05
7.455727863931965658e+02 4.177398104741830525e-05
7.464732366183091017e+02 4.181421887113448318e-05
7.473736868434216376e+02 4.184311224870149621e-05
7.482741370685342872e+02 4.196098409782859521e-05
7.491745872936468231e+02 4.200781245971761218e-05
7.500750375187593590e+02 4.193534655933718754e-05
7.509754877438718950e+02 4.188946212992088354e-05
7.518759379689844309e+02 4.191072970742404624e-05
7.527763881940969668e+02 4.184760637308108130e-05
7.536768384192096164e+02 4.155505684430960513e-05
7.545772886443221523e+02 4.108707946198091493e-05
7.554777388694346882e+02 4.068466083569750261e-05
7.563781890945472242e+02 4.063928960478458612e-05
7.572786393196597601e+02 4.109428675030889189e-05
7.581790895447722960e+02 4.191216458123313071e-05
7.590795397698849456e+02 4.284305544593777461e-05
7.599799899949974815e+02 4.364236353770985694e-05
7.608804402201100174e+02 4.415810171979006143e-05
7.617808904452225534e+02 4.441141351205067672e-05
7.626813406703350893e+02 4.450529344784573638e-05
7.635817908954477389e+02 4.462669500779032852e-05
7.644822411205602748e+02 4.495757350990185123e-05
7.653826913456728107e+02 4.549290097336589821e-05
7.662831415707853466e+02 4.600635521054672635e-05
7.671835917958978825e+02 4.622420395529367690e-05
7.680840420210104185e+02 4.619702791027943938e-05
7.689844922461230681e+02 4.631212407002749241e-05
7.698849424712356040e+02 4.676327722138048069e-05
7.707853926963481399e+02 4.725860152734673238e-05
7.716858429214606758e+02 4.741453667033632802e-05
7.725862931465732117e+02 4.717898543195938200e-05
7.734867433716858613e+02 4.676712586021856337e-05
7.743871935967983973e+02 4.628481918267618700e-05
7.752876438219109332e+02 4.566925615020706942e-05
7.761880940470234691e+02 4.495256290611745597e-05
7.770885442721360050e+02 4.424990900744872906e-05
7.779889944972485409e+02 4.369270205472289026e-05
7.788894447223611905e+02 4.333182051716690159e-05
7.797898949474737265e+02 4.311830785111383949e-05
7.806903451725862624e+02 4.299007839531391543e-05
7.815907953976987983e+02 4.289916243851943991e-05
7.824912456228113342e+02 4.281488828001198517e-05
7.833916958479238701e+02 4.269308438439482967e-05
7.842921460730365197e+02 4.254313902485144116e-05
7.851925962981490557e+02 4.254439332187626686e-05
7.860930465232615916e+02 4.288769082330699063e-05
7.869934967483741275e+02 4.363417850475546076e-05
7.878939469734866634e+02 4.462420662335361127e-05
7.887943971985993130e+02 4.549691168888905487e-05
7.896948474237118489e+02 4.593829488949009141e-05
7.905952976488243849e+02 4.590366657758973313e-05
7.914957478739369208e+02 4.565242424975299995e-05
7.923961980990494567e+02 4.552308821699856378e-05
7.932966483241619926e+02 4.563231663738518171e-05
7.941970985492746422e+02 4.591288992699049464e-05
7.950975487743871781e+02 4.628246040692352513e-05
7.959979989994997140e+02 4.658305678723986582e-05
7.968984492246122500e+02 4.666716474163899665e-05
7.977988994497247859e+02 4.656974355840117142e-05
7.986993496748374355e+02 4.650684121372265409e-05
7.995997998999499714e+02 4.671128541815255291e-05
8.005002501250625073e+02 4.729760991962244829e-05
8.014007003501750432e+02 4.817818875650819104e-05
8.023011505752875792e+02 4.903318434260050678e-05
8.032016008004001151e+02 4.961134953210223283e-05
8.041020510255127647e+02 4.990189659026907147e-05
8.050025012506253006e+02 4.980443240227641903e-05
8.059029514757378365e+02 4.908468541712958784e-05
8.068034017008503724e+02 4.783812593681664428e-05
8.077038519259629084e+02 4.659760178717740328e-05
8.086043021510754443e+02 4.585078494281179517e-05
8.095047523761880939e+02 4.566739883683121847e-05
8.104052026013006298e+02 4.581325742132443332e-05
8.113056528264131657e+02 4.605720998159622796e-05
8.122061030515257016e+02 4.633887467871488324e-05
8.131065532766382375e+02 4.670096098147134291e-05
8.140070035017508872e+02 4.708422397481146741e-05
8.149074537268634231e+02 4.740912545540682519e-05
8.158079039519759590e+02 4.764763218935210982e-05
8.167083541770884949e+02 4.773159729775350139e-05
8.176088044022010308e+02 4.764639338710735793e-05
8.185092546273135667e+02 4.746473085204569686e-05
8.194097048524262163e+02 4.723461984938709103e-05
8.203101550775387523e+02 4.699475814368473097e-05
8.212106053026512882e+02 4.681966717554256191e-05
8.221110555277638241e+02 4.667671867221705878e-05
8.230115057528763600e+02 4.647456104936818761e-05
8.239119559779890096e+02 4.623712026680973331e-05
8.248124062031015455e+02 4.599975144610275512e-05
8.257128564282140815e+02 4.581902523579017898e-05
8.266133066533266174e+02 4.587395894491377071e-05
8.275137568784391533e+02 4.631425623730611019e-05
8.284142071035516892e+02 4.703273334995795537e-05
8.293146573286643388e+02 4.781227703175794185e-05
8.302151075537768747e+02 4.853446942548861310e-05
8.311155577788894107e+02 4.913112650303590542e-05
8.320160080040019466e+02 4.958303199749719076e-05
8.329164582291144825e+02 4.989023669392595237e-05
8.338169084542270184e+02 4.994550766600187137e-05
8.347173586793396680e+02 4.966061262265729039e-05
8.356178089044522039e+02 4.920222910256963258e-05
8.365182591295647399e+02 4.889696991420815360e-05
8.374187093546772758e+02 4.885771906054051111e-05
8.383191595797898117e+02 4.895680021963581119e-05
8.392196098049024613e+02 4.900753971829285816e-05
8.401200600300149972e+02 4.883107136903660340e-05
8.410205102551275331e+02 4.846583948612830821e-05
8.419209604802400690e+02 4.811861498568705214e-05
8.428214107053526050e+02 4.792240373349158439e-05
8.437218609304651409e+02 4.795295083818865243e-05
8.446223111555777905e+02 4.823610502849679470e-05
8.455227613806903264e+02 4.865906017680798396e-05
8.464232116058028623e+02 4.901287846684631471e-05
8.473236618309153982e+02 4.919793649346763638e-05
8.482241120560279342e+02 4.927491040640595967e-05
8.491245622811405838e+02 4.927204904031674143e-05
8.500250125062531197e+02 4.925152464338200834e-05
8.509254627313656556e+02 4.930805070157083368e-05
8.518259129564781915e+02 4.947739850468910075e-05
8.527263631815907274e+02 4.966711464651727288e-05
8.536268134067032634e+02 4.969108740277141067e-05
8.545272636318159130e+02 4.944388365729112577e-05
8.554277138569284489e+02 4.893557709494334362e-05
8.563281640820409848e+02 4.824998320057654878e-05
8.572286143071535207e+02 4.751289407865905801e-05
8.581290645322660566e+02 4.687358509044418952e-05
8.590295147573785925e+02 4.641284627565433969e-05
8.599299649824912422e+02 4.623238059792196016e-05
8.608304152076037781e+02 4.647936899861605938e-05
8.617308654327163140e+02 4.706415477632551329e-05
8.626313156578288499e+02 4.768456745216237966e-05
8.635317658829413858e+02 4.806013316613168339e-05
8.644322161080540354e+02 4.809730739098143354e-05
8.653326663331665713e+02 4.795978676245423703e-05
8.662331165582791073e+02 4.784828722926402772e-05
8.671335667833916432e+02 4.773838512083455150e-05
8.680340170085041791e+02 4.756245949147212983e-05
8.689344672336167150e+02 4.739579367069778954e-05
8.698349174587293646e+02 4.732359637269951573e-05
8.707353676838419005e+02 4.738191443973785872e-05
8.716358179089544365e+02 4.763727516112268554e-05
8.725362681340669724e+02 4.810126489193432091e-05
8.734367183591795083e+02 4.867199035817758215e-05
8.743371685842921579e+02 4.918318256828321794e-05
8.752376188094046938e+02 4.952382768300531070e-05
8.761380690345172297e+02 4.971610624988881372e-05
8.770385192596297657e+02 4.990963077218370459e-05
8.779389694847423016e+02 5.017511592723917580e-05
8.788394197098548375e+02 5.040552027002122716e-05
8.797398699349674871e+02 5.056071555547744372e-05
8.806403201600800230e+02 5.070011537894908329e-05
8.815407703851925589e+02 5.082090183868941114e-05
8.824412206103050949e+02 5.082449187528965100e-05
8.833416708354176308e+02 5.066118356676823292e-05
8.842421210605301667e+02 5.036660530770654465e-05
8.851425712856428163e+02 5.004730545570921921e-05
8.860430215107553522e+02 4.984301576595257985e-05
8.869434717358678881e+02 4.985945671465199640e-05
8.878439219609804240e+02 5.013679111402132715e-05
8.887443721860929600e+02 5.045905884455297491e-05
8.896448224112056096e+02 5.051641146623929061e-05
8.905452726363181455e+02 5.045642050911217005e-05
8.914457228614306814e+02 5.069648857880611930e-05
8.923461730865432173e+02 5.144220041419202344e-05
8.932466233116557532e+02 5.260512940277486770e-05
8.941470735367682892e+02 5.383981187579873757e-05
8.950475237618809388e+02 5.469725331810932912e-05
8.959479739869934747e+02 5.498393434204579565e-05
8.968484242121060106e+02 5.491379021653992274e-05
8.977488744372185465e+02 5.477983473062579198e-05
8.986493246623310824e+02 5.476972284366871395e-05
8.995497748874437320e+02 5.514698865540327568e-05
9.004502251125562680e+02 5.610392759875367587e-05
9.013506753376688039e+02 5.736147723990066933e-05
9.022511255627813398e+02 5.832615697273968767e-05
9.031515757878938757e+02 5.871685184354575275e-05
9.040520260130064116e+02 5.871962458233813788e-05
9.049524762381190612e+02 5.870468722125165163e-05
9.058529264632315972e+02 5.889443626406713078e-05
9.067533766883441331e+02 5.932667901058093728e-05
9.076538269134566690e+02 6.006020929792246278e-05
9.085542771385692049e+02 6.121265277382538679e-05
9.094547273636817408e+02 6.263773134512649811e-05
9.103551775887943904e+02 6.374478962818059592e-05
9.112556278139069263e+02 6.403404632386110564e-05
9.121560780390194623e+02 6.368848153665139131e-05
9.130565282641319982e+02 6.327881141470057989e-05
9.139569784892445341e+02 6.322057849840271302e-05
9.148574287143571837e+02 6.362748651631365126e-05
9.157578789394697196e+02 6.438738550423040428e-05
9.166583291645822555e+02 6.538490372758551936e-05
9.175587793896947915e+02 6.664835906925977490e-05
9.184592296148073274e+02 6.816961430055939932e-05
9.193596798399198633e+02 6.982487701246922621e-05
9.202601300650325129e+02 7.143632637226092117e-05
9.211605802901450488e+02 7.279326303346010392e-05
9.220610305152575847e+02 7.387583990131290734e-05
9.229614807403701207e+02 7.488035058308121659e-05
9.238619309654826566e+02 7.606820240818745076e-05
9.247623811905953062e+02 7.732051096215816223e-05
9.256628314157078421e+02 7.791742302800729687e-05
9.265632816408203780e+02 7.742579644432219369e-05
9.274637318659329139e+02 7.638559750935352644e-05
9.283641820910454499e+02 7.552733441944697911e-05
9.292646323161579858e+02 7.498530176707309588e-05
9.301650825412706354e+02 7.462627575732600426e-05
9.310655327663831713e+02 7.446243229495084625e-05
9.319659829914957072e+02 7.475531085583232498e-05
9.328664332166082431e+02 7.574510235218941448e-05
9.337668834417207790e+02 7.728991769533661725e-05
9.346673336668334287e+02 7.895859193639483706e-05
9.355677838919459646e+02 8.039562120526784071e-05
9.364682341170585005e+02 8.147858116056542642e-05
9.373686843421710364e+02 8.222137403858996126e-05
9.382691345672835723e+02 8.277739410398994514e-05
9.391695847923961082e+02 8.333444786021162944e-05
9.400700350175087578e+02 8.419892850667772227e-05
9.409704852426212938e+02 8.576687793786040960e-05
9.418709354677338297e+02 8.770449735734358189e-05
9.427713856928463656e+02 8.886078309457499773e-05
9.436718359179589015e+02 8.873762027692562156e-05
9.445722861430714374e+02 8.813953701416949230e-05
9.454727363681840870e+02 8.804936254197086038e-05
9.463731865932966230e+02 8.878717413396411341e-05
9.472736368184091589e+02 8.986609157586595957e-05
9.481740870435216948e+02 9.057566081228854828e-05
9.490745372686342307e+02 9.071673054907710093e-05
9.499749874937468803e+02 9.043796473326258393e-05
9.508754377188594162e+02 9.012197808572890449e-05
9.517758879439719522e+02 9.040230574106386085e-05
9.526763381690844881e+02 9.149421473097562403e-05
9.535767883941970240e+02 9.285742647939605114e-05
9.544772386193095599e+02 9.403427742409160796e-05
9.553776888444222095e+02 9.500381032468396532e-05
9.562781390695347454e+02 9.566002076234827740e-05
9.571785892946472813e+02 9.597696999189316697e-05
9.580790395197598173e+02 9.641467078198695106e-05
9.589794897448723532e+02 9.745386329413895121e-05
9.598799399699850028e+02 9.913019109865645192e-05
9.607803901950975387e+02 1.010002823473544017e-04
9.616808404202100746e+02 1.023107497017989470e-04
9.625812906453226105e+02 1.025217998618232763e-04
9.634817408704351465e+02 1.018518318543938102e-04
9.643821910955476824e+02 1.012473344550440921e-04
9.652826413206603320e+02 1.014767168746837762e-04
9.661830915457728679e+02 1.025186610291507386e-04
9.670835417708854038e+02 1.042043115989009180e-04
9.679839919959979397e+02 1.064723383920802732e-04
9.688844422211104757e+02 1.090025295437310331e-04
9.697848924462230116e+02 1.113837109080280434e-04
9.706853426713356612e+02 1.133387955575801452e-04
9.715857928964481971e+02 1.148069535630298729e-04
9.724862431215607330e+02 1.160884022809624381e-04
9.733866933466732689e+02 1.175369674678311701e-04
9.742871435717858049e+02 1.190821540222983022e-04
9.751875937968984545e+02 1.204177308318770675e-04
9.760880440220109904e+02 1.214737960417192845e-04
9.769884942471235263e+02 1.222868632422930920e-04
9.778889444722360622e+02 1.224761883335804722e-04
9.787893946973485981e+02 1.218056719772796914e-04
9.796898449224611340e+02 1.208696349176378041e-04
9.805902951475737837e+02 1.205444610218604475e-04
9.814907453726863196e+02 1.211624892083879544e-04
9.823911955977988555e+02 1.226683024050899949e-04
9.832916458229113914e+02 1.252525473549849987e-04
9.841920960480239273e+02 1.290685697418768102e-04
9.850925462731365769e+02 1.338326009464005676e-04
9.859929964982491128e+02 1.383856993177994530e-04
9.868934467233616488e+02 1.410455744651903311e-04
9.877938969484741847e+02 1.412525150440101219e-04
9.886943471735867206e+02 1.400340657084596775e-04
9.895947973986992565e+02 1.388188475364406311e-04
9.904952476238119061e+02 1.385141102365776335e-04
9.913956978489244420e+02 1.390632676206948715e-04
9.922961480740369780e+02 1.400053205832045534e-04
9.931965982991495139e+02 1.411759439581255896e-04
9.940970485242620498e+02 1.419703705894901637e-04
9.949974987493745857e+02 1.416771042843099936e-04
9.958979489744872353e+02 1.406737250929073065e-04
9.967983991995997712e+02 1.397198128866457539e-04
9.976988494247123072e+02 1.392790185506058681e-04
9.985992996498248431e+02 1.397578101955451312e-04
9.994997498749373790e+02 1.410558127780214106e-04
1.000400200100050029e+03 1.424057268504102527e-04
1.001300650325162565e+03 1.434219995273846551e-04
1.002201100550275100e+03 1.445718500013818569e-04
1.003101550775387636e+03 1.464756261911247465e-04
1.004002001000500172e+03 1.491582922324463146e-04
1.004902451225612708e+03 1.520023302059025645e-04
1.005802901450725358e+03 1.544753855546732038e-04
1.006703351675837894e+03 1.565241266282813004e-04
1.007603801900950430e+03 1.580699408061079527e-04
1.008504252126062966e+03 1.588758109267418258e-04
1.009404702351175501e+03 1.591773730829870682e-04
1.010305152576288151e+03 1.595678456245727781e-04
1.011205602801400687e+03 1.603167283996999597e-04
1.012106053026513223e+03 1.615654708165149139e-04
1.013006503251625759e+03 1.636196052028154814e-04
1.013906953476738295e+03 1.664395015360992688e-04
1.014807403701850831e+03 1.693585595642101670e-04
1.015707853926963480e+03 1.717464572717286662e-04
1.016608304152076016e+03 1.733686099503530811e-04
1.017508754377188552e+03 1.742998897171657113e-04
1.018409204602301088e+03 1.752562521439111822e-04
1.019309654827413624e+03 1.773273781921974666e-04
1.020210105052526160e+03 1.806788252982121832e-04
1.021110555277638809e+03 1.843449019015337036e-04
1.022011005502751345e+03 1.877154099858623180e-04
1.022911455727863881e+03 1.907928556794674527e-04
1.023811905952976417e+03 1.930367639042783749e-04
1.024712356178089067e+03 1.936266955654732125e-04
1.025612806403201603e+03 1.929610354998076947e-04
1.026513256628314139e+03 1.922076382608229488e-04
1.027413706853426675e+03 1.914432794052122269e-04
1.028314157078539210e+03 1.901541274953542221e-04
1.029214607303651746e+03 1.891970378928579846e-04
1.030115057528764282e+03 1.902240259053888233e-04
1.031015507753876818e+03 1.934163349409396139e-04
1.031915957978989354e+03 1.973414076643073881e-04
1.032816408204101890e+03 2.006183404875849677e-04
1.033716858429214653e+03 2.029887289692115478e-04
1.034617308654327189e+03 2.044456060680854869e-04
1.035517758879439725e+03 2.047818514452750063e-04
1.036418209104552261e+03 2.040555485567674984e-04
1.037318659329664797e+03 2.025611395692857356e-04
1.038219109554777333e+03 2.012584519706197336e-04
1.039119559779889869e+03 2.015094183437007435e-04
1.040020010005002405e+03 2.039342428331393823e-04
1.040920460230114941e+03 2.078650466098152399e-04
1.041820910455227477e+03 2.121147792717920696e-04
1.042721360680340013e+03 2.161629784463758364e-04
1.043621810905452776e+03 2.198448821333713317e-04
1.044522261130565312e+03 2.226742755676016316e-04
1.045422711355677848e+03 2.243164426866173830e-04
1.046323161580790384e+03 2.250549833894891741e-04
1.047223611805902920e+03 2.253133286860406405e-04
1.048124062031015455e+03 2.254024774872197203e-04
1.049024512256127991e+03 2.257870230969126729e-04
1.049924962481240527e+03 2.266155932548549886e-04
1.050825412706353063e+03 2.271251118461859093e-04
1.051725862931465599e+03 2.263241685930044897e-04
1.052626313156578135e+03 2.239337284565653583e-04
1.053526763381690898e+03 2.207412127156910286e-04
1.054427213606803434e+03 2.182195074623220472e-04
1.055327663831915970e+03 2.172414647827365110e-04
1.056228114057028506e+03 2.174070961351821723e-04
1.057128564282141042e+03 2.176089733303363536e-04
1.058029014507253578e+03 2.173364339507548543e-04
1.058929464732366114e+03 2.170215958653336859e-04
1.059829914957478650e+03 2.168873918704194406e-04
1.060730365182591186e+03 2.169457370171984823e-04
1.061630815407703722e+03 2.179295479924760019e-04
1.062531265632816257e+03 2.206239796928491760e-04
1.063431715857929021e+03 2.249204430451038944e-04
1.064332166083041557e+03 2.298886651515594064e-04
1.065232616308154093e+03 2.344655320174529318e-04
1.066133066533266629e+03 2.383474144071172102e-04
1.067033516758379164e+03 2.418680603409180082e-04
1.067933966983491700e+03 2.448967487654949001e-04
1.068834417208604236e+03 2.468285688932862548e-04
1.069734867433716772e+03 2.474164604580569144e-04
1.070635317658829308e+03 2.472027627069020529e-04
1.071535767883941844e+03 2.469800336534291071e-04
1.072436218109054380e+03 2.470715566381043908e-04
1.073336668334167143e+03 2.478587866735187505e-04
1.074237118559279679e+03 2.498280493372881145e-04
1.075137568784392215e+03 2.521004543336540340e-04
1.076038019009504751e+03 2.529796942492180825e-04
1.076938469234617287e+03 2.524309949423361407e-04
1.077838919459729823e+03 2.512488806232644452e-04
1.078739369684842359e+03 2.500206629088944392e-04
1.079639819909954895e+03 2.495816558551978092e-04
1.080540270135067431e+03 2.502999641518904839e-04
1.081440720360179967e+03 2.515242214360316063e-04
1.082341170585292502e+03 2.522413846024659225e-04
1.083241620810405038e+03 2.519950129371032951e-04
1.084142071035517802e+03 2.506206117297399521e-04
1.085042521260630338e+03 2.481551287134673052e-04
1.085942971485742873e+03 2.452550461281647058e-04
1.086843421710855409e+03 2.426786201448929536e-04
1.087743871935967945e+03 2.406510762007415822e-04
1.088644322161080481e+03 2.392203402198463580e-04
1.089544772386193017e+03 2.388631987647444840e-04
1.090445222611305553e+03 2.400956264664451368e-04
1.091345672836418089e+03 2.425144827818746882e-04
1.092246123061530625e+03 2.445286218711765027e-04
1.093146573286643161e+03 2.447628447527049468e-04
1.094047023511755924e+03 2.439111536241536573e-04
1.094947473736868460e+03 2.439484797012762493e-04
1.095847923961980996e+03 2.452029792067940200e-04
1.096748374187093532e+03 2.457764261525832326e-04
1.097648824412206068e+03 2.438955133689670420e-04
1.098549274637318604e+03 2.399886774998909395e-04
1.099449724862431140e+03 2.363339602915122178e-04
1.100350175087543676e+03 2.349283662918043671e-04
1.101250625312656211e+03 2.365980059098108084e-04
1.102151075537768747e+03 2.405364216865727475e-04
1.103051525762881283e+03 2.445153691028648080e-04
1.103951975987994047e+03 2.469791041412679644e-04
1.104852426213106583e+03 2.481432305238530302e-04
1.105752876438219118e+03 2.485125532945884719e-04
1.106653326663331654e+03 2.486982562638923727e-04
1.107553776888444190e+03 2.495410132725560024e-04
1.108454227113556726e+03 2.507857003203830160e-04
1.109354677338669262e+03 2.515445060000216977e-04
1.110255127563781798e+03 2.520879810260024723e-04
1.111155577788894334e+03 2.531108830913273528e-04
1.112056028014006870e+03 2.542125483474101471e-04
1.112956478239119406e+03 2.544353359512555425e-04
1.113856928464232169e+03 2.537844964830505892e-04
1.114757378689344705e+03 2.532634564214641991e-04
1.115657828914457241e+03 2.537816118431175812e-04
1.116558279139569777e+03 2.560484327668342353e-04
1.117458729364682313e+03 2.607068668473360796e-04
1.118359179589794849e+03 2.677884102952940285e-04
1.119259629814907385e+03 2.759271027882129212e-04
1.120160080040019920e+03 2.832697816087431154e-04
1.121060530265132456e+03 2.893249113570882489e-04
1.121960980490244992e+03 2.943878709499436340e-04
1.122861430715357528e+03 2.981614821102543541e-04
1.123761880940470292e+03 2.996456619243309072e-04
1.124662331165582827e+03 2.979235340331037223e-04
1.125562781390695363e+03 2.942839018995904938e-04
1.126463231615807899e+03 2.911369655719988746e-04
1.127363681840920435e+03 2.901672103129283972e-04
1.128264132066032971e+03 2.924185150370474254e-04
1.129164582291145507e+03 2.982210356845218418e-04
1.130065032516258043e+03 3.064878527342003445e-04
1.130965482741370579e+03 3.148109230619057768e-04
1.131865932966483115e+03 3.221411374325112986e-04
1.132766383191595651e+03 3.295325786845354596e-04
1.133666833416708187e+03 3.378118652800206844e-04
1.134567283641820950e+03 3.465541269681706804e-04
1.135467733866933486e+03 3.544679562439590902e-04
1.136368184092046022e+03 3.615635099795922141e-04
1.137268634317158558e+03 3.691906288575848554e-04
1.138169084542271094e+03 3.770893526548787632e-04
1.139069534767383630e+03 3.843168094358128620e-04
1.139969984992496165e+03 3.914647432574136824e-04
1.140870435217608701e+03 3.997949390547867040e-04
1.141770885442721237e+03 4.105560294591209785e-04
1.142671335667833773e+03 4.254407456871192226e-04
1.143571785892946309e+03 4.459953360147815658e-04
1.144472236118059072e+03 4.717138344466512774e-04
1.145372686343171608e+03 5.002965876314462244e-04
1.146273136568284144e+03 5.322858540128263486e-04
1.147173586793396680e+03 5.713970277167813080e-04
1.148074037018509216e+03 6.180650188342296392e-04
1.148974487243621752e+03 6.694322420564154628e-04
1.149874937468734288e+03 7.261621827958918444e-04
1.150775387693846824e+03 7.943401606273389455e-04
1.151675837918959360e+03 8.783829006401115691e-04
1.152576288144071896e+03 9.727846307157164999e-04
1.153476738369184432e+03 1.062392085059351383e-03
1.154377188594297195e+03 1.138949478296700417e-03
1.155277638819409731e+03 1.208825086724494733e-03
1.156178089044522267e+03 1.283832771866720004e-03
1.157078539269634803e+03 1.373945718118333142e-03
1.157978989494747339e+03 1.482979938165526323e-03
1.158879439719859874e+03 1.611782699684757804e-03
1.159779889944972410e+03 1.756668828290534759e-03
1.160680340170084946e+03 1.903818273138598808e-03
1.161580790395197482e+03 2.040570872731174452e-03
1.162481240620310018e+03 2.159811935323934385e-03
1.163381690845422554e+03 2.251833731120049878e-03
1.164282141070535317e+03 2.305020109636102352e-03
1.165182591295647853e+03 2.313267087065985859e-03
1.166083041520760389e+03 2.282933886538213077e-03
1.166983491745872925e+03 2.226002105630606621e-03
1.167883941970985461e+03 2.149047149808499223e-03
1.168784392196097997e+03 2.049521957439011215e-03
1.169684842421210533e+03 1.922816086828792138e-03
1.170585292646323069e+03 1.776397888252760062e-03
1.171485742871435605e+03 1.628353623275296527e-03
1.172386193096548141e+03 1.493176586493070394e-03
1.173286643321660677e+03 1.377425528155393599e-03
1.174187093546773440e+03 1.280681831917846120e-03
1.175087543771885976e+03 1.196817730871179960e-03
1.175987993996998512e+03 1.120680498399756345e-03
1.176888444222111048e+03 1.053874816294326838e-03
1.177788894447223583e+03 1.001930322502715340e-03
1.178689344672336119e+03 9.681071657509795168e-04
1.179589794897448655e+03 9.482778326226401879e-04
1.180490245122561191e+03 9.356586235217087847e-04
1.181390695347673727e+03 9.274635314291259725e-04
1.182291145572786263e+03 9.248149076212853516e-04
1.183191595797898799e+03 9.279189672116812046e-04
1.184092046023011562e+03 9.310740508253468033e-04
1.184992496248124098e+03 9.276569389985141537e-04
1.185892946473236634e+03 9.203610856480055804e-04
1.186793396698349170e+03 9.164738202458962753e-04
1.187693846923461706e+03 9.159945969310612744e-04
1.188594297148574242e+03 9.141603167700659231e-04
1.189494747373686778e+03 9.117788928526024232e-04
1.190395197598799314e+03 9.142679736928342260e-04
1.191295647823911850e+03 9.238283422178986777e-04
1.192196098049024386e+03 9.367358801998332219e-04
1.193096548274136921e+03 9.470404743937536765e-04
1.193996998499249457e+03 9.516250015006328397e-04
1.194897448724362221e+03 9.515530674009246327e-04
1.195797898949474757e+03 9.486209878936038972e-04
1.196698349174587293e+03 9.420392948241679927e-04
1.197598799399699828e+03 9.297840159588826670e-04
1.198499249624812364e+03 9.098709778670717278e-04
1.199399699849924900e+03 8.829837155202216849e-04
1.200300150075037436e+03 8.534280266392809929e-04
1.201200600300149972e+03 8.263621633209014810e-04
1.202101050525262508e+03 8.044511203167124033e-04
1.203001500750375044e+03 7.887450169082034458e-04
1.203901950975487580e+03 7.801605063171678910e-04
1.204802401200600343e+03 7.785175826899136267e-04
1.205702851425712879e+03 7.830995198769280649e-04
1.206603301650825415e+03 7.909524856831850071e-04
1.207503751875937951e+03 7.962752680581316155e-04
1.208404202101050487e+03 7.944869678350181385e-04
1.209304652326163023e+03 7.862875236604353153e-04
1.210205102551275559e+03 7.751371442800073907e-04
1.211105552776388095e+03 7.652819024759103346e-04
1.212006003001500630e+03 7.608139923778564802e-04
1.212906453226613166e+03 7.597452789844723895e-04
1.213806903451725702e+03 7.529880809383763434e-04
1.214707353676838466e+03 7.356196573305646188e-04
1.215607803901951002e+03 7.128017559560342019e-04
1.216508254127063537e+03 6.918921033751501779e-04
1.217408704352176073e+03 6.748176431440065575e-04
1.218309154577288609e+03 6.597724412335496816e-04
1.219209604802401145e+03 6.471515829976895104e-04
1.220110055027513681e+03 6.380294849965629025e-04
1.221010505252626217e+03 6.320339070800655174e-04
1.221910955477738753e+03 6.275511362338302701e-04
1.222811405702851289e+03 6.231038318047144768e-04
1.223711855927963825e+03 6.203444783037933771e-04
1.224612306153076588e+03 6.215112741410229718e-04
1.225512756378189124e+03 6.270227256444550886e-04
1.226413206603301660e+03 6.360002691249802857e-04
1.227313656828414196e+03 6.470366655672993295e-04
1.228214107053526732e+03 6.602989411401904377e-04
1.229114557278639268e+03 6.743103636712680267e-04
1.230015007503751804e+03 6.846035367321340976e-04
1.230915457728864340e+03 6.875425017148426021e-04
1.231815907953976875e+03 6.827612087870698178e-04
1.232716358179089411e+03 6.744054509738039733e-04
1.233616808404201947e+03 6.671159023915788043e-04
1.234517258629314711e+03 6.608868487400588803e-04
1.235417708854427246e+03 6.520758484193520327e-04
1.236318159079539782e+03 6.404030268775987803e-04
1.237218609304652318e+03 6.299325092429731337e-04
1.238119059529764854e+03 6.239007727231969929e-04
1.239019509754877390e+03 6.234270245693997571e-04
1.239919959979989926e+03 6.284119085773368996e-04
1.240820410205102462e+03 6.381866238125810230e-04
1.241720860430214998e+03 6.514308646972511276e-04
1.242621310655327534e+03 6.653625878163811451e-04
1.243521760880440070e+03 6.784418864285670552e-04
1.244422211105552606e+03 6.922057181823458322e-04
1.245322661330665369e+03 7.063344709369980337e-04
1.246223111555777905e+03 7.168319439782281808e-04
1.247123561780890441e+03 7.202764742747297865e-04
1.248024012006002977e+03 7.174071602456654623e-04
1.248924462231115513e+03 7.132922079705736242e-04
1.249824912456228049e+03 7.128339388578280259e-04
1.250725362681340584e+03 7.170767364614943039e-04
1.251625812906453120e+03 7.243867660594435678e-04
1.252526263131565656e+03 7.321861359550679632e-04
1.253426713356678192e+03 7.381825731445679261e-04
1.254327163581790728e+03 7.423296027743063940e-04
1.255227613806903491e+03 7.464316026568615717e-04
1.256128064032016027e+03 7.515505909079498760e-04
1.257028514257128563e+03 7.559365787053117739e-04
1.257928964482241099e+03 7.582065863955643600e-04
1.258829414707353635e+03 7.598771997894043697e-04
1.259729864932466171e+03 7.623458262054015047e-04
1.260630315157578707e+03 7.652976176970627308e-04
1.261530765382691243e+03 7.691298897738652789e-04
1.262431215607803779e+03 7.751143272697199292e-04
1.263331665832916315e+03 7.840976490457631908e-04
1.264232116058028851e+03 7.951549058613909546e-04
1.265132566283141614e+03 8.064993791950899509e-04
1.266033016508254150e+03 8.180831472706053724e-04
1.266933466733366686e+03 8.318516013834373942e-04
1.267833916958479222e+03 8.512253876617844510e-04
1.268734367183591758e+03 8.789635498358992164e-04
1.269634817408704293e+03 9.132170585464416965e-04
1.270535267633816829e+03 9.482380313000215045e-04
1.271435717858929365e+03 9.812700706685272521e-04
1.272336168084041901e+03 1.013116261771046349e-03
1.273236618309154437e+03 1.042055683507878616e-03
1.274137068534266973e+03 1.065664038800213714e-03
1.275037518759379736e+03 1.085314047441059528e-03
1.275937968984492272e+03 1.103890972142076857e-03
1.276838419209604808e+03 1.122680346340521615e-03
1.277738869434717344e+03 1.141587741448371130e-03
1.278639319659829880e+03 1.160426662503855804e-03
1.279539769884942416e+03 1.179872768980210450e-03
1.280440220110054952e+03 1.200511560075353309e-03
1.281340670335167488e+03 1.222615469701560662e-03
1.282241120560280024e+03 1.248003699709545429e-03
1.283141570785392560e+03 1.279620588649249763e-03
1.284042021010505096e+03 1.318780993915345291e-03
1.284942471235617859e+03 1.362326474810448629e-03
1.285842921460730395e+03 1.402697159328712175e-03
1.286743371685842931e+03 1.432933399970697571e-03
1.287643821910955467e+03 1.451673143475225086e-03
1.288544272136068003e+03 1.463134360918435161e-03
1.289444722361180538e+03 1.472503306138753026e-03
1.290345172586293074e+03 1.481765078562864019e-03
1.291245622811405610e+03 1.490869474141064653e-03
1.292146073036518146e+03 1.499710209138514468e-03
1.293046523261630682e+03 1.507131990333671285e-03
1.293946973486743218e+03 1.512710838243412625e-03
1.294847423711855754e+03 1.517770798106695632e-03
1.295747873936968517e+03 1.524831513087295020e-03
1.296648324162081053e+03 1.535634245290970175e-03
1.297548774387193589e+03 1.549617076690957933e-03
1.298449224612306125e+03 1.566398431962527475e-03
1.299349674837418661e+03 1.587552588464584890e-03
1.300250125062531197e+03 1.612039028759088216e-03
1.301150575287643733e+03 1.634775916100717191e-03
1.302051025512756269e+03 1.652702832669299647e-03
1.302951475737868805e+03 1.667390425758671088e-03
1.303851925962981340e+03 1.682458350863464324e-03
1.304752376188093876e+03 1.701788806985169312e-03
1.305652826413206640e+03 1.726919012352839825e-03
1.306553276638319176e+03 1.757673719498105153e-03
1.307453726863431712e+03 1.794049652571352458e-03
1.308354177088544247e+03 1.834293925659453680e-03
1.309254627313656783e+03 1.875071890633847995e-03
1.310155077538769319e+03 1.914111488403030499e-03
1.311055527763881855e+03 1.948616610167930091e-03
1.311955977988994391e+03 1.975806918733877694e-03
1.312856428214106927e+03 1.995762227510615265e-03
1.313756878439219463e+03 2.012682325006893806e-03
1.314657328664331999e+03 2.031594696962188331e-03
1.315557778889444762e+03 2.053483833181522951e-03
1.316458229114557298e+03 2.076923342130933010e-03
1.317358679339669834e+03 2.101739137908255166e-03
1.318259129564782370e+03 2.128873466532349087e-03
1.319159579789894906e+03 2.158575901836956058e-03
1.320060030015007442e+03 2.190350071841414958e-03
1.320960480240119978e+03 2.223833104351351925e-03
1.321860930465232514e+03 2.257399454570669945e-03
1.322761380690345050e+03 2.287743601324087380e-03
1.323661830915457585e+03 2.313667689181987674e-03
1.324562281140570121e+03 2.339283571262258145e-03
1.325462731365682885e+03 2.371496590433299755e-03
1.326363181590795421e+03 2.416468246795689528e-03
1.327263631815907956e+03 2.474306178089385154e-03
1.328164082041020492e+03 2.538806631187474905e-03
1.329064532266133028e+03 2.606501359478572994e-03
1.329964982491245564e+03 2.678284555524148344e-03
1.330865432716358100e+03 2.754993848472797081e-03
1.331765882941470636e+03 2.835375018110047104e-03
1.332666333166583172e+03 2.917400119872861752e-03
1.333566783391695708e+03 3.002196946628027212e-03
1.334467233616808244e+03 3.091346300126234653e-03
1.335367683841921007e+03 3.181774465701464431e-03
1.336268134067033543e+03 3.270266294164036417e-03
1.337168584292146079e+03 3.360910877577773844e-03
1.338069034517258615e+03 3.461378205720471238e-03
1.338969484742371151e+03 3.572041327400466305e-03
1.339869934967483687e+03 3.684124767235983939e-03
1.340770385192596223e+03 3.787741743234963442e-03
1.341670835417708759e+03 3.880992972004986691e-03
1.342571285642821294e+03 3.971707138534277468e-03
1.343471735867933830e+03 4.070650847268635769e-03
1.344372186093046366e+03 4.182437673892309797e-03
1.345272636318158902e+03 4.302462610362766358e-03
1.346173086543271666e+03 4.422168743112156637e-03
1.347073536768384201e+03 4.538151780368530896e-03
1.347973986993496737e+03 4.655693278322946965e-03
1.348874437218609273e+03 4.773518071304091136e-03
1.349774887443721809e+03 4.879813636010657540e-03
1.350675337668834345e+03 4.979529099774521010e-03
1.351575787893946881e+03 5.099984834488129753e-03
1.352476238119059417e+03 5.251842974796131457e-03
1.353376688344171953e+03 5.423541625308966538e-03
1.354277138569284489e+03 5.607850222530342404e-03
1.355177588794397025e+03 5.805205095558655520e-03
1.356078039019509788e+03 6.019958984550828618e-03
1.356978489244622324e+03 6.259043766521268058e-03
1.357878939469734860e+03 6.516678871289790891e-03
1.358779389694847396e+03 6.766944068232584077e-03
1.359679839919959932e+03 6.990539497383931392e-03
1.360580290145072468e+03 7.198836150390926399e-03
1.361480740370185003e+03 7.426051405955464042e-03
1.362381190595297539e+03 7.683443320025231012e-03
1.363281640820410075e+03 7.955912095924073252e-03
1.364182091045522611e+03 8.234797494989625974e-03
1.365082541270635147e+03 8.514038946098227353e-03
1.365982991495747910e+03 8.785790026103646941e-03
1.366883441720860446e+03 9.047192760714480031e-03
1.367783891945972982e+03 9.307343787091680934e-03
1.368684342171085518e+03 9.587304610591739981e-03
1.369584792396198054e+03 9.901186079788923053e-03
1.370485242621310590e+03 1.022216707261233357e-02
1.371385692846423126e+03 1.050086341139777960e-02
1.372286143071535662e+03 1.073530069883106737e-02
1.373186593296648198e+03 1.097466488008096326e-02
1.374087043521760734e+03 1.125994922985084842e-02
1.374987493746873270e+03 1.158937625556063014e-02
1.375887943971986033e+03 1.197985908119789805e-02
1.376788394197098569e+03 1.247606941005510381e-02
1.377688844422211105e+03 1.305185671136534394e-02
1.378589294647323641e+03 1.362140420278746059e-02
1.379489744872436177e+03 1.413736826151983442e-02
1.380390195097548713e+03 1.460573021459034282e-02
1.381290645322661248e+03 1.504784191645899306e-02
1.382191095547773784e+03 1.548966864110125699e-02
1.383091545772886320e+03 1.595198642411010601e-02
1.383991995997998856e+03 1.644466196192825164e-02
1.384892446223111392e+03 1.696298155358300780e-02
1.385792896448224155e+03 1.748041085295517008e-02
1.386693346673336691e+03 1.794500613285961166e-02
1.387593796898449227e+03 1.829134958543084805e-02
1.388494247123561763e+03 1.850460380190091514e-02
1.389394697348674299e+03 1.864858097875869009e-02
1.390295147573786835e+03 1.881612190527292422e-02
1.391195597798899371e+03 1.906542423949319359e-02
1.392096048024011907e+03 1.939194133403954537e-02
1.392996498249124443e+03 1.978259301326271494e-02
1.393896948474236979e+03 2.029983116964776887e-02
1.394797398699349515e+03 2.099565836706567337e-02
1.395697848924462278e+03 2.180380584851519810e-02
1.396598299149574814e+03 2.259388681171240962e-02
1.397498749374687350e+03 2.319302969082241012e-02
1.398399199599799886e+03 2.346000341829666824e-02
1.399299649824912422e+03 2.339204671628158580e-02
1.400200100050024957e+03 2.306285109661153007e-02
1.401100550275137493e+03 2.256119731350829383e-02
1.402001000500250029e+03 2.196325096317756215e-02
1.402901450725362565e+03 2.133785362844015446e-02
1.403801900950475101e+03 2.080447447637607042e-02
1.404702351175587637e+03 2.045001336584190491e-02
1.405602801400700173e+03 2.024304775436662485e-02
1.406503251625812936e+03 2.010290242718748913e-02
1.407403701850925472e+03 1.998166257191211909e-02
1.408304152076038008e+03 1.989912405310095139e-02
1.409204602301150544e+03 1.986142418147245417e-02
1.410105052526263080e+03 1.982599211130005659e-02
1.411005502751375616e+03 1.982577874293357800e-02
1.411905952976488152e+03 1.994299853555737967e-02
1.412806403201600688e+03 2.014333271373566769e-02
1.413706853426713224e+03 2.030238814638702163e-02
1.414607303651825760e+03 2.030758091510239186e-02
1.415507753876938295e+03 2.009549050335410203e-02
1.416408204102051059e+03 1.969061122479696599e-02
1.417308654327163595e+03 1.918766924085009429e-02
1.418209104552276131e+03 1.864602538564566481e-02
1.419109554777388666e+03 1.807641348550101390e-02
1.420010005002501202e+03 1.745509095467254190e-02
1.420910455227613738e+03 1.675116144595840267e-02
1.421810905452726274e+03 1.602117647382128932e-02
1.422711355677838810e+03 1.536605830924606814e-02
1.423611805902951346e+03 1.480328537986997338e-02
1.424512256128063882e+03 1.428062128843922071e-02
1.425412706353176418e+03 1.378821614070097935e-02
1.426313156578289181e+03 1.335186255685195077e-02
1.427213606803401717e+03 1.294925259607111918e-02
1.428114057028514253e+03 1.254185065200103498e-02
1.429014507253626789e+03 1.212747183651609328e-02
1.429914957478739325e+03 1.173104268980528810e-02
1.430815407703851861e+03 1.136398882456697047e-02
1.431715857928964397e+03 1.100457804133023361e-02
1.432616308154076933e+03 1.062227980922394489e-02
1.433516758379189469e+03 1.020535459550971948e-02
1.434417208604302004e+03 9.788067757152326201e-03
1.435317658829414540e+03 9.425848876654083219e-03
1.436218109054527304e+03 9.139671437255110845e-03
1.437118559279639840e+03 8.917165813311908606e-03
1.438019009504752376e+03 8.738787472478351179e-03
1.438919459729864911e+03 8.583462988736341101e-03
1.439819909954977447e+03 8.421974776717331551e-03
1.440720360180089983e+03 8.235018446174675530e-03
1.441620810405202519e+03 8.020712772118934047e-03
1.442521260630315055e+03 7.768422650345213967e-03
1.443421710855427591e+03 7.476873994724291851e-03
1.444322161080540127e+03 7.178583201857418467e-03
1.445222611305652663e+03 6.905683530929773370e-03
1.446123061530765426e+03 6.664478373000375967e-03
1.447023511755877962e+03 6.442409337487101269e-03
1.447923961980990498e+03 6.221008835152791634e-03
1.448824412206103034e+03 5.995564159979857588e-03
1.449724862431215570e+03 5.782183303251925074e-03
1.450625312656328106e+03 5.606305873321310029e-03
1.451525762881440642e+03 5.480836394452425799e-03
1.452426213106553178e+03 5.400641238546207389e-03
1.453326663331665713e+03 5.345727521938092343e-03
1.454227113556778249e+03 5.297741771535169862e-03
1.455127563781890785e+03 5.246472140076053475e-03
1.456028014007003321e+03 5.176879457230160533e-03
1.456928464232116085e+03 5.076193836866166320e-03
1.457828914457228620e+03 4.942049830887989929e-03
1.458729364682341156e+03 4.786928738630134676e-03
1.459629814907453692e+03 4.630829775452548029e-03
1.460530265132566228e+03 4.485063465498877362e-03
1.461430715357678764e+03 4.348745339074300102e-03
1.462331165582791300e+03 4.217369090910278763e-03
1.463231615807903836e+03 4.086185903704077707e-03
1.464132066033016372e+03 3.946162604542890161e-03
1.465032516258128908e+03 3.796554333091052297e-03
1.465932966483241444e+03 3.646920774080716302e-03
1.466833416708354207e+03 3.504409181866248620e-03
1.467733866933466743e+03 3.371943600334644051e-03
1.468634317158579279e+03 3.250629380413544520e-03
1.469534767383691815e+03 3.137468380661729162e-03
1.470435217608804351e+03 3.027767241454890589e-03
1.471335667833916887e+03 2.920587383080087713e-03
1.472236118059029423e+03 2.819927519192112330e-03
1.473136568284141958e+03 2.729509801939785166e-03
1.474037018509254494e+03 2.648845685463484950e-03
1.474937468734367030e+03 2.573060937283169324e-03
1.475837918959479566e+03 2.498196640827737066e-03
1.476738369184592329e+03 2.427626638190776270e-03
1.477638819409704865e+03 2.366777594357799552e-03
1.478539269634817401e+03 2.314709459482403812e-03
1.479439719859929937e+03 2.262844558059176961e-03
1.480340170085042473e+03 2.204766801563828264e-03
1.481240620310155009e+03 2.143416822813274097e-03
1.482141070535267545e+03 2.084484707854192525e-03
1.483041520760380081e+03 2.026881981153117428e-03
1.483941970985492617e+03 1.965588716991738434e-03
1.484842421210605153e+03 1.900048596806128923e-03
1.485742871435717689e+03 1.836997236993711266e-03
1.486643321660830452e+03 1.782924790751219029e-03
1.487543771885942988e+03 1.738030442703613352e-03
1.488444222111055524e+03 1.701195607496274386e-03
1.489344672336168060e+03 1.672617270196525684e-03
1.490245122561280596e+03 1.648902275139802051e-03
1.491145572786393132e+03 1.623503498350733392e-03
1.492046023011505667e+03 1.593410400634029606e-03
1.492946473236618203e+03 1.561161493978915210e-03
1.493846923461730739e+03 1.531468122083543600e-03
1.494747373686843275e+03 1.507713234124194142e-03
1.495647823911955811e+03 1.491044481488758549e-03
1.496548274137068574e+03 1.481816024151119422e-03
1.497448724362181110e+03 1.478795331897602696e-03
1.498349174587293646e+03 1.476331901783299941e-03
1.499249624812406182e+03 1.470353509799497086e-03
1.500150075037518718e+03 1.463412771578700977e-03
1.501050525262631254e+03 1.457598749810861023e-03
1.501950975487743790e+03 1.450861833440682909e-03
1.502851425712856326e+03 1.442723331188908468e-03
1.503751875937968862e+03 1.435630385016445831e-03
1.504652326163081398e+03 1.432476504206051712e-03
1.505552776388193934e+03 1.433713124936853269e-03
1.506453226613306470e+03 1.433989896931243350e-03
1.507353676838419233e+03 1.425499562147118779e-03
1.508254127063531769e+03 1.406216032565754627e-03
1.509154577288644305e+03 1.382515262878863602e-03
1.510055027513756841e+03 1.360843600790916184e-03
1.510955477738869376e+03 1.342443855223288260e-03
1.511855927963981912e+03 1.323072881511774606e-03
1.512756378189094448e+03 1.296489472259567885e-03
1.513656828414206984e+03 1.260554638643659325e-03
1.514557278639319520e+03 1.220556128178146077e-03
1.515457728864432056e+03 1.184997056265716829e-03
1.516358179089544592e+03 1.160234989924726397e-03
1.517258629314657355e+03 1.147613154898583128e-03
1.518159079539769891e+03 1.143768320318188942e-03
1.519059529764882427e+03 1.143727922501767014e-03
1.519959979989994963e+03 1.144939174405034451e-03
1.520860430215107499e+03 1.146426940495544160e-03
1.521760880440220035e+03 1.145497938753461996e-03
1.522661330665332571e+03 1.141478462295343740e-03
1.523561780890445107e+03 1.138788055727657685e-03
1.524462231115557643e+03 1.141407713517227389e-03
1.525362681340670179e+03 1.147152671394987807e-03
1.526263131565782714e+03 1.149150508573646779e-03
1.527163581790895478e+03 1.143046439705674858e-03
1.528064032016008014e+03 1.128607936071685013e-03
1.528964482241120550e+03 1.106471695811694867e-03
1.529864932466233086e+03 1.082006817099256685e-03
1.530765382691345621e+03 1.064019837231320979e-03
1.531665832916458157e+03 1.055547794375328533e-03
1.532566283141570693e+03 1.052816382568740180e-03
1.533466733366683229e+03 1.050820902204716153e-03
1.534367183591795765e+03 1.048997939160622398e-03
1.535267633816908301e+03 1.051218580529223031e-03
1.536168084042020837e+03 1.058558601557088455e-03
1.537068534267133600e+03 1.065814088787255323e-03
1.537968984492246136e+03 1.067758000305981834e-03
1.538869434717358672e+03 1.063822965632916801e-03
1.539769884942471208e+03 1.056132583421446995e-03
1.540670335167583744e+03 1.048448732281455744e-03
1.541570785392696280e+03 1.044507489650189176e-03
1.542471235617808816e+03 1.046116374509250364e-03
1.543371685842921352e+03 1.051690070865231525e-03
1.544272136068033888e+03 1.054084111572885316e-03
1.545172586293146423e+03 1.048698810856989443e-03
1.546073036518258959e+03 1.039186376865088718e-03
1.546973486743371723e+03 1.028285043820336342e-03
1.547873936968484259e+03 1.013531840483897347e-03
1.548774387193596795e+03 9.933776546838708494e-04
1.549674837418709330e+03 9.707827869568237114e-04
1.550575287643821866e+03 9.510502943970154969e-04
1.551475737868934402e+03 9.383948707419601442e-04
1.552376188094046938e+03 9.333494702391420973e-04
1.553276638319159474e+03 9.314953613839751113e-04
1.554177088544272010e+03 9.276212993581096997e-04
1.555077538769384546e+03 9.216246175575261781e-04
1.555977988994497082e+03 9.161308817641129233e-04
1.556878439219609618e+03 9.119472503222816493e-04
1.557778889444722381e+03 9.091234423148699144e-04
1.558679339669834917e+03 9.094186762235504078e-04
1.559579789894947453e+03 9.168999948036640237e-04
1.560480240120059989e+03 9.340618598885695560e-04
1.561380690345172525e+03 9.576089015109891071e-04
1.562281140570285061e+03 9.802119785778415188e-04
1.563181590795397597e+03 9.940898069486171686e-04
1.564082041020510133e+03 9.957138549768285510e-04
1.564982491245622668e+03 9.846030416395723430e-04
1.565882941470735204e+03 9.611471618253277470e-04
1.566783391695847740e+03 9.291041033296444695e-04
1.567683841920960504e+03 8.940148293396805307e-04
1.568584292146073039e+03 8.615438873003093863e-04
1.569484742371185575e+03 8.332742434602496322e-04
1.570385192596298111e+03 8.031871165475962466e-04
1.571285642821410647e+03 7.650124304881604454e-04
1.572186093046523183e+03 7.191275888544845568e-04
1.573086543271635719e+03 6.691911219288007931e-04
1.573986993496748255e+03 6.147358713732736010e-04
1.574887443721860791e+03 5.514973473123669853e-04
1.575787893946973327e+03 4.792169009376783841e-04
1.576688344172085863e+03 4.064479259016075480e-04
1.577588794397198626e+03 3.428706062155418514e-04
1.578489244622311162e+03 2.918390720953344315e-04
1.579389694847423698e+03 2.524773462228243107e-04
1.580290145072536234e+03 2.224256845660561031e-04
1.581190595297648770e+03 1.990675741338000012e-04
1.582091045522761306e+03 1.805428497591528617e-04
1.582991495747873842e+03 1.657713622090945546e-04
1.583891945972986377e+03 1.539760924793439571e-04
1.584792396198098913e+03 1.445300198567838607e-04
1.585692846423211449e+03 1.369408563419397689e-04
1.586593296648323985e+03 1.308119686730318339e-04
1.587493746873436749e+03 1.258769138691905802e-04
1.588394197098549284e+03 1.220543582814619332e-04
1.589294647323661820e+03 1.192357661790768679e-04
1.590195097548774356e+03 1.170809211237815493e-04
1.591095547773886892e+03 1.153457541819462518e-04
1.591995997998999428e+03 1.140633989658992669e-04
1.592896448224111964e+03 1.128809096466886793e-04
1.593796898449224500e+03 1.112584101613354082e-04
1.594697348674337036e+03 1.094229936025796317e-04
1.595597798899449572e+03 1.075889535860792003e-04
1.596498249124562108e+03 1.050650730172959698e-04
1.597398699349674871e+03 1.015560221998855809e-04
1.598299149574787407e+03 9.802622519766531124e-05
1.599199599799899943e+03 9.541877293287525600e-05
1.600100050025012479e+03 9.367134684381966134e-05
1.601000500250125015e+03 9.199840328328867656e-05
1.601900950475237551e+03 8.993772080602118325e-05
1.602801400700350086e+03 8.779227126876953458e-05
1.603701850925462622e+03 8.618051265202778086e-05
1.604602301150575158e+03 8.569502172804576638e-05
1.605502751375687694e+03 8.667050644159925090e-05
1.606403201600800230e+03 8.902686239661466224e-05
1.607303651825912766e+03 9.195245976973903473e-05
1.608204102051025529e+03 9.392674392442280440e-05
1.609104552276138065e+03 9.414255287152013872e-05
1.610005002501250601e+03 9.353117881291927440e-05
1.610905452726363137e+03 9.329431627569659605e-05
1.611805902951475673e+03 9.344519030460135252e-05
1.612706353176588209e+03 9.274008632523642493e-05
1.613606803401700745e+03 9.010387289702376094e-05
1.614507253626813281e+03 8.580842169467766030e-05
1.615407703851925817e+03 8.100974128190244813e-05
1.616308154077038353e+03 7.692482856740678074e-05
1.617208604302150889e+03 7.411502387614669679e-05
1.618109054527263652e+03 7.207474415479068694e-05
1.619009504752376188e+03 6.966941614356711541e-05
1.619909954977488724e+03 6.644112800370070707e-05
1.620810405202601260e+03 6.303531868268292626e-05
1.621710855427713796e+03 6.012290502903164799e-05
1.622611305652826331e+03 5.788881245457732082e-05
1.623511755877938867e+03 5.627041674144737617e-05
1.624412206103051403e+03 5.516516856940428945e-05
1.625312656328163939e+03 5.445634102511161430e-05
1.626213106553276475e+03 5.392497551177364873e-05
1.627113556778389011e+03 5.323108793449045812e-05
1.628014007003501774e+03 5.222959382555930646e-05
1.628914457228614310e+03 5.115704840947239251e-05
1.629814907453726846e+03 5.028662502598582124e-05
1.630715357678839382e+03 4.973694546356091629e-05
1.631615807903951918e+03 4.955599559279932599e-05
1.632516258129064454e+03 4.980750439777032243e-05
1.633416708354176990e+03 5.060441103612149265e-05
1.634317158579289526e+03 5.209175045535628434e-05
1.635217608804402062e+03 5.430466044285964927e-05
1.636118059029514598e+03 5.675982006673956190e-05
1.637018509254627133e+03 5.808357589981381886e-05
1.637918959479739897e+03 5.699108355699441646e-05
1.638819409704852433e+03 5.395633386653818548e-05
1.639719859929964969e+03 5.051324128932517895e-05
1.640620310155077505e+03 4.762023379092288154e-05
1.641520760380190040e+03 4.545708387549563515e-05
1.642421210605302576e+03 4.386542763925962339e-05
1.643321660830415112e+03 4.259665358649689825e-05
1.644222111055527648e+03 4.145008053702269350e-05
1.645122561280640184e+03 4.038443270640966221e-05
1.646023011505752720e+03 3.944003079289198080e-05
1.646923461730865256e+03 3.862696360936517887e-05
1.647823911955978019e+03 3.792429413573024914e-05
1.648724362181090555e+03 3.730586668792755073e-05
1.649624812406203091e+03 3.675050176472978067e-05
1.650525262631315627e+03 3.624291996752089393e-05
1.651425712856428163e+03 3.577237559695057754e-05
1.652326163081540699e+03 3.533126230965519563e-05
1.653226613306653235e+03 3.491409933259479386e-05
1.654127063531765771e+03 3.451685349996571646e-05
1.655027513756878307e+03 3.413649358703434947e-05
1.655927963981990843e+03 3.377069542167049549e-05
1.656828414207103378e+03 3.341764370781775045e-05
1.657728864432216142e+03 3.307589635074162062e-05
1.658629314657328678e+03 3.274428979345011815e-05
1.659529764882441214e+03 3.242187174924115989e-05
1.660430215107553749e+03 3.210785257494255942e-05
1.661330665332666285e+03 3.180156955599997443e-05
1.662231115557778821e+03 3.150246028748132475e-05
1.663131565782891357e+03 3.121004256456413835e-05
1.664032016008003893e+03 3.092389900012895341e-05
1.664932466233116429e+03 3.064366512188231208e-05
1.665832916458228965e+03 3.036902006298127182e-05
1.666733366683341501e+03 3.009967920832666075e-05
1.667633816908454037e+03 2.983538833154853934e-05
1.668534267133566800e+03 2.957591887973011827e-05
1.669434717358679336e+03 2.932106415013779714e-05
1.670335167583791872e+03 2.907063616631954496e-05
1.671235617808904408e+03 2.882446310706361642e-05
1.672136068034016944e+03 2.858238717581297109e-05
1.673036518259129480e+03 2.834426282354480329e-05
1.673936968484242016e+03 2.810995525728314111e-05
1.674837418709354552e+03 2.787933918094331293e-05
1.675737868934467087e+03 2.765229772633371482e-05
1.676638319159579623e+03 2.742872154071886189e-05
1.677538769384692159e+03 2.720850800401840292e-05
1.678439219609804923e+03 2.699156055392184248e-05
1.679339669834917459e+03 2.677778810131119526e-05
1.680240120060029994e+03 2.656710452162179409e-05
1.681140570285142530e+03 2.635942821037478502e-05
1.682041020510255066e+03 2.615468169317591778e-05
1.682941470735367602e+03 2.595279128215703427e-05
1.683841920960480138e+03 2.575368677217713099e-05
1.684742371185592674e+03 2.555730117121460108e-05
1.685642821410705210e+03 2.536357046026940616e-05
1.686543271635817746e+03 2.517243337883878234e-05
1.687443721860930282e+03 2.498383123263705113e-05
1.688344172086043045e+03 2.479770772073795355e-05
1.689244622311155581e+03 2.461400877973068103e-05
1.690145072536268117e+03 2.443268244283947183e-05
1.691045522761380653e+03 2.425367871224348750e-05
1.691945972986493189e+03 2.407694944308484277e-05
1.692846423211605725e+03 2.390244823785908073e-05
1.693746873436718261e+03 2.373013035006137707e-05
1.694647323661830796e+03 2.355995259610868295e-05
1.695547773886943332e+03 2.339187327469312183e-05
1.696448224112055868e+03 2.322585209282329751e-05
1.697348674337168404e+03 2.306185009791278381e-05
1.698249124562281168e+03 2.289982961535333902e-05
1.699149574787393703e+03 2.273975419108183684e-05
1.700050025012506239e+03 2.258158853871208838e-05
1.700950475237618775e+03 2.242529849085773231e-05
1.701850925462731311e+03 2.227085095431970268e-05
1.702751375687843847e+03 2.211821386885388138e-05
1.703651825912956383e+03 2.196735616927326181e-05
1.704552276138068919e+03 2.181824775067350931e-05
1.705452726363181455e+03 2.167085943659820022e-05
1.706353176588293991e+03 2.152516294999629151e-05
1.707253626813406527e+03 2.138113088684135080e-05
1.708154077038519290e+03 2.123873669231311859e-05
1.709054527263631826e+03 2.109795463946637607e-05
1.709954977488744362e+03 2.095875981033022817e-05
1.710855427713856898e+03 2.082112807940850145e-05
1.711755877938969434e+03 2.068503609957303042e-05
1.712656328164081970e+03 2.055046129036499072e-05
1.713556778389194506e+03 2.041738182874436419e-05
1.714457228614307041e+03 2.028577664235356044e-05
1.715357678839419577e+03 2.015562540538962872e-05
1.716258129064532113e+03 2.002690853720708050e-05
1.717158579289644649e+03 1.989960720381088666e-05
1.718059029514757185e+03 1.977370332243508363e-05
1.718959479739869948e+03 1.964917956944024427e-05
1.719859929964982484e+03 1.952601939181989872e-05
1.720760380190095020e+03 1.940420702265095745e-05
1.721660830415207556e+03 1.928372750089455990e-05
1.722561280640320092e+03 1.916456669602058604e-05
1.723461730865432628e+03 1.904671133802010046e-05
1.724362181090545164e+03 1.893014905346715666e-05
1.725262631315657700e+03 1.881486840840620293e-05
1.726163081540770236e+03 1.870085895899186240e-05
1.727063531765882772e+03 1.858811131095736800e-05
1.727963981990995308e+03 1.847661718919997923e-05
1.728864432216108071e+03 1.836636951899748611e-05
1.729764882441220607e+03 1.825736252065840494e-05
1.730665332666333143e+03 1.814959181974569130e-05
1.731565782891445679e+03 1.804305457543240287e-05
1.732466233116558215e+03 1.793774963004147671e-05
1.733366683341670750e+03 1.783367768344032295e-05
1.734267133566783286e+03 1.773084149670476053e-05
1.735167583791895822e+03 1.762924613039090651e-05
1.736068034017008358e+03 1.752889922388981684e-05
1.736968484242120894e+03 1.742981132374843415e-05
1.737868934467233430e+03 1.733199627060561210e-05
1.738769384692346193e+03 1.723547165658867019e-05
1.739669834917458729e+03 1.714025936779809108e-05
1.740570285142571265e+03 1.704638623001536961e-05
1.741470735367683801e+03 1.695388478024718100e-05
1.742371185592796337e+03 1.686279419244199687e-05
1.743271635817908873e+03 1.677316139309548243e-05
1.744172086043021409e+03 1.668504241202899778e-05
1.745072536268133945e+03 1.659850402611066949e-05
1.745972986493246481e+03 1.651362577010771448e-05
1.746873436718359017e+03 1.643050241059572814e-05
1.747773886943471553e+03 1.634924700787204757e-05
1.748674337168584316e+03 1.626999472986853310e-05
1.749574787393696852e+03 1.619290763506781204e-05
1.750475237618809388e+03 1.611818071405110852e-05
1.751375687843921924e+03 1.604604957975595884e-05
1.752276138069034459e+03 1.597680033690591404e-05
1.753176588294146995e+03 1.591078235938983278e-05
1.754077038519259531e+03 1.584842498775477059e-05
1.754977488744372067e+03 1.579025956885276325e-05
1.755877938969484603e+03 1.573694886017709918e-05
1.756778389194597139e+03 1.568932671316209044e-05
1.757678839419709675e+03 1.564845229302411230e-05
1.758579289644822438e+03 1.561568514682719751e-05
1.759479739869934974e+03 1.559279062200753192e-05
1.760380190095047510e+03 1.558209017397430652e-05
1.761280640320160046e+03 1.558667918239734090e-05
1.762181090545272582e+03 1.561074807062822696e-05
1.763081540770385118e+03 1.566006431708097746e-05
1.763981990995497654e+03 1.574270940435882674e-05
1.764882441220610190e+03 1.587022596321691027e-05
1.765782891445722726e+03 1.605943186677044011e-05
1.766683341670835262e+03 1.633531792277168144e-05
1.767583791895947797e+03 1.673565865239613111e-05
1.768484242121060333e+03 1.731807448445016882e-05
1.769384692346173097e+03 1.816944786648351843e-05
1.770285142571285633e+03 1.941232967439888762e-05
1.771185592796398169e+03 2.118155500173385359e-05
1.772086043021510704e+03 2.348402915357986027e-05
1.772986493246623240e+03 2.581565425083666258e-05
1.773886943471735776e+03 2.690080706938913639e-05
1.774787393696848312e+03 2.582669406166005968e-05
1.775687843921960848e+03 2.339564612286556720e-05
1.776588294147073384e+03 2.091942306675120854e-05
1.777488744372185920e+03 1.896209026828287846e-05
1.778389194597298456e+03 1.753938616510028261e-05
1.779289644822411219e+03 1.651892263841444697e-05
1.780190095047523755e+03 1.577559493285083446e-05
1.781090545272636291e+03 1.521983441846752965e-05
1.781990995497748827e+03 1.479208613490391216e-05
1.782891445722861363e+03 1.445330619251623755e-05
1.783791895947973899e+03 1.417768768149758390e-05
1.784692346173086435e+03 1.394788449677834407e-05
1.785592796398198971e+03 1.375200572045102408e-05
1.786493246623311506e+03 1.358173462151683921e-05
1.787393696848424042e+03 1.343114045522995328e-05
1.788294147073536578e+03 1.329591615802213255e-05
1.789194597298649342e+03 1.317288046225735251e-05
1.790095047523761878e+03 1.305964667240813878e-05
1.790995497748874413e+03 1.295439830227840702e-05
1.791895947973986949e+03 1.285573445037008376e-05
1.792796398199099485e+03 1.276256148512180031e-05
1.793696848424212021e+03 1.267401600147988655e-05
1.794597298649324557e+03 1.258940923244262357e-05
1.795497748874437093e+03 1.250818640327426658e-05
1.796398199099549629e+03 1.242989664063141974e-05
1.797298649324662165e+03 1.235417043654412733e-05
1.798199099549774701e+03 1.228070258736260143e-05
1.799099549774887464e+03 1.220923914673654369e-05
1.800000000000000000e+03 1.213956735374778381e-05
