0.000000000000000000e+00 1.017101325209952573e-03
9.004502251125562351e-01 1.369604398889450510e-03
1.800900450225112470e+00 1.816157531621800936e-03
2.701350675337668594e+00 2.250854922916772569e-03
3.601800900450224940e+00 2.439467747169644582e-03
4.502251125562780842e+00 2.240511876540333958e-03
5.402701350675337189e+00 1.805419649775468404e-03
6.303151575787893535e+00 1.362468782889132137e-03
7.203601800900449881e+00 1.013137570622186763e-03
8.104052026013006227e+00 7.617733527207603541e-04
9.004502251125561685e+00 5.845321907650012552e-04
9.904952476238118919e+00 4.584645076696906895e-04
1.080540270135067438e+01 3.671778761147180439e-04
1.170585292646323161e+01 2.997410167572184584e-04
1.260630315157578707e+01 2.489210294527054493e-04
1.350675337668834430e+01 2.099004727264489750e-04
1.440720360180089976e+01 1.794202418740481746e-04
1.530765382691345522e+01 1.552202692512716364e-04
1.620810405202601245e+01 1.357329481837118653e-04
1.710855427713856969e+01 1.199009857521451537e-04
1.800900450225112337e+01 1.069067507956585229e-04
1.890945472736368060e+01 9.595228639382170877e-05
1.980990495247623784e+01 8.634601886112231600e-05
2.071035517758879507e+01 7.777831677723237472e-05
2.161080540270134875e+01 7.025112937680025012e-05
2.251125562781390599e+01 6.375583570501254516e-05
2.341170585292646322e+01 5.819035203619607574e-05
2.431215607803901690e+01 5.342113468581425483e-05
2.521260630315157414e+01 4.932905867280608321e-05
2.611305652826413137e+01 4.582465434694549754e-05
2.701350675337668861e+01 4.284465023725771290e-05
2.791395697848924229e+01 4.032890235618004268e-05
2.881440720360179952e+01 3.816661683966380658e-05
2.971485742871435676e+01 3.615809278934118093e-05
3.061530765382691044e+01 3.413101517474849086e-05
3.151575787893946767e+01 3.208866310382617012e-05
3.241620810405202491e+01 3.011481075900976695e-05
3.331665832916458214e+01 2.828064992883008781e-05
3.421710855427713938e+01 2.665412251162275676e-05
3.511755877938969661e+01 2.526188353157370642e-05
3.601800900450224674e+01 2.405382053971790623e-05
3.691845922961480397e+01 2.291453957447240079e-05
3.781890945472736121e+01 2.175549535312410376e-05
3.871935967983991844e+01 2.060277290930735713e-05
3.961980990495247568e+01 1.953467043448214093e-05
4.052026013006503291e+01 1.859223501187599862e-05
4.142071035517759015e+01 1.777738006417704591e-05
4.232116058029014027e+01 1.707901275382779966e-05
4.322161080540269751e+01 1.648278075245495879e-05
4.412206103051525474e+01 1.597079558112834201e-05
4.502251125562781198e+01 1.553194394855265858e-05
4.592296148074036921e+01 1.517045733251915208e-05
4.682341170585292645e+01 1.488358033621107799e-05
4.772386193096548368e+01 1.464439506937291444e-05
4.862431215607803381e+01 1.440872569309087872e-05
4.952476238119059104e+01 1.413830528523835361e-05
5.042521260630314828e+01 1.382996181723222385e-05
5.132566283141570551e+01 1.350696756693565112e-05
5.222611305652826275e+01 1.319068379140842822e-05
5.312656328164081998e+01 1.291766251294234572e-05
5.402701350675337721e+01 1.271422664811396517e-05
5.492746373186592734e+01 1.253138880423390946e-05
5.582791395697848458e+01 1.227850501289727917e-05
5.672836418209104181e+01 1.195856201431364763e-05
5.762881440720359905e+01 1.167709024511261520e-05
5.852926463231615628e+01 1.148683784477795691e-05
5.942971485742871351e+01 1.133081671539060561e-05
6.033016508254127075e+01 1.114193816026886047e-05
6.123061530765382088e+01 1.094328085557601080e-05
6.213106553276637811e+01 1.081407873791028576e-05
6.303151575787893535e+01 1.077625777356888139e-05
6.393196598299149258e+01 1.073626855832219407e-05
6.483241620810404982e+01 1.056660684419448176e-05
6.573286643321659994e+01 1.024189545606692891e-05
6.663331665832916428e+01 9.819815234920340662e-06
6.753376688344171441e+01 9.359661651450464247e-06
6.843421710855427875e+01 8.936417351852859314e-06
6.933466733366682888e+01 8.612370244831937937e-06
7.023511755877939322e+01 8.405825082799854255e-06
7.113556778389194335e+01 8.312235922860277453e-06
7.203601800900449348e+01 8.316503963339101163e-06
7.293646823411705782e+01 8.392703093853163157e-06
7.383691845922960795e+01 8.509514125648922004e-06
7.473736868434217229e+01 8.642617359972233764e-06
7.563781890945472242e+01 8.805967044099586024e-06
7.653826913456728676e+01 9.054544922933543375e-06
7.743871935967983688e+01 9.429834090254220536e-06
7.833916958479238701e+01 9.900343242377845991e-06
7.923961980990495135e+01 1.034518527768137736e-05
8.014007003501750148e+01 1.058950927985339786e-05
8.104052026013006582e+01 1.054628468402218894e-05
8.194097048524261595e+01 1.035266958255893585e-05
8.284142071035518029e+01 1.021124869530091766e-05
8.374187093546773042e+01 1.016462987308806718e-05
8.464232116058028055e+01 1.009584828989698429e-05
8.554277138569284489e+01 9.910538653688959394e-06
8.644322161080539502e+01 9.647289369670548364e-06
8.734367183591795936e+01 9.392152115499210395e-06
8.824412206103050949e+01 9.155635250557810821e-06
8.914457228614307382e+01 8.886078465324672443e-06
9.004502251125562395e+01 8.597037228837458897e-06
9.094547273636817408e+01 8.385885041080911012e-06
9.184592296148073842e+01 8.321950344609527854e-06
9.274637318659328855e+01 8.372719461618840237e-06
9.364682341170585289e+01 8.447221234069435462e-06
9.454727363681840302e+01 8.499249531616594327e-06
9.544772386193096736e+01 8.552227591909728494e-06
9.634817408704351749e+01 8.648165885887951703e-06
9.724862431215606762e+01 8.799464370768417614e-06
9.814907453726863196e+01 8.955173132680009681e-06
9.904952476238118209e+01 9.071508200593400348e-06
9.994997498749374643e+01 9.198014110486017771e-06
1.008504252126062966e+02 9.346678651043532806e-06
1.017508754377188609e+02 9.398440451972812229e-06
1.026513256628314110e+02 9.266402599754467199e-06
1.035517758879439612e+02 9.010377010944610706e-06
1.044522261130565255e+02 8.745303859669264940e-06
1.053526763381690756e+02 8.533904849518003693e-06
1.062531265632816400e+02 8.386671335943176681e-06
1.071535767883941901e+02 8.265305082304675945e-06
1.080540270135067544e+02 8.097247650740815024e-06
1.089544772386193046e+02 7.895524361225123364e-06
1.098549274637318547e+02 7.770697973368977021e-06
1.107553776888444190e+02 7.794460790762998745e-06
1.116558279139569692e+02 7.960609368248071130e-06
1.125562781390695335e+02 8.222460018382280437e-06
1.134567283641820836e+02 8.518363948229308469e-06
1.143571785892946480e+02 8.768315031998170277e-06
1.152576288144071981e+02 8.870225872356312080e-06
1.161580790395197482e+02 8.790087427613668748e-06
1.170585292646323126e+02 8.636520704042930971e-06
1.179589794897448627e+02 8.517734657371163517e-06
1.188594297148574270e+02 8.451017442507994899e-06
1.197598799399699772e+02 8.427222994667628563e-06
1.206603301650825415e+02 8.423546683060584823e-06
1.215607803901950916e+02 8.433867629583770916e-06
1.224612306153076418e+02 8.521652908605066907e-06
1.233616808404202061e+02 8.757788705175328442e-06
1.242621310655327562e+02 9.131354589552230603e-06
1.251625812906453206e+02 9.580545859649261366e-06
1.260630315157578707e+02 1.006876389193381787e-05
1.269634817408704350e+02 1.056681437291457983e-05
1.278639319659829852e+02 1.099467279347594172e-05
1.287643821910955353e+02 1.127841188758117716e-05
1.296648324162080996e+02 1.139791696561529510e-05
1.305652826413206640e+02 1.137205463729091814e-05
1.314657328664331999e+02 1.125897198092567541e-05
1.323661830915457642e+02 1.115368613834376996e-05
1.332666333166583286e+02 1.109858141490427167e-05
1.341670835417708929e+02 1.104738981259074131e-05
1.350675337668834288e+02 1.096075984877394860e-05
1.359679839919959932e+02 1.087283618897485179e-05
1.368684342171085575e+02 1.079674721549458017e-05
1.377688844422210934e+02 1.069318176038377143e-05
1.386693346673336578e+02 1.056251230950184813e-05
1.395697848924462221e+02 1.048944502112781859e-05
1.404702351175587864e+02 1.052281704140815781e-05
1.413706853426713224e+02 1.062312266406921449e-05
1.422711355677838867e+02 1.078854334553045960e-05
1.431715857928964510e+02 1.107612889733618127e-05
1.440720360180089870e+02 1.143528378961376683e-05
1.449724862431215513e+02 1.173945992874139895e-05
1.458729364682341156e+02 1.196079457836530702e-05
1.467733866933466800e+02 1.207852391811425056e-05
1.476738369184592159e+02 1.202781628749390974e-05
1.485742871435717802e+02 1.179341025686084251e-05
1.494747373686843446e+02 1.142336801636686923e-05
1.503751875937968805e+02 1.102091761050506960e-05
1.512756378189094448e+02 1.070359266019905650e-05
1.521760880440220092e+02 1.053025293183845869e-05
1.530765382691345735e+02 1.049174914135945550e-05
1.539769884942471094e+02 1.055934583648192754e-05
1.548774387193596738e+02 1.070964625041454786e-05
1.557778889444722381e+02 1.090073984722570199e-05
1.566783391695847740e+02 1.111275838108575726e-05
1.575787893946973384e+02 1.139039893515540713e-05
1.584792396198099027e+02 1.174263422332838130e-05
1.593796898449224670e+02 1.213205173116428266e-05
1.602801400700350030e+02 1.251863982316946845e-05
1.611805902951475673e+02 1.288681550013544302e-05
1.620810405202601316e+02 1.323276722358872174e-05
1.629814907453726676e+02 1.351024080937526605e-05
1.638819409704852319e+02 1.367170352497920437e-05
1.647823911955977962e+02 1.370945962469873596e-05
1.656828414207103606e+02 1.361553975198731792e-05
1.665832916458228965e+02 1.337353213177957750e-05
1.674837418709354608e+02 1.303586233925818058e-05
1.683841920960480252e+02 1.272352548721885981e-05
1.692846423211605611e+02 1.251887020390452798e-05
1.701850925462731254e+02 1.245088408192125320e-05
1.710855427713856898e+02 1.252382479693957554e-05
1.719859929964982541e+02 1.269095361194307345e-05
1.728864432216107900e+02 1.280318170663535349e-05
1.737868934467233544e+02 1.274094846885994291e-05
1.746873436718359187e+02 1.260409334480416265e-05
1.755877938969484546e+02 1.252982095604658520e-05
1.764882441220610190e+02 1.252182615960107558e-05
1.773886943471735833e+02 1.257721282732499944e-05
1.782891445722861476e+02 1.274107193732923581e-05
1.791895947973986836e+02 1.302258460336115092e-05
1.800900450225112479e+02 1.337452480342514944e-05
1.809904952476238122e+02 1.373196563242488087e-05
1.818909454727363482e+02 1.406604926867197250e-05
1.827913956978489125e+02 1.440747656044627478e-05
1.836918459229614768e+02 1.479210439601279323e-05
1.845922961480740412e+02 1.519827746372697610e-05
1.854927463731865771e+02 1.554005504636831223e-05
1.863931965982991414e+02 1.573381419315231109e-05
1.872936468234117058e+02 1.579674097926800418e-05
1.881940970485242417e+02 1.585069805773666431e-05
1.890945472736368060e+02 1.604640046202118132e-05
1.899949974987493704e+02 1.645571738379323270e-05
1.908954477238619347e+02 1.699916349308558701e-05
1.917958979489744706e+02 1.742958805087762737e-05
1.926963481740870350e+02 1.750166227890531838e-05
1.935967983991995993e+02 1.723648163077038379e-05
1.944972486243121352e+02 1.683150133905422663e-05
1.953976988494246996e+02 1.650189805778780626e-05
1.962981490745372639e+02 1.636567023173078188e-05
1.971985992996498283e+02 1.631775789150209625e-05
1.980990495247623642e+02 1.614265319313624650e-05
1.989994997498749285e+02 1.580347076218522663e-05
1.998999499749874929e+02 1.548421448221939565e-05
2.008004002001000288e+02 1.537386656599593884e-05
2.017008504252125931e+02 1.553232638070467202e-05
2.026013006503251574e+02 1.588196009991616094e-05
2.035017508754377218e+02 1.623742161469126657e-05
2.044022011005502577e+02 1.644809884896478256e-05
2.053026513256628220e+02 1.652017411645563633e-05
2.062031015507753864e+02 1.652326684732171959e-05
2.071035517758879223e+02 1.651804319097141915e-05
2.080040020010004866e+02 1.650136714190042166e-05
2.089044522261130510e+02 1.638587099563205686e-05
2.098049024512256153e+02 1.616652635399000313e-05
2.107053526763381512e+02 1.598246662018182527e-05
2.116058029014507156e+02 1.591072781446018736e-05
2.125062531265632799e+02 1.589625321343750709e-05
2.134067033516758158e+02 1.586972703333815841e-05
2.143071535767883802e+02 1.580830296304015843e-05
2.152076038019009445e+02 1.572227206513657644e-05
2.161080540270135089e+02 1.565824929259749867e-05
2.170085042521260448e+02 1.571348294228946816e-05
2.179089544772386091e+02 1.595809087371013630e-05
2.188094047023511735e+02 1.639361835759246952e-05
2.197098549274637094e+02 1.700221282465191167e-05
2.206103051525762737e+02 1.770911249116139798e-05
2.215107553776888381e+02 1.832754465997455098e-05
2.224112056028014024e+02 1.867062031893705797e-05
2.233116558279139383e+02 1.867598608222937961e-05
2.242121060530265027e+02 1.844279556215847610e-05
2.251125562781390670e+02 1.812461019169566508e-05
2.260130065032516029e+02 1.780122602370883781e-05
2.269134567283641672e+02 1.746949472645737314e-05
2.278139069534767316e+02 1.713352618330187931e-05
2.287143571785892959e+02 1.688688114812706242e-05
2.296148074037018318e+02 1.683333524450618667e-05
2.305152576288143962e+02 1.694774411887202181e-05
2.314157078539269605e+02 1.710931421881777594e-05
2.323161580790394964e+02 1.728706598021484810e-05
2.332166083041520608e+02 1.753012913441099574e-05
2.341170585292646251e+02 1.787678101450948062e-05
2.350175087543771895e+02 1.831922744073153354e-05
2.359179589794897254e+02 1.875747539992577546e-05
2.368184092046022897e+02 1.909194511613355240e-05
2.377188594297148541e+02 1.927331384750734279e-05
2.386193096548273900e+02 1.925959779444350015e-05
2.395197598799399543e+02 1.908995864637292266e-05
2.404202101050525187e+02 1.888579796164010301e-05
2.413206603301650830e+02 1.872606055024409922e-05
2.422211105552776189e+02 1.855511632032494845e-05
2.431215607803901833e+02 1.823010142017674425e-05
2.440220110055027476e+02 1.776068760599219733e-05
2.449224612306152835e+02 1.733125065381761466e-05
2.458229114557278479e+02 1.711560959432605850e-05
2.467233616808404122e+02 1.716352872294488969e-05
2.476238119059529765e+02 1.738045715065530584e-05
2.485242621310655124e+02 1.756430031061409399e-05
2.494247123561780768e+02 1.754786511917981191e-05
2.503251625812906411e+02 1.735984309218754605e-05
2.512256128064031770e+02 1.707513308808989387e-05
2.521260630315157414e+02 1.675152565203820280e-05
2.530265132566283057e+02 1.647478434308849616e-05
2.539269634817408701e+02 1.630482782361761997e-05
2.548274137068534060e+02 1.630835843100914719e-05
2.557278639319659703e+02 1.654890516057790447e-05
2.566283141570785347e+02 1.701971542398380888e-05
2.575287643821910706e+02 1.765971388215059975e-05
2.584292146073036633e+02 1.836680689661868439e-05
2.593296648324161993e+02 1.900587010359965282e-05
2.602301150575287352e+02 1.952713057473750983e-05
2.611305652826413279e+02 1.997867090140017737e-05
2.620310155077538639e+02 2.037060054163330832e-05
2.629314657328663998e+02 2.064196146609973356e-05
2.638319159579789925e+02 2.069826155039508175e-05
2.647323661830915285e+02 2.046031327547575510e-05
2.656328164082040644e+02 1.999003951115233200e-05
2.665332666333166571e+02 1.954701187919249226e-05
2.674337168584291931e+02 1.933706281462175427e-05
2.683341670835417858e+02 1.935030344647006522e-05
2.692346173086543217e+02 1.951560020154667185e-05
2.701350675337668577e+02 1.975668910260974402e-05
2.710355177588794504e+02 1.997924412961089155e-05
2.719359679839919863e+02 2.016623531109370304e-05
2.728364182091045222e+02 2.034338749863103370e-05
2.737368684342171150e+02 2.049262989394684648e-05
2.746373186593296509e+02 2.055038399074228414e-05
2.755377688844421868e+02 2.043618496484985884e-05
2.764382191095547796e+02 2.020398839482143228e-05
2.773386693346673155e+02 2.002894231913265180e-05
2.782391195597798514e+02 1.997261193574649161e-05
2.791395697848924442e+02 1.993496251615106040e-05
2.800400200100049801e+02 1.979049429597469758e-05
2.809404702351175729e+02 1.956750076104196113e-05
2.818409204602301088e+02 1.943799657421003678e-05
2.827413706853426447e+02 1.956989883871177856e-05
2.836418209104552375e+02 2.004041286833732843e-05
2.845422711355677734e+02 2.079832564487022031e-05
2.854427213606803093e+02 2.169556566889636228e-05
2.863431715857929021e+02 2.258896778747016617e-05
2.872436218109054380e+02 2.345415074893039063e-05
2.881440720360179739e+02 2.427569573509427543e-05
2.890445222611305667e+02 2.487922666778831919e-05
2.899449724862431026e+02 2.506579256129682598e-05
2.908454227113556385e+02 2.488197067027609512e-05
2.917458729364682313e+02 2.458594167509630090e-05
2.926463231615807672e+02 2.435199197665763687e-05
2.935467733866933600e+02 2.414568393578382118e-05
2.944472236118058959e+02 2.388401038178989698e-05
2.953476738369184318e+02 2.364958883428578770e-05
2.962481240620310246e+02 2.369454281608922411e-05
2.971485742871435605e+02 2.415010332883593981e-05
2.980490245122560964e+02 2.486575157370793531e-05
2.989494747373686891e+02 2.555258762058963015e-05
2.998499249624812251e+02 2.606220052563493103e-05
3.007503751875937610e+02 2.645045471715139974e-05
3.016508254127063537e+02 2.678903805195238070e-05
3.025512756378188897e+02 2.704698654419594316e-05
3.034517258629314256e+02 2.720289529827366336e-05
3.043521760880440183e+02 2.732468893417289147e-05
3.052526263131565543e+02 2.749802522491588910e-05
3.061530765382691470e+02 2.774827321920850424e-05
3.070535267633816829e+02 2.802605958010760068e-05
3.079539769884942189e+02 2.824391859289616976e-05
3.088544272136068116e+02 2.834763659728980041e-05
3.097548774387193475e+02 2.846153877440894453e-05
3.106553276638318835e+02 2.874571333919612637e-05
3.115557778889444762e+02 2.909616275608391321e-05
3.124562281140570121e+02 2.934596743370942719e-05
3.133566783391695481e+02 2.962237112057907723e-05
3.142571285642821408e+02 3.014868984383220433e-05
3.151575787893946767e+02 3.093901696235853640e-05
3.160580290145072127e+02 3.180437362017454847e-05
3.169584792396198054e+02 3.253540168520862029e-05
3.178589294647323413e+02 3.296564081891067180e-05
3.187593796898449341e+02 3.300984120589668322e-05
3.196598299149574700e+02 3.282080642671511295e-05
3.205602801400700059e+02 3.263333355876667127e-05
3.214607303651825987e+02 3.252003157939833061e-05
3.223611805902951346e+02 3.234676943497324670e-05
3.232616308154076705e+02 3.194950901009868687e-05
3.241620810405202633e+02 3.142919792337104523e-05
3.250625312656327992e+02 3.116351262041945359e-05
3.259629814907453351e+02 3.145440373922154658e-05
3.268634317158579279e+02 3.236787232354222074e-05
3.277638819409704638e+02 3.377253855310646970e-05
3.286643321660829997e+02 3.530643535812869499e-05
3.295647823911955925e+02 3.655356159877148859e-05
3.304652326163081284e+02 3.725923454497972803e-05
3.313656828414207212e+02 3.734836050129534886e-05
3.322661330665332571e+02 3.686158231916036485e-05
3.331665832916457930e+02 3.609913239655319455e-05
3.340670335167583858e+02 3.547923417425143198e-05
3.349674837418709217e+02 3.511622929698528960e-05
3.358679339669834576e+02 3.481041083579082307e-05
3.367683841920960504e+02 3.440270215084226382e-05
3.376688344172085863e+02 3.391502079235566040e-05
3.385692846423211222e+02 3.353392275675507909e-05
3.394697348674337150e+02 3.349322585216558219e-05
3.403701850925462509e+02 3.382055538603760653e-05
3.412706353176587868e+02 3.435788461815487494e-05
3.421710855427713796e+02 3.494446742248105410e-05
3.430715357678839155e+02 3.543559536580497102e-05
3.439719859929965082e+02 3.562535672700124908e-05
3.448724362181090441e+02 3.538372537810623072e-05
3.457728864432215801e+02 3.495519568026860593e-05
3.466733366683341728e+02 3.470643692789078907e-05
3.475737868934467087e+02 3.468882801713389993e-05
3.484742371185592447e+02 3.470159064054717128e-05
3.493746873436718374e+02 3.460269442782396498e-05
3.502751375687843733e+02 3.440427616823525767e-05
3.511755877938969093e+02 3.417412988151343048e-05
3.520760380190095020e+02 3.404564296735729744e-05
3.529764882441220379e+02 3.411656937264169595e-05
3.538769384692345739e+02 3.412396091741463379e-05
3.547773886943471666e+02 3.370791794993840008e-05
3.556778389194597025e+02 3.295410068413749005e-05
3.565782891445722953e+02 3.225114097126057774e-05
3.574787393696848312e+02 3.184140496209107783e-05
3.583791895947973671e+02 3.167100507589582159e-05
3.592796398199099599e+02 3.159733334217087862e-05
3.601800900450224958e+02 3.151158464724786119e-05
3.610805402701350317e+02 3.144006822756947205e-05
3.619809904952476245e+02 3.151471501229733888e-05
3.628814407203601604e+02 3.168484721780979308e-05
3.637818909454726963e+02 3.168004971024043542e-05
3.646823411705852891e+02 3.131324310834593036e-05
3.655827913956978250e+02 3.062501775086179427e-05
3.664832416208103609e+02 2.978465387053538517e-05
3.673836918459229537e+02 2.898073429844794734e-05
3.682841420710354896e+02 2.830804624795107358e-05
3.691845922961480824e+02 2.784561327159037965e-05
3.700850425212606183e+02 2.765296553929075488e-05
3.709854927463731542e+02 2.762284038785652745e-05
3.718859429714857470e+02 2.756850134089714572e-05
3.727863931965982829e+02 2.751360120382575941e-05
3.736868434217108188e+02 2.761533051693257804e-05
3.745872936468234116e+02 2.789898441290892208e-05
3.754877438719359475e+02 2.823621322979704825e-05
3.763881940970484834e+02 2.850361079489912983e-05
3.772886443221610762e+02 2.876207206353256039e-05
3.781890945472736121e+02 2.916868727532313506e-05
3.790895447723861480e+02 2.969854481150913493e-05
3.799899949974987408e+02 3.011772065180190147e-05
3.808904452226112767e+02 3.022847910195712503e-05
3.817908954477238694e+02 3.000188572857768045e-05
3.826913456728364054e+02 2.964183504382306261e-05
3.835917958979489413e+02 2.945285096391878150e-05
3.844922461230615340e+02 2.952302243779653289e-05
3.853926963481740700e+02 2.965326993124564866e-05
3.862931465732866059e+02 2.961227675676338778e-05
3.871935967983991986e+02 2.935507657775811101e-05
3.880940470235117346e+02 2.896738616409122550e-05
3.889944972486242705e+02 2.861184688272457637e-05
3.898949474737368632e+02 2.850133762733640802e-05
3.907953976988493991e+02 2.873037471363338699e-05
3.916958479239619351e+02 2.921990275954815898e-05
3.925962981490745278e+02 2.982851942217317704e-05
3.934967483741870637e+02 3.034791147659429708e-05
3.943971985992996565e+02 3.057539196693974517e-05
3.952976488244121924e+02 3.045180988936267680e-05
3.961980990495247283e+02 3.009720200149072300e-05
3.970985492746373211e+02 2.978785535104269490e-05
3.979989994997498570e+02 2.974570551189966488e-05
3.988994497248623929e+02 2.993846206935362196e-05
3.997998999499749857e+02 3.019679331797790937e-05
4.007003501750875216e+02 3.042130982409622429e-05
4.016008004002000575e+02 3.051975432325046596e-05
4.025012506253126503e+02 3.041034245299568413e-05
4.034017008504251862e+02 3.006393565172910573e-05
4.043021510755377221e+02 2.951615903724408096e-05
4.052026013006503149e+02 2.893554604366033718e-05
4.061030515257628508e+02 2.851127999918674457e-05
4.070035017508754436e+02 2.827897435584334924e-05
4.079039519759879795e+02 2.821732426346548913e-05
4.088044022011005154e+02 2.830114786267737918e-05
4.097048524262131082e+02 2.839603090883632602e-05
4.106053026513256441e+02 2.836600953322317511e-05
4.115057528764381800e+02 2.823958755853629444e-05
4.124062031015507728e+02 2.812036883620892849e-05
4.133066533266633087e+02 2.815676399017998387e-05
4.142071035517758446e+02 2.846843505542197132e-05
4.151075537768884374e+02 2.901539253471911093e-05
4.160080040020009733e+02 2.961973005262764685e-05
4.169084542271135092e+02 3.001738384907315667e-05
4.178089044522261020e+02 2.996611134147409331e-05
4.187093546773386379e+02 2.952183950629849688e-05
4.196098049024512306e+02 2.902794433889372230e-05
4.205102551275637666e+02 2.869490920948782254e-05
4.214107053526763025e+02 2.854361097385942384e-05
4.223111555777888952e+02 2.856605356193219996e-05
4.232116058029014312e+02 2.866399702933006464e-05
4.241120560280139671e+02 2.873155891138539749e-05
4.250125062531265598e+02 2.880621249971212700e-05
4.259129564782390958e+02 2.890695445686750862e-05
4.268134067033516317e+02 2.896368801300490243e-05
4.277138569284642244e+02 2.896623774356632959e-05
4.286143071535767604e+02 2.895123833170347793e-05
4.295147573786892963e+02 2.894804715741672955e-05
4.304152076038018890e+02 2.897501717245514174e-05
4.313156578289144250e+02 2.907328432269722633e-05
4.322161080540270177e+02 2.929561549973956812e-05
4.331165582791395536e+02 2.960177235932663482e-05
4.340170085042520896e+02 2.992949045708337760e-05
4.349174587293646823e+02 3.028366010788607150e-05
4.358179089544772182e+02 3.070012170872149141e-05
4.367183591795897541e+02 3.114125982497275408e-05
4.376188094047023469e+02 3.142631098392142177e-05
4.385192596298148828e+02 3.136177177376248565e-05
4.394197098549274187e+02 3.099317789574123510e-05
4.403201600800400115e+02 3.059798781585249748e-05
4.412206103051525474e+02 3.034112957752263114e-05
4.421210605302650833e+02 3.016879963113279606e-05
4.430215107553776761e+02 3.001900449412522415e-05
4.439219609804902120e+02 2.992975210753013267e-05
4.448224112056028048e+02 2.989520926970429534e-05
4.457228614307153407e+02 2.979129704297488979e-05
4.466233116558278766e+02 2.954683863213647746e-05
4.475237618809404694e+02 2.923721442199014075e-05
4.484242121060530053e+02 2.895677299046526160e-05
4.493246623311655412e+02 2.872959560257900812e-05
4.502251125562781340e+02 2.855679940626272556e-05
4.511255627813906699e+02 2.846316467199624874e-05
4.520260130065032058e+02 2.846144934378954048e-05
4.529264632316157986e+02 2.856280720155160110e-05
4.538269134567283345e+02 2.879372315174711603e-05
4.547273636818408704e+02 2.909637139720049704e-05
4.556278139069534632e+02 2.931013311065070172e-05
4.565282641320659991e+02 2.932805995217398738e-05
4.574287143571785919e+02 2.923364244712543908e-05
4.583291645822911278e+02 2.920288467561708463e-05
4.592296148074036637e+02 2.930916363403848209e-05
4.601300650325162565e+02 2.950211545074820445e-05
4.610305152576287924e+02 2.968469864301639686e-05
4.619309654827413283e+02 2.980052884263202526e-05
4.628314157078539210e+02 2.980354824999138110e-05
4.637318659329664570e+02 2.968327530668024797e-05
4.646323161580789929e+02 2.949504750155401199e-05
4.655327663831915856e+02 2.927650950044730722e-05
4.664332166083041216e+02 2.908503081676692075e-05
4.673336668334167143e+02 2.899180485699638245e-05
4.682341170585292502e+02 2.904957553727966166e-05
4.691345672836417862e+02 2.932799378862193664e-05
4.700350175087543789e+02 2.979674719610157893e-05
4.709354677338669148e+02 3.025850126886702547e-05
4.718359179589794508e+02 3.058893496109477069e-05
4.727363681840920435e+02 3.090541856426104006e-05
4.736368184092045794e+02 3.132821205600239866e-05
4.745372686343171154e+02 3.182691640849994380e-05
4.754377188594297081e+02 3.226546695433632614e-05
4.763381690845422440e+02 3.241975074121010648e-05
4.772386193096547800e+02 3.217345927425247068e-05
4.781390695347673727e+02 3.163545127218536895e-05
4.790395197598799086e+02 3.100812030062949625e-05
4.799399699849925014e+02 3.044289586976333306e-05
4.808404202101050373e+02 3.001394955852092981e-05
4.817408704352175732e+02 2.980279725972231479e-05
4.826413206603301660e+02 2.984379355502832145e-05
4.835417708854427019e+02 3.001855384686981444e-05
4.844422211105552378e+02 3.018805390524405120e-05
4.853426713356678306e+02 3.038500761436045098e-05
4.862431215607803665e+02 3.072842953083096873e-05
4.871435717858929024e+02 3.115460612317662005e-05
4.880440220110054952e+02 3.145674132985332405e-05
4.889444722361180311e+02 3.157115671250442326e-05
4.898449224612305670e+02 3.160656990767931885e-05
4.907453726863431598e+02 3.169530257808558023e-05
4.916458229114556957e+02 3.183337879432192330e-05
4.925462731365682885e+02 3.198118144414461195e-05
4.934467233616808244e+02 3.223679889809900911e-05
4.943471735867933603e+02 3.267663186491273159e-05
4.952476238119059531e+02 3.321355663156132774e-05
4.961480740370184890e+02 3.372604575665949040e-05
4.970485242621310249e+02 3.411981402615669231e-05
4.979489744872436177e+02 3.432298159482889184e-05
4.988494247123561536e+02 3.434440786898052147e-05
4.997498749374686895e+02 3.425047673418667231e-05
5.006503251625812823e+02 3.417356403859982242e-05
5.015507753876938182e+02 3.434271705237335379e-05
5.024512256128063541e+02 3.489179600642183717e-05
5.033516758379189469e+02 3.571371384729420492e-05
5.042521260630314828e+02 3.657247783180786173e-05
5.051525762881440755e+02 3.717432939998211735e-05
5.060530265132566115e+02 3.731123444088008237e-05
5.069534767383691474e+02 3.705311627790676979e-05
5.078539269634817401e+02 3.666236817736415464e-05
5.087543771885942760e+02 3.630993445093855791e-05
5.096548274137068120e+02 3.597056215315950161e-05
5.105552776388194047e+02 3.552484901523521213e-05
5.114557278639319406e+02 3.499304124766149760e-05
5.123561780890445334e+02 3.452032819395623218e-05
5.132566283141570693e+02 3.420093289279889701e-05
5.141570785392696052e+02 3.405986804488675065e-05
5.150575287643821412e+02 3.405522544362700146e-05
5.159579789894946771e+02 3.412279039950541108e-05
5.168584292146073267e+02 3.428961493173033590e-05
5.177588794397198626e+02 3.464693190388739793e-05
5.186593296648323985e+02 3.519575049019356818e-05
5.195597798899449344e+02 3.587181450863435639e-05
5.204602301150574704e+02 3.659338753004990680e-05
5.213606803401700063e+02 3.728062820740145854e-05
5.222611305652826559e+02 3.793313365143170942e-05
5.231615807903951918e+02 3.855566446234288069e-05
5.240620310155077277e+02 3.909017798543921941e-05
5.249624812406202636e+02 3.951455180642976094e-05
5.258629314657327996e+02 3.993601172517271110e-05
5.267633816908454492e+02 4.051565984235991753e-05
5.276638319159579851e+02 4.130567574872142945e-05
5.285642821410705210e+02 4.223047037230754459e-05
5.294647323661830569e+02 4.321226319579651593e-05
5.303651825912955928e+02 4.418371633834271539e-05
5.312656328164081287e+02 4.500833649328602100e-05
5.321660830415207784e+02 4.561030878259350759e-05
5.330665332666333143e+02 4.600931832924885827e-05
5.339669834917458502e+02 4.626597896945475500e-05
5.348674337168583861e+02 4.651927177199553949e-05
5.357678839419709220e+02 4.684329023551911549e-05
5.366683341670835716e+02 4.708543231805583257e-05
5.375687843921961075e+02 4.705706640098491692e-05
5.384692346173086435e+02 4.674710053572380742e-05
5.393696848424211794e+02 4.628081015873754522e-05
5.402701350675337153e+02 4.581734918912883678e-05
5.411705852926462512e+02 4.547034768040324952e-05
5.420710355177589008e+02 4.526957367812347520e-05
5.429714857428714367e+02 4.527059264560147659e-05
5.438719359679839727e+02 4.566328207359301880e-05
5.447723861930965086e+02 4.649968591427091420e-05
5.456728364182090445e+02 4.751240695594793922e-05
5.465732866433215804e+02 4.832924577517148631e-05
5.474737368684342300e+02 4.880443253389054247e-05
5.483741870935467659e+02 4.903696523429407948e-05
5.492746373186593019e+02 4.912821499419738660e-05
5.501750875437718378e+02 4.913036610757752796e-05
5.510755377688843737e+02 4.912923594760500401e-05
5.519759879939970233e+02 4.921430344909490584e-05
5.528764382191095592e+02 4.940942751244290063e-05
5.537768884442220951e+02 4.967266600509496750e-05
5.546773386693346310e+02 5.002895803532630530e-05
5.555777888944471670e+02 5.056555071021681007e-05
5.564782391195597029e+02 5.130156082079099323e-05
5.573786893446723525e+02 5.202271119180179083e-05
5.582791395697848884e+02 5.235736178156499945e-05
5.591795897948974243e+02 5.218367875646092677e-05
5.600800400200099602e+02 5.175323420798729775e-05
5.609804902451224962e+02 5.134676477579615765e-05
5.618809404702351458e+02 5.099257606184923246e-05
5.627813906953476817e+02 5.053244250551855904e-05
5.636818409204602176e+02 4.998807043414961834e-05
5.645822911455727535e+02 4.959568067144001758e-05
5.654827413706852894e+02 4.941037301396596386e-05
5.663831915957978254e+02 4.921519288142361058e-05
5.672836418209104750e+02 4.881447265261742714e-05
5.681840920460230109e+02 4.823143939952916504e-05
5.690845422711355468e+02 4.771331621568556926e-05
5.699849924962480827e+02 4.754273431264558782e-05
5.708854427213606186e+02 4.768046391119466038e-05
5.717858929464731546e+02 4.783101219602210220e-05
5.726863431715858042e+02 4.786343153769756319e-05
5.735867933966983401e+02 4.784186069504714624e-05
5.744872436218108760e+02 4.779796183928424115e-05
5.753876938469234119e+02 4.768209543425990925e-05
5.762881440720359478e+02 4.746869923612340956e-05
5.771885942971485974e+02 4.723404629214111590e-05
5.780890445222611334e+02 4.707054496300721073e-05
5.789894947473736693e+02 4.696448995580196313e-05
5.798899449724862052e+02 4.686493870537684084e-05
5.807903951975987411e+02 4.685731219783156057e-05
5.816908454227112770e+02 4.712238823973575726e-05
5.825912956478239266e+02 4.774180650392386181e-05
5.834917458729364625e+02 4.855094251185610571e-05
5.843921960980489985e+02 4.927406548412301661e-05
5.852926463231615344e+02 4.967415004156552227e-05
5.861930965482740703e+02 4.959911561442871991e-05
5.870935467733867199e+02 4.911716090628226005e-05
5.879939969984992558e+02 4.842719126884899419e-05
5.888944472236117917e+02 4.762982800029694859e-05
5.897948974487243277e+02 4.683392269413441921e-05
5.906953476738368636e+02 4.618204936585067389e-05
5.915957978989493995e+02 4.567129301227651451e-05
5.924962481240620491e+02 4.524174263203589269e-05
5.933966983491745850e+02 4.486336625363407030e-05
5.942971485742871209e+02 4.456565433942845015e-05
5.951975987993996569e+02 4.444362789584990531e-05
5.960980490245121928e+02 4.453009686345175749e-05
5.969984992496247287e+02 4.471888344492588516e-05
5.978989494747373783e+02 4.486764577872616423e-05
5.987993996998499142e+02 4.489086603777765023e-05
5.996998499249624501e+02 4.473159508389511359e-05
6.006003001500749860e+02 4.434446267374214738e-05
6.015007503751875220e+02 4.380288584286306435e-05
6.024012006003001716e+02 4.322693441304391830e-05
6.033016508254127075e+02 4.264104966668854127e-05
6.042021010505252434e+02 4.205037243207562959e-05
6.051025512756377793e+02 4.150956199912293721e-05
6.060030015007503152e+02 4.101889580657050953e-05
6.069034517258628512e+02 4.049477656552683777e-05
6.078039019509755008e+02 3.994458231653981852e-05
6.087043521760880367e+02 3.953197126746692389e-05
6.096048024012005726e+02 3.939030292638932964e-05
6.105052526263131085e+02 3.948986429628601716e-05
6.114057028514256444e+02 3.976234524761781053e-05
6.123061530765382940e+02 4.023960031409377604e-05
6.132066033016508300e+02 4.098462221418905274e-05
6.141070535267633659e+02 4.194763343456757183e-05
6.150075037518759018e+02 4.291346843731447177e-05
6.159079539769884377e+02 4.368699785080709783e-05
6.168084042021009736e+02 4.426444174587960327e-05
6.177088544272136232e+02 4.465861683154064357e-05
6.186093046523261592e+02 4.470794153997635303e-05
6.195097548774386951e+02 4.420474256711234493e-05
6.204102051025512310e+02 4.316712441491965952e-05
6.213106553276637669e+02 4.190162536536842124e-05
6.222111055527763028e+02 4.083454370558703167e-05
6.231115557778889524e+02 4.023479854866039175e-05
6.240120060030014884e+02 4.011486383224076015e-05
6.249124562281140243e+02 4.032263902482924534e-05
6.258129064532265602e+02 4.056886758731464808e-05
6.267133566783390961e+02 4.060581298531170226e-05
6.276138069034517457e+02 4.034983861935119757e-05
6.285142571285642816e+02 3.983857621374308850e-05
6.294147073536768175e+02 3.928019536035056716e-05
6.303151575787893535e+02 3.893354250826328966e-05
6.312156078039018894e+02 3.888378474020010180e-05
6.321160580290144253e+02 3.908124724112192451e-05
6.330165082541270749e+02 3.940616996210783221e-05
6.339169584792396108e+02 3.964167621351538087e-05
6.348174087043521467e+02 3.965400945450762846e-05
6.357178589294646827e+02 3.951848053947156712e-05
6.366183091545772186e+02 3.933141371210169290e-05
6.375187593796898682e+02 3.903709713560352839e-05
6.384192096048024041e+02 3.855086993569033308e-05
6.393196598299149400e+02 3.793161172020830793e-05
6.402201100550274759e+02 3.736395727650952724e-05
6.411205602801400119e+02 3.700412325236884174e-05
6.420210105052525478e+02 3.683839908567915813e-05
6.429214607303651974e+02 3.672895719019029370e-05
6.438219109554777333e+02 3.655742425821032561e-05
6.447223611805902692e+02 3.626945894130981566e-05
6.456228114057028051e+02 3.590264732686493149e-05
6.465232616308153411e+02 3.554370032030045040e-05
6.474237118559278770e+02 3.522043422070196160e-05
6.483241620810405266e+02 3.488318396188957662e-05
6.492246123061530625e+02 3.448946056173048488e-05
6.501250625312655984e+02 3.405781183280426539e-05
6.510255127563781343e+02 3.359848833240073370e-05
6.519259629814906702e+02 3.312337116588101745e-05
6.528264132066033198e+02 3.269966015999370738e-05
6.537268634317158558e+02 3.241620516964419585e-05
6.546273136568283917e+02 3.230451897419178779e-05
6.555277638819409276e+02 3.235782922538276492e-05
6.564282141070534635e+02 3.260444050635326536e-05
6.573286643321659994e+02 3.298337633273198483e-05
6.582291145572786490e+02 3.320973723401917348e-05
6.591295647823911850e+02 3.303628393010029707e-05
6.600300150075037209e+02 3.251556963544061985e-05
6.609304652326162568e+02 3.188146130859816817e-05
6.618309154577287927e+02 3.133528553691377206e-05
6.627313656828414423e+02 3.094696786151421899e-05
6.636318159079539782e+02 3.072938885800442077e-05
6.645322661330665142e+02 3.070749109457595742e-05
6.654327163581790501e+02 3.089128412827733572e-05
6.663331665832915860e+02 3.122953395186496355e-05
6.672336168084041219e+02 3.161403879240282870e-05
6.681340670335167715e+02 3.193431330586323717e-05
6.690345172586293074e+02 3.209531888987708675e-05
6.699349674837418434e+02 3.210301484315584612e-05
6.708354177088543793e+02 3.208007134887262219e-05
6.717358679339669152e+02 3.208299964282371360e-05
6.726363181590794511e+02 3.212417124768604781e-05
6.735367683841921007e+02 3.234683991573150029e-05
6.744372186093046366e+02 3.287324428951345849e-05
6.753376688344171725e+02 3.361316971961220265e-05
6.762381190595297085e+02 3.438722452478965117e-05
6.771385692846422444e+02 3.505532292475147595e-05
6.780390195097548940e+02 3.548325013443197850e-05
6.789394697348674299e+02 3.557356487458731789e-05
6.798399199599799658e+02 3.529916203408517346e-05
6.807403701850925017e+02 3.475724734596768854e-05
6.816408204102050377e+02 3.416297894045838878e-05
6.825412706353175736e+02 3.365443215384237435e-05
6.834417208604302232e+02 3.332928178985545951e-05
6.843421710855427591e+02 3.333008044972336119e-05
6.852426213106552950e+02 3.373927064293998112e-05
6.861430715357678309e+02 3.447545740454143929e-05
6.870435217608803669e+02 3.528405810280902543e-05
6.879439719859930165e+02 3.596354955310229209e-05
6.888444222111055524e+02 3.654019838642822880e-05
6.897448724362180883e+02 3.701592964469804526e-05
6.906453226613306242e+02 3.725327353555975306e-05
6.915457728864431601e+02 3.721327960486029248e-05
6.924462231115556961e+02 3.702895782017364405e-05
6.933466733366683457e+02 3.680939989222977582e-05
6.942471235617808816e+02 3.655225920653412403e-05
6.951475737868934175e+02 3.627192886564931253e-05
6.960480240120059534e+02 3.603384103752313872e-05
6.969484742371184893e+02 3.586965535768255563e-05
6.978489244622311389e+02 3.582511250784587082e-05
6.987493746873436749e+02 3.592425344520524253e-05
6.996498249124562108e+02 3.610230044799037416e-05
7.005502751375687467e+02 3.633144272994114960e-05
7.014507253626812826e+02 3.665661481693160772e-05
7.023511755877938185e+02 3.708329137342938924e-05
7.032516258129064681e+02 3.751744878018139259e-05
7.041520760380190040e+02 3.782651080163211186e-05
7.050525262631315400e+02 3.796015059772275775e-05
7.059529764882440759e+02 3.791353993212314170e-05
7.068534267133566118e+02 3.775588278041899613e-05
7.077538769384691477e+02 3.769062341729095513e-05
7.086543271635817973e+02 3.793183800021495550e-05
7.095547773886943332e+02 3.853625911466200998e-05
7.104552276138068692e+02 3.926247514312358793e-05
7.113556778389194051e+02 3.970303438722492910e-05
7.122561280640319410e+02 3.958966222177574395e-05
7.131565782891445906e+02 3.898488363228384411e-05
7.140570285142571265e+02 3.819046305497887417e-05
7.149574787393696624e+02 3.748277592480198773e-05
7.158579289644821984e+02 3.697437084101569383e-05
7.167583791895947343e+02 3.663996707644541257e-05
7.176588294147072702e+02 3.649001257408461405e-05
7.185592796398199198e+02 3.663159210935860256e-05
7.194597298649324557e+02 3.707308351451497414e-05
7.203601800900449916e+02 3.770557307780696908e-05
7.212606303151575275e+02 3.848716173291862188e-05
7.221610805402700635e+02 3.936869907730204140e-05
7.230615307653827131e+02 4.012129456951408970e-05
7.239619809904952490e+02 4.050790269742108175e-05
7.248624312156077849e+02 4.052801138507863924e-05
7.257628814407203208e+02 4.035218022822104208e-05
7.266633316658328567e+02 4.016513925465800197e-05
7.275637818909453927e+02 4.012701460359978004e-05
7.284642321160580423e+02 4.031302767933161703e-05
7.293646823411705782e+02 4.068748659729505551e-05
7.302651325662831141e+02 4.114046008051408743e-05
7.311655827913956500e+02 4.160284488505395356e-05
7.320660330165081859e+02 4.206096127082184011e-05
7.329664832416207219e+02 4.251557052689423726e-05
7.338669334667333715e+02 4.299446441024405480e-05
7.347673836918459074e+02 4.349558240082059327e-05
7.356678339169584433e+02 4.395283320812845058e-05
7.365682841420709792e+02 4.436302289437465084e-05
7.374687343671835151e+02 4.478982663909214610e-05
7.383691845922961647e+02 4.508954707132706335e-05
7.392696348174087007e+02 4.496341923638621694e-05
7.401700850425212366e+02 4.437937110398227080e-05
7.410705352676337725e+02 4.366021648853425809e-05
7.419709854927463084e+02 4.317588019188884935e-05
7.428714357178588443e+02 4.297961265534251722e-05
7.437718859429714939e+02 4.290418389886559885e-05
7.446723361680840299e+02 4.289767070553559761e-05
7.455727863931965658e+02 4.304898621351279682e-05
7.464732366183091017e+02 4.343007322899474296e-05
7.473736868434216376e+02 4.387142524436758549e-05
7.482741370685342872e+02 4.400316408190019907e-05
7.491745872936468231e+02 4.370298129383982179e-05
7.500750375187593590e+02 4.321175412363236591e-05
7.509754877438718950e+02 4.279557907140437930e-05
7.518759379689844309e+02 4.259519900724358755e-05
7.527763881940969668e+02 4.261731935617726083e-05
7.536768384192096164e+02 4.274932487019380260e-05
7.545772886443221523e+02 4.277790783292213220e-05
7.554777388694346882e+02 4.256911226882483689e-05
7.563781890945472242e+02 4.216849176341807962e-05
7.572786393196597601e+02 4.170776648949887081e-05
7.581790895447722960e+02 4.133461756517636652e-05
7.590795397698849456e+02 4.120045105216048434e-05
7.599799899949974815e+02 4.142071985374651006e-05
7.608804402201100174e+02 4.198657986003247509e-05
7.617808904452225534e+02 4.272243056436947215e-05
7.626813406703350893e+02 4.335912967383538625e-05
7.635817908954477389e+02 4.374789048960072481e-05
7.644822411205602748e+02 4.392068536912848142e-05
7.653826913456728107e+02 4.385641803891376933e-05
7.662831415707853466e+02 4.359888219466458782e-05
7.671835917958978825e+02 4.346536686840049102e-05
7.680840420210104185e+02 4.365146421898047536e-05
7.689844922461230681e+02 4.394547347285702451e-05
7.698849424712356040e+02 4.412667766337854800e-05
7.707853926963481399e+02 4.422225335735413705e-05
7.716858429214606758e+02 4.430952486074777832e-05
7.725862931465732117e+02 4.439261722300805304e-05
7.734867433716858613e+02 4.444794153472481562e-05
7.743871935967983973e+02 4.442572953429547761e-05
7.752876438219109332e+02 4.423331681024254478e-05
7.761880940470234691e+02 4.385403393064376008e-05
7.770885442721360050e+02 4.343986070597965528e-05
7.779889944972485409e+02 4.319482105235039626e-05
7.788894447223611905e+02 4.322965882108081550e-05
7.797898949474737265e+02 4.345172625460980354e-05
7.806903451725862624e+02 4.378811385055526666e-05
7.815907953976987983e+02 4.427282661482610706e-05
7.824912456228113342e+02 4.481299318545758621e-05
7.833916958479238701e+02 4.521611034928763880e-05
7.842921460730365197e+02 4.531425570609679302e-05
7.851925962981490557e+02 4.504127204999149351e-05
7.860930465232615916e+02 4.450182009496857791e-05
7.869934967483741275e+02 4.393481412998536762e-05
7.878939469734866634e+02 4.356217535591053153e-05
7.887943971985993130e+02 4.349127342373063163e-05
7.896948474237118489e+02 4.371182712185095904e-05
7.905952976488243849e+02 4.399918393002042155e-05
7.914957478739369208e+02 4.404730206410125765e-05
7.923961980990494567e+02 4.389428594005868271e-05
7.932966483241619926e+02 4.375797231720742863e-05
7.941970985492746422e+02 4.369164614975646125e-05
7.950975487743871781e+02 4.382795753339720966e-05
7.959979989994997140e+02 4.440453280007466616e-05
7.968984492246122500e+02 4.537318601169946597e-05
7.977988994497247859e+02 4.635928970823357322e-05
7.986993496748374355e+02 4.697716941842027953e-05
7.995997998999499714e+02 4.707007880616058024e-05
8.005002501250625073e+02 4.667513354830084564e-05
8.014007003501750432e+02 4.590372792582082763e-05
8.023011505752875792e+02 4.497130398882587206e-05
8.032016008004001151e+02 4.411890270185270035e-05
8.041020510255127647e+02 4.350359630720971259e-05
8.050025012506253006e+02 4.329072650477124636e-05
8.059029514757378365e+02 4.359069349868922817e-05
8.068034017008503724e+02 4.431880878954835341e-05
8.077038519259629084e+02 4.526609252738355161e-05
8.086043021510754443e+02 4.621058683927255613e-05
8.095047523761880939e+02 4.696188272876445328e-05
8.104052026013006298e+02 4.745604055821652883e-05
8.113056528264131657e+02 4.780327873348090637e-05
8.122061030515257016e+02 4.821444156251559928e-05
8.131065532766382375e+02 4.875846530019886627e-05
8.140070035017508872e+02 4.917212210694018291e-05
8.149074537268634231e+02 4.917726764211617928e-05
8.158079039519759590e+02 4.880173235920552238e-05
8.167083541770884949e+02 4.825917028633891010e-05
8.176088044022010308e+02 4.778294029248627271e-05
8.185092546273135667e+02 4.741970998043312221e-05
8.194097048524262163e+02 4.701974063771685808e-05
8.203101550775387523e+02 4.651976532235756385e-05
8.212106053026512882e+02 4.612987349403206109e-05
8.221110555277638241e+02 4.611153683928823267e-05
8.230115057528763600e+02 4.648090851828626637e-05
8.239119559779890096e+02 4.703884572873816636e-05
8.248124062031015455e+02 4.751650610330289268e-05
8.257128564282140815e+02 4.771068936250378955e-05
8.266133066533266174e+02 4.767078988359663648e-05
8.275137568784391533e+02 4.754981932563681092e-05
8.284142071035516892e+02 4.742579258074025659e-05
8.293146573286643388e+02 4.736507032061232754e-05
8.302151075537768747e+02 4.735397597064390680e-05
8.311155577788894107e+02 4.729086350335902263e-05
8.320160080040019466e+02 4.710752556188723132e-05
8.329164582291144825e+02 4.679364833730381023e-05
8.338169084542270184e+02 4.641084143276868741e-05
8.347173586793396680e+02 4.602294166545067416e-05
8.356178089044522039e+02 4.549288782816819930e-05
8.365182591295647399e+02 4.473421138300067817e-05
8.374187093546772758e+02 4.400800079288953346e-05
8.383191595797898117e+02 4.353972686196646712e-05
8.392196098049024613e+02 4.327028286849008971e-05
8.401200600300149972e+02 4.316806823092378371e-05
8.410205102551275331e+02 4.336144921034408003e-05
8.419209604802400690e+02 4.390347798599682813e-05
8.428214107053526050e+02 4.460557722143770486e-05
8.437218609304651409e+02 4.519674231390390708e-05
8.446223111555777905e+02 4.562827424299251616e-05
8.455227613806903264e+02 4.603846426252982326e-05
8.464232116058028623e+02 4.641223576846173569e-05
8.473236618309153982e+02 4.661272329781173394e-05
8.482241120560279342e+02 4.667947346375700185e-05
8.491245622811405838e+02 4.675966281419993253e-05
8.500250125062531197e+02 4.697340115390113226e-05
8.509254627313656556e+02 4.749144840873126483e-05
8.518259129564781915e+02 4.834594118361831106e-05
8.527263631815907274e+02 4.932372296622089492e-05
8.536268134067032634e+02 5.019643565248129211e-05
8.545272636318159130e+02 5.078305717969336489e-05
8.554277138569284489e+02 5.097734229199380428e-05
8.563281640820409848e+02 5.092116370066388035e-05
8.572286143071535207e+02 5.105302985553329551e-05
8.581290645322660566e+02 5.158881726266405259e-05
8.590295147573785925e+02 5.231766550028435692e-05
8.599299649824912422e+02 5.299136448390854421e-05
8.608304152076037781e+02 5.346533745969115600e-05
8.617308654327163140e+02 5.360556904861064052e-05
8.626313156578288499e+02 5.335935191392539089e-05
8.635317658829413858e+02 5.272337279610203603e-05
8.644322161080540354e+02 5.175401698960180931e-05
8.653326663331665713e+02 5.074326851714028395e-05
8.662331165582791073e+02 5.005180571277782645e-05
8.671335667833916432e+02 4.973778988233362128e-05
8.680340170085041791e+02 4.961409188635182899e-05
8.689344672336167150e+02 4.946739973380298962e-05
8.698349174587293646e+02 4.915948367759986534e-05
8.707353676838419005e+02 4.865993716546287789e-05
8.716358179089544365e+02 4.814307255182871074e-05
8.725362681340669724e+02 4.788495723825485261e-05
8.734367183591795083e+02 4.794800078236616508e-05
8.743371685842921579e+02 4.818200965757183475e-05
8.752376188094046938e+02 4.844165332103020886e-05
8.761380690345172297e+02 4.863228858869995914e-05
8.770385192596297657e+02 4.868499344910747325e-05
8.779389694847423016e+02 4.861316703769890258e-05
8.788394197098548375e+02 4.852910558583762191e-05
8.797398699349674871e+02 4.852919755109290470e-05
8.806403201600800230e+02 4.872305278840161443e-05
8.815407703851925589e+02 4.913051703198931713e-05
8.824412206103050949e+02 4.964706682665848592e-05
8.833416708354176308e+02 5.029286959907738365e-05
8.842421210605301667e+02 5.114062029930737009e-05
8.851425712856428163e+02 5.221438322802938011e-05
8.860430215107553522e+02 5.354461215904030388e-05
8.869434717358678881e+02 5.494782756199996016e-05
8.878439219609804240e+02 5.610802748013682400e-05
8.887443721860929600e+02 5.713359435735143843e-05
8.896448224112056096e+02 5.820144173688898437e-05
8.905452726363181455e+02 5.897807497763662456e-05
8.914457228614306814e+02 5.908307351818685552e-05
8.923461730865432173e+02 5.850624722637351341e-05
8.932466233116557532e+02 5.762089166009755093e-05
8.941470735367682892e+02 5.691950498952013884e-05
8.950475237618809388e+02 5.659736659828344831e-05
8.959479739869934747e+02 5.655010220699824167e-05
8.968484242121060106e+02 5.659917791049269857e-05
8.977488744372185465e+02 5.676593212436683114e-05
8.986493246623310824e+02 5.724881493388739881e-05
8.995497748874437320e+02 5.803018098104962343e-05
9.004502251125562680e+02 5.887811585434838015e-05
9.013506753376688039e+02 5.972128195617653230e-05
9.022511255627813398e+02 6.070078408835407740e-05
9.031515757878938757e+02 6.190340292205453315e-05
9.040520260130064116e+02 6.335332441269638773e-05
9.049524762381190612e+02 6.499330804779403920e-05
9.058529264632315972e+02 6.649997507425032053e-05
9.067533766883441331e+02 6.741704967782447119e-05
9.076538269134566690e+02 6.748218446518408295e-05
9.085542771385692049e+02 6.676245499757316941e-05
9.094547273636817408e+02 6.553129232700340373e-05
9.103551775887943904e+02 6.405126512559368023e-05
9.112556278139069263e+02 6.249401733781263801e-05
9.121560780390194623e+02 6.107349912742900664e-05
9.130565282641319982e+02 5.997147479545908525e-05
9.139569784892445341e+02 5.927642783231863076e-05
9.148574287143571837e+02 5.906788069353428302e-05
9.157578789394697196e+02 5.928811922251947639e-05
9.166583291645822555e+02 5.977718482173448929e-05
9.175587793896947915e+02 6.041985035884566790e-05
9.184592296148073274e+02 6.123170889231694183e-05
9.193596798399198633e+02 6.232391400468687015e-05
9.202601300650325129e+02 6.372763466958904091e-05
9.211605802901450488e+02 6.537725512005688317e-05
9.220610305152575847e+02 6.720064470890469127e-05
9.229614807403701207e+02 6.923574480362034594e-05
9.238619309654826566e+02 7.151013690866745223e-05
9.247623811905953062e+02 7.380595441767891088e-05
9.256628314157078421e+02 7.595330055029940637e-05
9.265632816408203780e+02 7.793544354423434571e-05
9.274637318659329139e+02 7.961203222069512927e-05
9.283641820910454499e+02 8.089236628792915713e-05
9.292646323161579858e+02 8.180107095584880660e-05
9.301650825412706354e+02 8.251101456149027510e-05
9.310655327663831713e+02 8.312990255981418219e-05
9.319659829914957072e+02 8.366873844321830211e-05
9.328664332166082431e+02 8.420762185380904893e-05
9.337668834417207790e+02 8.488244706655642788e-05
9.346673336668334287e+02 8.569630589382299486e-05
9.355677838919459646e+02 8.641263007907394296e-05
9.364682341170585005e+02 8.689382536818189128e-05
9.373686843421710364e+02 8.723869649441508744e-05
9.382691345672835723e+02 8.754332496636639614e-05
9.391695847923961082e+02 8.781467526498440109e-05
9.400700350175087578e+02 8.803324757445755977e-05
9.409704852426212938e+02 8.830666668362547852e-05
9.418709354677338297e+02 8.882523451304681693e-05
9.427713856928463656e+02 8.956826016666690361e-05
9.436718359179589015e+02 9.036161512702243635e-05
9.445722861430714374e+02 9.116011745002428979e-05
9.454727363681840870e+02 9.210249907316845946e-05
9.463731865932966230e+02 9.321261463947987081e-05
9.472736368184091589e+02 9.430102979422975008e-05
9.481740870435216948e+02 9.519271429765947920e-05
9.490745372686342307e+02 9.592970625509823659e-05
9.499749874937468803e+02 9.683146187964972911e-05
9.508754377188594162e+02 9.819405289739394603e-05
9.517758879439719522e+02 9.993818922075813939e-05
9.526763381690844881e+02 1.018452855740589459e-04
9.535767883941970240e+02 1.039423816873630871e-04
9.544772386193095599e+02 1.061016343690327602e-04
9.553776888444222095e+02 1.079096726873122385e-04
9.562781390695347454e+02 1.091937964075005311e-04
9.571785892946472813e+02 1.103925355776671049e-04
9.580790395197598173e+02 1.118704787509747884e-04
9.589794897448723532e+02 1.135190211162231315e-04
9.598799399699850028e+02 1.150720786726858099e-04
9.607803901950975387e+02 1.163399698290901087e-04
9.616808404202100746e+02 1.174874855024951760e-04
9.625812906453226105e+02 1.189285143893476556e-04
9.634817408704351465e+02 1.207625998137461503e-04
9.643821910955476824e+02 1.224858840760951312e-04
9.652826413206603320e+02 1.236333819611154332e-04
9.661830915457728679e+02 1.243837602283739507e-04
9.670835417708854038e+02 1.251024201608473671e-04
9.679839919959979397e+02 1.260208849147177181e-04
9.688844422211104757e+02 1.272399598298099444e-04
9.697848924462230116e+02 1.283872493557502569e-04
9.706853426713356612e+02 1.288270175320667052e-04
9.715857928964481971e+02 1.286180545569264890e-04
9.724862431215607330e+02 1.283908443530592408e-04
9.733866933466732689e+02 1.286360949603431434e-04
9.742871435717858049e+02 1.293917537436852189e-04
9.751875937968984545e+02 1.303095150438216400e-04
9.760880440220109904e+02 1.311362885917026586e-04
9.769884942471235263e+02 1.323244481293765859e-04
9.778889444722360622e+02 1.345533572508496550e-04
9.787893946973485981e+02 1.376477960431738616e-04
9.796898449224611340e+02 1.405991749858213110e-04
9.805902951475737837e+02 1.425499307075974234e-04
9.814907453726863196e+02 1.436580449522144353e-04
9.823911955977988555e+02 1.447483669868904655e-04
9.832916458229113914e+02 1.461024240056661130e-04
9.841920960480239273e+02 1.472359763351204528e-04
9.850925462731365769e+02 1.476249061675465523e-04
9.859929964982491128e+02 1.472956465401315234e-04
9.868934467233616488e+02 1.469088182129368674e-04
9.877938969484741847e+02 1.469438514198870055e-04
9.886943471735867206e+02 1.472330449616287445e-04
9.895947973986992565e+02 1.475605383460707419e-04
9.904952476238119061e+02 1.479233177512865997e-04
9.913956978489244420e+02 1.481248023266226407e-04
9.922961480740369780e+02 1.480235878617897939e-04
9.931965982991495139e+02 1.478576858114439749e-04
9.940970485242620498e+02 1.481435438194109112e-04
9.949974987493745857e+02 1.494045322322333643e-04
9.958979489744872353e+02 1.515811087012081614e-04
9.967983991995997712e+02 1.539630114645817690e-04
9.976988494247123072e+02 1.562213523581439177e-04
9.985992996498248431e+02 1.588986023758906594e-04
9.994997498749373790e+02 1.621809579128474278e-04
1.000400200100050029e+03 1.654049387796137154e-04
1.001300650325162565e+03 1.677614752318519671e-04
1.002201100550275100e+03 1.689784479979998023e-04
1.003101550775387636e+03 1.694632520479818106e-04
1.004002001000500172e+03 1.694169721975806377e-04
1.004902451225612708e+03 1.685971141126419825e-04
1.005802901450725358e+03 1.670243462978931851e-04
1.006703351675837894e+03 1.650962790951797127e-04
1.007603801900950430e+03 1.631009672756727059e-04
1.008504252126062966e+03 1.613134777325818793e-04
1.009404702351175501e+03 1.596739083050637996e-04
1.010305152576288151e+03 1.576653756587529677e-04
1.011205602801400687e+03 1.553928035040653857e-04
1.012106053026513223e+03 1.536616543326778351e-04
1.013006503251625759e+03 1.531272922970152318e-04
1.013906953476738295e+03 1.540563681644684113e-04
1.014807403701850831e+03 1.563784517625472516e-04
1.015707853926963480e+03 1.595951156675892279e-04
1.016608304152076016e+03 1.628726947015211304e-04
1.017508754377188552e+03 1.655697367264750324e-04
1.018409204602301088e+03 1.677777352807216743e-04
1.019309654827413624e+03 1.698105850919008207e-04
1.020210105052526160e+03 1.717556682716787149e-04
1.021110555277638809e+03 1.738774708676584652e-04
1.022011005502751345e+03 1.769245149729986404e-04
1.022911455727863881e+03 1.812003177845915964e-04
1.023811905952976417e+03 1.861480118828707391e-04
1.024712356178089067e+03 1.909899141159747795e-04
1.025612806403201603e+03 1.946592323104979539e-04
1.026513256628314139e+03 1.962668855810493639e-04
1.027413706853426675e+03 1.959782193872079443e-04
1.028314157078539210e+03 1.945786672560079536e-04
1.029214607303651746e+03 1.926884190752151723e-04
1.030115057528764282e+03 1.909972858717363996e-04
1.031015507753876818e+03 1.903565817389807227e-04
1.031915957978989354e+03 1.912495838808587535e-04
1.032816408204101890e+03 1.934314188285732349e-04
1.033716858429214653e+03 1.959727776074854421e-04
1.034617308654327189e+03 1.977107787006940982e-04
1.035517758879439725e+03 1.983849435003818705e-04
1.036418209104552261e+03 1.988987035272823077e-04
1.037318659329664797e+03 1.998763443463874318e-04
1.038219109554777333e+03 2.013650606005228712e-04
1.039119559779889869e+03 2.038817630379386283e-04
1.040020010005002405e+03 2.078541526054117794e-04
1.040920460230114941e+03 2.124494203599637684e-04
1.041820910455227477e+03 2.165325520811503741e-04
1.042721360680340013e+03 2.197135542965199945e-04
1.043621810905452776e+03 2.217953939610809073e-04
1.044522261130565312e+03 2.224697660458415749e-04
1.045422711355677848e+03 2.220578650977913409e-04
1.046323161580790384e+03 2.214178278904913076e-04
1.047223611805902920e+03 2.208278926596660119e-04
1.048124062031015455e+03 2.200689515825542304e-04
1.049024512256127991e+03 2.189940929933399140e-04
1.049924962481240527e+03 2.171711684625701180e-04
1.050825412706353063e+03 2.142844529123895554e-04
1.051725862931465599e+03 2.109691665545657450e-04
1.052626313156578135e+03 2.083567299076276205e-04
1.053526763381690898e+03 2.068396364818456926e-04
1.054427213606803434e+03 2.059042016860770723e-04
1.055327663831915970e+03 2.049239484199656398e-04
1.056228114057028506e+03 2.039233903771779633e-04
1.057128564282141042e+03 2.036195310935809682e-04
1.058029014507253578e+03 2.047788191904384620e-04
1.058929464732366114e+03 2.072656463205153248e-04
1.059829914957478650e+03 2.097127640599637092e-04
1.060730365182591186e+03 2.106959474798146049e-04
1.061630815407703722e+03 2.097080899369698913e-04
1.062531265632816257e+03 2.071224062209811557e-04
1.063431715857929021e+03 2.040308845992570548e-04
1.064332166083041557e+03 2.016526467434729309e-04
1.065232616308154093e+03 2.005138351824554575e-04
1.066133066533266629e+03 2.002991022138071080e-04
1.067033516758379164e+03 2.004599809670361439e-04
1.067933966983491700e+03 2.008245892455239295e-04
1.068834417208604236e+03 2.015899234041980870e-04
1.069734867433716772e+03 2.029902984009192691e-04
1.070635317658829308e+03 2.047344142954030599e-04
1.071535767883941844e+03 2.066005013257359230e-04
1.072436218109054380e+03 2.093286988025769464e-04
1.073336668334167143e+03 2.133127163843880156e-04
1.074237118559279679e+03 2.174172984060215137e-04
1.075137568784392215e+03 2.202540627810155706e-04
1.076038019009504751e+03 2.217817389609629734e-04
1.076938469234617287e+03 2.229799851740402953e-04
1.077838919459729823e+03 2.244832847308147301e-04
1.078739369684842359e+03 2.263659519206431055e-04
1.079639819909954895e+03 2.281519418005040168e-04
1.080540270135067431e+03 2.290408146739083195e-04
1.081440720360179967e+03 2.290881748872702873e-04
1.082341170585292502e+03 2.289550942631270679e-04
1.083241620810405038e+03 2.285305031528259449e-04
1.084142071035517802e+03 2.271361153051007151e-04
1.085042521260630338e+03 2.247709269179359924e-04
1.085942971485742873e+03 2.227630942401410627e-04
1.086843421710855409e+03 2.221041501637080332e-04
1.087743871935967945e+03 2.219214517991164616e-04
1.088644322161080481e+03 2.212391896052439951e-04
1.089544772386193017e+03 2.201918959598959892e-04
1.090445222611305553e+03 2.191330819855946547e-04
1.091345672836418089e+03 2.186036274691314433e-04
1.092246123061530625e+03 2.191416312899001372e-04
1.093146573286643161e+03 2.206953977288675546e-04
1.094047023511755924e+03 2.227690266276587583e-04
1.094947473736868460e+03 2.250399832531147903e-04
1.095847923961980996e+03 2.276511638549228139e-04
1.096748374187093532e+03 2.305452117053467711e-04
1.097648824412206068e+03 2.329136451116473538e-04
1.098549274637318604e+03 2.340666524820722019e-04
1.099449724862431140e+03 2.345614292189381349e-04
1.100350175087543676e+03 2.357000757112126727e-04
1.101250625312656211e+03 2.382343912631049870e-04
1.102151075537768747e+03 2.420082292063431865e-04
1.103051525762881283e+03 2.463828219645953057e-04
1.103951975987994047e+03 2.505305454125780588e-04
1.104852426213106583e+03 2.541749011589692470e-04
1.105752876438219118e+03 2.575079452220966378e-04
1.106653326663331654e+03 2.607809503028059089e-04
1.107553776888444190e+03 2.642800059007286741e-04
1.108454227113556726e+03 2.680626774933070702e-04
1.109354677338669262e+03 2.715894375732744127e-04
1.110255127563781798e+03 2.737061291071460063e-04
1.111155577788894334e+03 2.740882580246699037e-04
1.112056028014006870e+03 2.734712701467633691e-04
1.112956478239119406e+03 2.725057648600227910e-04
1.113856928464232169e+03 2.715616873139815239e-04
1.114757378689344705e+03 2.707925997892346687e-04
1.115657828914457241e+03 2.697682239759035617e-04
1.116558279139569777e+03 2.680897149083964260e-04
1.117458729364682313e+03 2.663659235979329580e-04
1.118359179589794849e+03 2.657360288355977871e-04
1.119259629814907385e+03 2.668462197660854290e-04
1.120160080040019920e+03 2.700182576354876124e-04
1.121060530265132456e+03 2.757237623397682598e-04
1.121960980490244992e+03 2.843454500434643302e-04
1.122861430715357528e+03 2.951957532716476353e-04
1.123761880940470292e+03 3.060945965561895116e-04
1.124662331165582827e+03 3.146966389367755008e-04
1.125562781390695363e+03 3.200389092595181295e-04
1.126463231615807899e+03 3.229599094763164644e-04
1.127363681840920435e+03 3.253603584012736269e-04
1.128264132066032971e+03 3.289811569567656184e-04
1.129164582291145507e+03 3.341272026510564526e-04
1.130065032516258043e+03 3.400676713526673556e-04
1.130965482741370579e+03 3.459221702987192175e-04
1.131865932966483115e+03 3.509464627773776547e-04
1.132766383191595651e+03 3.549377965008796224e-04
1.133666833416708187e+03 3.582298142297900929e-04
1.134567283641820950e+03 3.607197369018825726e-04
1.135467733866933486e+03 3.620753519221536960e-04
1.136368184092046022e+03 3.644555825606308314e-04
1.137268634317158558e+03 3.720237940668759185e-04
1.138169084542271094e+03 3.867837272085262253e-04
1.139069534767383630e+03 4.085943781160308614e-04
1.139969984992496165e+03 4.369312456616284584e-04
1.140870435217608701e+03 4.692880191338470643e-04
1.141770885442721237e+03 5.021182942132170141e-04
1.142671335667833773e+03 5.338533420361277594e-04
1.143571785892946309e+03 5.632394635924674667e-04
1.144472236118059072e+03 5.884984740064918424e-04
1.145372686343171608e+03 6.106257878390008000e-04
1.146273136568284144e+03 6.323644460320566180e-04
1.147173586793396680e+03 6.528696618975143775e-04
1.148074037018509216e+03 6.700380385315947689e-04
1.148974487243621752e+03 6.863890681822713835e-04
1.149874937468734288e+03 7.074599854690865599e-04
1.150775387693846824e+03 7.382515685681360299e-04
1.151675837918959360e+03 7.799468319374832075e-04
1.152576288144071896e+03 8.292362337643862259e-04
1.153476738369184432e+03 8.845716717426199823e-04
1.154377188594297195e+03 9.514357908964740044e-04
1.155277638819409731e+03 1.034840952699281639e-03
1.156178089044522267e+03 1.132967509892486872e-03
1.157078539269634803e+03 1.249255824373870713e-03
1.157978989494747339e+03 1.391667775415920353e-03
1.158879439719859874e+03 1.557598212875818200e-03
1.159779889944972410e+03 1.733225109263373869e-03
1.160680340170084946e+03 1.898511082737397958e-03
1.161580790395197482e+03 2.039889927838739892e-03
1.162481240620310018e+03 2.160786276583294505e-03
1.163381690845422554e+03 2.267640493408453872e-03
1.164282141070535317e+03 2.359946570835421819e-03
1.165182591295647853e+03 2.426353151723823626e-03
1.166083041520760389e+03 2.449635780591259519e-03
1.166983491745872925e+03 2.424720295679164313e-03
1.167883941970985461e+03 2.359903989152303903e-03
1.168784392196097997e+03 2.264326873853723422e-03
1.169684842421210533e+03 2.144120269369967531e-03
1.170585292646323069e+03 2.010221247128381530e-03
1.171485742871435605e+03 1.874058422799177457e-03
1.172386193096548141e+03 1.738651982687919881e-03
1.173286643321660677e+03 1.607492510322050972e-03
1.174187093546773440e+03 1.490486956024761160e-03
1.175087543771885976e+03 1.396375844807246991e-03
1.175987993996998512e+03 1.323732925314067329e-03
1.176888444222111048e+03 1.265430643912912254e-03
1.177788894447223583e+03 1.217717810707883309e-03
1.178689344672336119e+03 1.179005406321275784e-03
1.179589794897448655e+03 1.145712580492933572e-03
1.180490245122561191e+03 1.113790547352465354e-03
1.181390695347673727e+03 1.082256318771331136e-03
1.182291145572786263e+03 1.053272562340660428e-03
1.183191595797898799e+03 1.028118977637047663e-03
1.184092046023011562e+03 1.009423012876470467e-03
1.184992496248124098e+03 1.001062993706456142e-03
1.185892946473236634e+03 1.001645995882429049e-03
1.186793396698349170e+03 1.004084033851464089e-03
1.187693846923461706e+03 1.001705931140282804e-03
1.188594297148574242e+03 9.926794024489623940e-04
1.189494747373686778e+03 9.792235530396036815e-04
1.190395197598799314e+03 9.648398033828183831e-04
1.191295647823911850e+03 9.540364121670816180e-04
1.192196098049024386e+03 9.498096858261972919e-04
1.193096548274136921e+03 9.477278698377611605e-04
1.193996998499249457e+03 9.401755593048748919e-04
1.194897448724362221e+03 9.241216928694972067e-04
1.195797898949474757e+03 9.025764984159703741e-04
1.196698349174587293e+03 8.803713693202528919e-04
1.197598799399699828e+03 8.606732231928882751e-04
1.198499249624812364e+03 8.450260262935975313e-04
1.199399699849924900e+03 8.326658709501455653e-04
1.200300150075037436e+03 8.204341674151378362e-04
1.201200600300149972e+03 8.063890282240061607e-04
1.202101050525262508e+03 7.925818321845896778e-04
1.203001500750375044e+03 7.817011072136901715e-04
1.203901950975487580e+03 7.730951668869976128e-04
1.204802401200600343e+03 7.644566530863936135e-04
1.205702851425712879e+03 7.555253565289125678e-04
1.206603301650825415e+03 7.474195226130667894e-04
1.207503751875937951e+03 7.404058373440830379e-04
1.208404202101050487e+03 7.324883963949361870e-04
1.209304652326163023e+03 7.209881130824322961e-04
1.210205102551275559e+03 7.074941806130545952e-04
1.211105552776388095e+03 6.970758451811821105e-04
1.212006003001500630e+03 6.932169131010448328e-04
1.212906453226613166e+03 6.966815019085368602e-04
1.213806903451725702e+03 7.040646172831778200e-04
1.214707353676838466e+03 7.079260259817084277e-04
1.215607803901951002e+03 7.050402206913646908e-04
1.216508254127063537e+03 6.989630804092840854e-04
1.217408704352176073e+03 6.906994910162408182e-04
1.218309154577288609e+03 6.774950514439756705e-04
1.219209604802401145e+03 6.627189033524841450e-04
1.220110055027513681e+03 6.552862235156780126e-04
1.221010505252626217e+03 6.588204405656991136e-04
1.221910955477738753e+03 6.683598503889562900e-04
1.222811405702851289e+03 6.763059693309392837e-04
1.223711855927963825e+03 6.785068003197577838e-04
1.224612306153076588e+03 6.746588504351656119e-04
1.225512756378189124e+03 6.657531114281210098e-04
1.226413206603301660e+03 6.546455585116033168e-04
1.227313656828414196e+03 6.445446081240399899e-04
1.228214107053526732e+03 6.362311610208304727e-04
1.229114557278639268e+03 6.304088707393788737e-04
1.230015007503751804e+03 6.278781309697345232e-04
1.230915457728864340e+03 6.270302409606131082e-04
1.231815907953976875e+03 6.237098499908238884e-04
1.232716358179089411e+03 6.158268902366300550e-04
1.233616808404201947e+03 6.053504477677689854e-04
1.234517258629314711e+03 5.966449829041597713e-04
1.235417708854427246e+03 5.931070764453935792e-04
1.236318159079539782e+03 5.935148847312924150e-04
1.237218609304652318e+03 5.932430511428056193e-04
1.238119059529764854e+03 5.889817586607186970e-04
1.239019509754877390e+03 5.817967984197607370e-04
1.239919959979989926e+03 5.767260670337736672e-04
1.240820410205102462e+03 5.788586831120157584e-04
1.241720860430214998e+03 5.897704129941610997e-04
1.242621310655327534e+03 6.073749610146065864e-04
1.243521760880440070e+03 6.271889582886994640e-04
1.244422211105552606e+03 6.436501846828707272e-04
1.245322661330665369e+03 6.537071322428790899e-04
1.246223111555777905e+03 6.603059941347499181e-04
1.247123561780890441e+03 6.692383671487849581e-04
1.248024012006002977e+03 6.835779200553982870e-04
1.248924462231115513e+03 7.017621999527917176e-04
1.249824912456228049e+03 7.190767458488364931e-04
1.250725362681340584e+03 7.322323403915046748e-04
1.251625812906453120e+03 7.420923689111446567e-04
1.252526263131565656e+03 7.492313634937793976e-04
1.253426713356678192e+03 7.525184719723421569e-04
1.254327163581790728e+03 7.538275093696550615e-04
1.255227613806903491e+03 7.574575845052640768e-04
1.256128064032016027e+03 7.647994197479575634e-04
1.257028514257128563e+03 7.739528102015111929e-04
1.257928964482241099e+03 7.812467641702277275e-04
1.258829414707353635e+03 7.851018316237532227e-04
1.259729864932466171e+03 7.880268246411518528e-04
1.260630315157578707e+03 7.930596936627492405e-04
1.261530765382691243e+03 8.010086812372406353e-04
1.262431215607803779e+03 8.091451601444085229e-04
1.263331665832916315e+03 8.144333670925527936e-04
1.264232116058028851e+03 8.181743217039585741e-04
1.265132566283141614e+03 8.251575880150158844e-04
1.266033016508254150e+03 8.396952191373716632e-04
1.266933466733366686e+03 8.627909331381183140e-04
1.267833916958479222e+03 8.925351175296099239e-04
1.268734367183591758e+03 9.254287089570929596e-04
1.269634817408704293e+03 9.566419125776502112e-04
1.270535267633816829e+03 9.819912216041811696e-04
1.271435717858929365e+03 1.001189811243381267e-03
1.272336168084041901e+03 1.017976079402919867e-03
1.273236618309154437e+03 1.035651145367697543e-03
1.274137068534266973e+03 1.055054992487318389e-03
1.275037518759379736e+03 1.075860676886202568e-03
1.275937968984492272e+03 1.099207910404021750e-03
1.276838419209604808e+03 1.126641209648856709e-03
1.277738869434717344e+03 1.157176899005834614e-03
1.278639319659829880e+03 1.188022957721040010e-03
1.279539769884942416e+03 1.216356185026720325e-03
1.280440220110054952e+03 1.242929486769213518e-03
1.281340670335167488e+03 1.272753531682927017e-03
1.282241120560280024e+03 1.308379060216205859e-03
1.283141570785392560e+03 1.344547774409227256e-03
1.284042021010505096e+03 1.372736895277460291e-03
1.284942471235617859e+03 1.390737191394805566e-03
1.285842921460730395e+03 1.403725573649705627e-03
1.286743371685842931e+03 1.417442331482962484e-03
1.287643821910955467e+03 1.434173838578552259e-03
1.288544272136068003e+03 1.454046308312339705e-03
1.289444722361180538e+03 1.476415442794393835e-03
1.290345172586293074e+03 1.499285211641554700e-03
1.291245622811405610e+03 1.520208125472712838e-03
1.292146073036518146e+03 1.539440800176504693e-03
1.293046523261630682e+03 1.558528463629551847e-03
1.293946973486743218e+03 1.576773209770936362e-03
1.294847423711855754e+03 1.591524947453581930e-03
1.295747873936968517e+03 1.601261161751655346e-03
1.296648324162081053e+03 1.605495774009038689e-03
1.297548774387193589e+03 1.604916898731589651e-03
1.298449224612306125e+03 1.604489162904342101e-03
1.299349674837418661e+03 1.611690538123508468e-03
1.300250125062531197e+03 1.630583583592696640e-03
1.301150575287643733e+03 1.660830350112197555e-03
1.302051025512756269e+03 1.698978936149025997e-03
1.302951475737868805e+03 1.738533217229249134e-03
1.303851925962981340e+03 1.771639617847002926e-03
1.304752376188093876e+03 1.792710788052815371e-03
1.305652826413206640e+03 1.800603093046545524e-03
1.306553276638319176e+03 1.797181948901746583e-03
1.307453726863431712e+03 1.787633656171608862e-03
1.308354177088544247e+03 1.780164421453581114e-03
1.309254627313656783e+03 1.782254103327340650e-03
1.310155077538769319e+03 1.796497817653199686e-03
1.311055527763881855e+03 1.818900012569323651e-03
1.311955977988994391e+03 1.841078343039053008e-03
1.312856428214106927e+03 1.857832383532605431e-03
1.313756878439219463e+03 1.872650119062298224e-03
1.314657328664331999e+03 1.890960145227054681e-03
1.315557778889444762e+03 1.913675009158159789e-03
1.316458229114557298e+03 1.939473582949913970e-03
1.317358679339669834e+03 1.969600606529396756e-03
1.318259129564782370e+03 2.007539481984277167e-03
1.319159579789894906e+03 2.055075913496561772e-03
1.320060030015007442e+03 2.110732337307772571e-03
1.320960480240119978e+03 2.171142103106574531e-03
1.321860930465232514e+03 2.232520907734396320e-03
1.322761380690345050e+03 2.291317405694128211e-03
1.323661830915457585e+03 2.347259417175976033e-03
1.324562281140570121e+03 2.402580620380456722e-03
1.325462731365682885e+03 2.455260044908187320e-03
1.326363181590795421e+03 2.502444744746739908e-03
1.327263631815907956e+03 2.547299304678457207e-03
1.328164082041020492e+03 2.597054879662747708e-03
1.329064532266133028e+03 2.655994131049386250e-03
1.329964982491245564e+03 2.720213376624475935e-03
1.330865432716358100e+03 2.779646436614370726e-03
1.331765882941470636e+03 2.826470966816524606e-03
1.332666333166583172e+03 2.861775551890000276e-03
1.333566783391695708e+03 2.895292530500122394e-03
1.334467233616808244e+03 2.937616117885936354e-03
1.335367683841921007e+03 2.995570486398107905e-03
1.336268134067033543e+03 3.069942278461179879e-03
1.337168584292146079e+03 3.157179159432373528e-03
1.338069034517258615e+03 3.254335566124474249e-03
1.338969484742371151e+03 3.360458180476786922e-03
1.339869934967483687e+03 3.477558597918834621e-03
1.340770385192596223e+03 3.608137922979606782e-03
1.341670835417708759e+03 3.749683088010548684e-03
1.342571285642821294e+03 3.893230484607904281e-03
1.343471735867933830e+03 4.029116292259047813e-03
1.344372186093046366e+03 4.158337824318662605e-03
1.345272636318158902e+03 4.288879872296994834e-03
1.346173086543271666e+03 4.423022165273817613e-03
1.347073536768384201e+03 4.558930607229985145e-03
1.347973986993496737e+03 4.689717185181875407e-03
1.348874437218609273e+03 4.806255262457892821e-03
1.349774887443721809e+03 4.908646478500203018e-03
1.350675337668834345e+03 5.013044600188803525e-03
1.351575787893946881e+03 5.138072098360986495e-03
1.352476238119059417e+03 5.286060944788894232e-03
1.353376688344171953e+03 5.447065939257409763e-03
1.354277138569284489e+03 5.609554138817689217e-03
1.355177588794397025e+03 5.767995432283313031e-03
1.356078039019509788e+03 5.926086213443017281e-03
1.356978489244622324e+03 6.090874586698821931e-03
1.357878939469734860e+03 6.268610605041571512e-03
1.358779389694847396e+03 6.457664619963964826e-03
1.359679839919959932e+03 6.653946781003176186e-03
1.360580290145072468e+03 6.861794525189231567e-03
1.361480740370185003e+03 7.080840130227679906e-03
1.362381190595297539e+03 7.294554509711716379e-03
1.363281640820410075e+03 7.499353359725662721e-03
1.364182091045522611e+03 7.722022099568694696e-03
1.365082541270635147e+03 7.993883739554650397e-03
1.365982991495747910e+03 8.327615756151403661e-03
1.366883441720860446e+03 8.704460603747942934e-03
1.367783891945972982e+03 9.082626981416860867e-03
1.368684342171085518e+03 9.441775704820508722e-03
1.369584792396198054e+03 9.796103567597686315e-03
1.370485242621310590e+03 1.016880827038209832e-02
1.371385692846423126e+03 1.056541409175146100e-02
1.372286143071535662e+03 1.097243643312035069e-02
1.373186593296648198e+03 1.137939845895186500e-02
1.374087043521760734e+03 1.179892958952697725e-02
1.374987493746873270e+03 1.224743099341825403e-02
1.375887943971986033e+03 1.271036811556294603e-02
1.376788394197098569e+03 1.316435101754286421e-02
1.377688844422211105e+03 1.360702868018618186e-02
1.378589294647323641e+03 1.406044511433813225e-02
1.379489744872436177e+03 1.452463196023715680e-02
1.380390195097548713e+03 1.494492302982238820e-02
1.381290645322661248e+03 1.526752880207309614e-02
1.382191095547773784e+03 1.550498805839038881e-02
1.383091545772886320e+03 1.572219769171536580e-02
1.383991995997998856e+03 1.594310219134177295e-02
1.384892446223111392e+03 1.613558147444904903e-02
1.385792896448224155e+03 1.632200090853090299e-02
1.386693346673336691e+03 1.660425060477729170e-02
1.387593796898449227e+03 1.703477438736007016e-02
1.388494247123561763e+03 1.757256453222870440e-02
1.389394697348674299e+03 1.816245243154877842e-02
1.390295147573786835e+03 1.878569992102399264e-02
1.391195597798899371e+03 1.943285966393848083e-02
1.392096048024011907e+03 2.006778355436770675e-02
1.392996498249124443e+03 2.064952427324551198e-02
1.393896948474236979e+03 2.119897826687163617e-02
1.394797398699349515e+03 2.175536995227805512e-02
1.395697848924462278e+03 2.230376560375923328e-02
1.396598299149574814e+03 2.282097436701829157e-02
1.397498749374687350e+03 2.329766740234528663e-02
1.398399199599799886e+03 2.368080754938597238e-02
1.399299649824912422e+03 2.385439167410121145e-02
1.400200100050024957e+03 2.370358749456005776e-02
1.401100550275137493e+03 2.328158841211771732e-02
1.402001000500250029e+03 2.274101764827902300e-02
1.402901450725362565e+03 2.215834408843806586e-02
1.403801900950475101e+03 2.156458120805313655e-02
1.404702351175587637e+03 2.102495056162545506e-02
1.405602801400700173e+03 2.063231237606811749e-02
1.406503251625812936e+03 2.039679645237863978e-02
1.407403701850925472e+03 2.023306799685084881e-02
1.408304152076038008e+03 2.008309457864440595e-02
1.409204602301150544e+03 1.992496891194761588e-02
1.410105052526263080e+03 1.973949510337616453e-02
1.411005502751375616e+03 1.952969800292270533e-02
1.411905952976488152e+03 1.925401074583739380e-02
1.412806403201600688e+03 1.885367479398507989e-02
1.413706853426713224e+03 1.837929269156992479e-02
1.414607303651825760e+03 1.796515388259202831e-02
1.415507753876938295e+03 1.769876683144200671e-02
1.416408204102051059e+03 1.753551774474974151e-02
1.417308654327163595e+03 1.737658845569601748e-02
1.418209104552276131e+03 1.717464744578151709e-02
1.419109554777388666e+03 1.692146196012022513e-02
1.420010005002501202e+03 1.658892356497558215e-02
1.420910455227613738e+03 1.613069062054781413e-02
1.421810905452726274e+03 1.556942572094762237e-02
1.422711355677838810e+03 1.497872636847792996e-02
1.423611805902951346e+03 1.441595334892220755e-02
1.424512256128063882e+03 1.391110089578965689e-02
1.425412706353176418e+03 1.344423353510955550e-02
1.426313156578289181e+03 1.299042551070527136e-02
1.427213606803401717e+03 1.256252513440336664e-02
1.428114057028514253e+03 1.218255421296267176e-02
1.429014507253626789e+03 1.184329993286587814e-02
1.429914957478739325e+03 1.150686951548119015e-02
1.430815407703851861e+03 1.111926294921611498e-02
1.431715857928964397e+03 1.065913735472763177e-02
1.432616308154076933e+03 1.016299137546384894e-02
1.433516758379189469e+03 9.677195398214240643e-03
1.434417208604302004e+03 9.243000852443736606e-03
1.435317658829414540e+03 8.893407519512855353e-03
1.436218109054527304e+03 8.635014473302919311e-03
1.437118559279639840e+03 8.460227883380782438e-03
1.438019009504752376e+03 8.363916492101781952e-03
1.438919459729864911e+03 8.331338348748594871e-03
1.439819909954977447e+03 8.320537670658736257e-03
1.440720360180089983e+03 8.285221632021968347e-03
1.441620810405202519e+03 8.211020905519483479e-03
1.442521260630315055e+03 8.117387434081793293e-03
1.443421710855427591e+03 8.031576871679872720e-03
1.444322161080540127e+03 7.955165538471614672e-03
1.445222611305652663e+03 7.861768724387251453e-03
1.446123061530765426e+03 7.724024306662020771e-03
1.447023511755877962e+03 7.525499283276841818e-03
1.447923961980990498e+03 7.275637642835250905e-03
1.448824412206103034e+03 7.009341740975214875e-03
1.449724862431215570e+03 6.749614023216015182e-03
1.450625312656328106e+03 6.495695422634868189e-03
1.451525762881440642e+03 6.244418219436539096e-03
1.452426213106553178e+03 6.000975418731929745e-03
1.453326663331665713e+03 5.777389391547946805e-03
1.454227113556778249e+03 5.588623926479441804e-03
1.455127563781890785e+03 5.432982224012147636e-03
1.456028014007003321e+03 5.286532523346703684e-03
1.456928464232116085e+03 5.127776424752331086e-03
1.457828914457228620e+03 4.964687887982395693e-03
1.458729364682341156e+03 4.817779465071949166e-03
1.459629814907453692e+03 4.689452719445822565e-03
1.460530265132566228e+03 4.571691793285532004e-03
1.461430715357678764e+03 4.455602168026885287e-03
1.462331165582791300e+03 4.334504398884306969e-03
1.463231615807903836e+03 4.211367456270149849e-03
1.464132066033016372e+03 4.089241135502573107e-03
1.465032516258128908e+03 3.965237362893989093e-03
1.465932966483241444e+03 3.839626550321065257e-03
1.466833416708354207e+03 3.715483330693494183e-03
1.467733866933466743e+03 3.594782612551636943e-03
1.468634317158579279e+03 3.484126037433619288e-03
1.469534767383691815e+03 3.386356233102925072e-03
1.470435217608804351e+03 3.296202475820060249e-03
1.471335667833916887e+03 3.211556875456530579e-03
1.472236118059029423e+03 3.132339794543941968e-03
1.473136568284141958e+03 3.055585375128201490e-03
1.474037018509254494e+03 2.980135160482190546e-03
1.474937468734367030e+03 2.907550667995860514e-03
1.475837918959479566e+03 2.836027778763732399e-03
1.476738369184592329e+03 2.759554441583988993e-03
1.477638819409704865e+03 2.676336216603337776e-03
1.478539269634817401e+03 2.595663027260455835e-03
1.479439719859929937e+03 2.523802726210990117e-03
1.480340170085042473e+03 2.454209121411639154e-03
1.481240620310155009e+03 2.379254627833016396e-03
1.482141070535267545e+03 2.300474899826416772e-03
1.483041520760380081e+03 2.225490541058272511e-03
1.483941970985492617e+03 2.159782720699167727e-03
1.484842421210605153e+03 2.103920834959452715e-03
1.485742871435717689e+03 2.057398665291085456e-03
1.486643321660830452e+03 2.020332458006368192e-03
1.487543771885942988e+03 1.989209220410575671e-03
1.488444222111055524e+03 1.957441213504232825e-03
1.489344672336168060e+03 1.920161035887145776e-03
1.490245122561280596e+03 1.877077326877379330e-03
1.491145572786393132e+03 1.831912593707968199e-03
1.492046023011505667e+03 1.793083212240208701e-03
1.492946473236618203e+03 1.766079002524014027e-03
1.493846923461730739e+03 1.746524461250259291e-03
1.494747373686843275e+03 1.728687522037744432e-03
1.495647823911955811e+03 1.712195539352562301e-03
1.496548274137068574e+03 1.695826146257130426e-03
1.497448724362181110e+03 1.673486821454078875e-03
1.498349174587293646e+03 1.641705594592824877e-03
1.499249624812406182e+03 1.603551565549214599e-03
1.500150075037518718e+03 1.562250079358769392e-03
1.501050525262631254e+03 1.520299632388096445e-03
1.501950975487743790e+03 1.480838814086028569e-03
1.502851425712856326e+03 1.443581962568070377e-03
1.503751875937968862e+03 1.407625089279182160e-03
1.504652326163081398e+03 1.376163381177586149e-03
1.505552776388193934e+03 1.351243329428227120e-03
1.506453226613306470e+03 1.331630873111746844e-03
1.507353676838419233e+03 1.315787811406096512e-03
1.508254127063531769e+03 1.301187954875798747e-03
1.509154577288644305e+03 1.285780816381438835e-03
1.510055027513756841e+03 1.271155412971508277e-03
1.510955477738869376e+03 1.258161903663637888e-03
1.511855927963981912e+03 1.244390630530245586e-03
1.512756378189094448e+03 1.232386998896464053e-03
1.513656828414206984e+03 1.227124820580585045e-03
1.514557278639319520e+03 1.225312264207272916e-03
1.515457728864432056e+03 1.219850126750931553e-03
1.516358179089544592e+03 1.208483336833621104e-03
1.517258629314657355e+03 1.194330725376878963e-03
1.518159079539769891e+03 1.182735555862537286e-03
1.519059529764882427e+03 1.175771657512441346e-03
1.519959979989994963e+03 1.170301820736607259e-03
1.520860430215107499e+03 1.161061094411678686e-03
1.521760880440220035e+03 1.146069864578435314e-03
1.522661330665332571e+03 1.128467755629034572e-03
1.523561780890445107e+03 1.113438307544560362e-03
1.524462231115557643e+03 1.104684415711310519e-03
1.525362681340670179e+03 1.102185304255015380e-03
1.526263131565782714e+03 1.102703579704160776e-03
1.527163581790895478e+03 1.101951787329956975e-03
1.528064032016008014e+03 1.096492569321670229e-03
1.528964482241120550e+03 1.087923149858934912e-03
1.529864932466233086e+03 1.082318509379663748e-03
1.530765382691345621e+03 1.082592367555255605e-03
1.531665832916458157e+03 1.085029039026270221e-03
1.532566283141570693e+03 1.084837217193871349e-03
1.533466733366683229e+03 1.080885572298975316e-03
1.534367183591795765e+03 1.074125145501368108e-03
1.535267633816908301e+03 1.066555721100158598e-03
1.536168084042020837e+03 1.059122616823754198e-03
1.537068534267133600e+03 1.051911508093033784e-03
1.537968984492246136e+03 1.047443774889793072e-03
1.538869434717358672e+03 1.048437901069937351e-03
1.539769884942471208e+03 1.051512215459411270e-03
1.540670335167583744e+03 1.051378934790760588e-03
1.541570785392696280e+03 1.045834922270854565e-03
1.542471235617808816e+03 1.034335504657007965e-03
1.543371685842921352e+03 1.019054165744687646e-03
1.544272136068033888e+03 1.004651100622778190e-03
1.545172586293146423e+03 9.974614521489884398e-04
1.546073036518258959e+03 1.001949294258367481e-03
1.546973486743371723e+03 1.015160596832065951e-03
1.547873936968484259e+03 1.029499527418636234e-03
1.548774387193596795e+03 1.042180969298691848e-03
1.549674837418709330e+03 1.053570436867334826e-03
1.550575287643821866e+03 1.060357175865113324e-03
1.551475737868934402e+03 1.058279313464892575e-03
1.552376188094046938e+03 1.047869099237124695e-03
1.553276638319159474e+03 1.036314853549807425e-03
1.554177088544272010e+03 1.028248196441864997e-03
1.555077538769384546e+03 1.018207393792209484e-03
1.555977988994497082e+03 9.973170647715370440e-04
1.556878439219609618e+03 9.646590480288111608e-04
1.557778889444722381e+03 9.287038900342543205e-04
1.558679339669834917e+03 9.005421010728931631e-04
1.559579789894947453e+03 8.867592926467143550e-04
1.560480240120059989e+03 8.845674375843911967e-04
1.561380690345172525e+03 8.836930481653196712e-04
1.562281140570285061e+03 8.755573558344535972e-04
1.563181590795397597e+03 8.610755111197376712e-04
1.564082041020510133e+03 8.440924751791792705e-04
1.564982491245622668e+03 8.253194493186919844e-04
1.565882941470735204e+03 8.039599331959818929e-04
1.566783391695847740e+03 7.809141690144481189e-04
1.567683841920960504e+03 7.616085251143256017e-04
1.568584292146073039e+03 7.513330867545693192e-04
1.569484742371185575e+03 7.494180444573297038e-04
1.570385192596298111e+03 7.484225949355308508e-04
1.571285642821410647e+03 7.369549825389266895e-04
1.572186093046523183e+03 7.056032534907583998e-04
1.573086543271635719e+03 6.527807085996640201e-04
1.573986993496748255e+03 5.863002123990071219e-04
1.574887443721860791e+03 5.172246672902606384e-04
1.575787893946973327e+03 4.528951988858448928e-04
1.576688344172085863e+03 3.962218687999892941e-04
1.577588794397198626e+03 3.462166118911459266e-04
1.578489244622311162e+03 3.014727607802875119e-04
1.579389694847423698e+03 2.631027341595377177e-04
1.580290145072536234e+03 2.320441342553923017e-04
1.581190595297648770e+03 2.074265055666719981e-04
1.582091045522761306e+03 1.879044495392798468e-04
1.582991495747873842e+03 1.724335930108132186e-04
1.583891945972986377e+03 1.601099572348464229e-04
1.584792396198098913e+03 1.503642792428503045e-04
1.585692846423211449e+03 1.430563252490257853e-04
1.586593296648323985e+03 1.380424934917573638e-04
1.587493746873436749e+03 1.346946093100165668e-04
1.588394197098549284e+03 1.314260562095865171e-04
1.589294647323661820e+03 1.264224490683429263e-04
1.590195097548774356e+03 1.198203500158679210e-04
1.591095547773886892e+03 1.132814663514594857e-04
1.591995997998999428e+03 1.078667633784285041e-04
1.592896448224111964e+03 1.037791361858667527e-04
1.593796898449224500e+03 1.009147755105048834e-04
1.594697348674337036e+03 9.909734876666800147e-05
1.595597798899449572e+03 9.800161407050692627e-05
1.596498249124562108e+03 9.710766124634903488e-05
1.597398699349674871e+03 9.604795354495737354e-05
1.598299149574787407e+03 9.489011371249231113e-05
1.599199599799899943e+03 9.382824090766112620e-05
1.600100050025012479e+03 9.280839496426680074e-05
1.601000500250125015e+03 9.201490521615525182e-05
1.601900950475237551e+03 9.212119457353841435e-05
1.602801400700350086e+03 9.352852785960317160e-05
1.603701850925462622e+03 9.575843934193143368e-05
1.604602301150575158e+03 9.758489327920290550e-05
1.605502751375687694e+03 9.834009408960230373e-05
1.606403201600800230e+03 9.872710184068480275e-05
1.607303651825912766e+03 9.986775360052459183e-05
1.608204102051025529e+03 1.022701286083028895e-04
1.609104552276138065e+03 1.052549189269561268e-04
1.610005002501250601e+03 1.070165940842237164e-04
1.610905452726363137e+03 1.056662876869269484e-04
1.611805902951475673e+03 1.010661142834787962e-04
1.612706353176588209e+03 9.504903877899953347e-05
1.613606803401700745e+03 8.941765781622892559e-05
1.614507253626813281e+03 8.456072476632897346e-05
1.615407703851925817e+03 8.025123868966556806e-05
1.616308154077038353e+03 7.645882531049041876e-05
1.617208604302150889e+03 7.302979016090379758e-05
1.618109054527263652e+03 6.955005429956058547e-05
1.619009504752376188e+03 6.611655098918501131e-05
1.619909954977488724e+03 6.320252573169133086e-05
1.620810405202601260e+03 6.104308589627485259e-05
1.621710855427713796e+03 5.964636826897354158e-05
1.622611305652826331e+03 5.898229734611176148e-05
1.623511755877938867e+03 5.902248642940609817e-05
1.624412206103051403e+03 5.958309474674493652e-05
1.625312656328163939e+03 5.999574559604486262e-05
1.626213106553276475e+03 5.922382044328970062e-05
1.627113556778389011e+03 5.704523523149982670e-05
1.628014007003501774e+03 5.434989683827031202e-05
1.628914457228614310e+03 5.191195784474291174e-05
1.629814907453726846e+03 4.993930148258765773e-05
1.630715357678839382e+03 4.836999346900940051e-05
1.631615807903951918e+03 4.709611645607548672e-05
1.632516258129064454e+03 4.603015657363674441e-05
1.633416708354176990e+03 4.511134771944885839e-05
1.634317158579289526e+03 4.429908229356391470e-05
1.635217608804402062e+03 4.356618900001639141e-05
1.636118059029514598e+03 4.289418417256303702e-05
1.637018509254627133e+03 4.227021186474648381e-05
1.637918959479739897e+03 4.168511581233190418e-05
1.638819409704852433e+03 4.113222072501478193e-05
1.639719859929964969e+03 4.060655129684752557e-05
1.640620310155077505e+03 4.010432262855336347e-05
1.641520760380190040e+03 3.962260124162408844e-05
1.642421210605302576e+03 3.915907519801208552e-05
1.643321660830415112e+03 3.871189533577112864e-05
1.644222111055527648e+03 3.827956377008126168e-05
1.645122561280640184e+03 3.786085443209897346e-05
1.646023011505752720e+03 3.745475576412000523e-05
1.646923461730865256e+03 3.706042906503784033e-05
1.647823911955978019e+03 3.667717815437706886e-05
1.648724362181090555e+03 3.630442745610453967e-05
1.649624812406203091e+03 3.594170657502795881e-05
1.650525262631315627e+03 3.558864012386224739e-05
1.651425712856428163e+03 3.524494207148407183e-05
1.652326163081540699e+03 3.491041430106517118e-05
1.653226613306653235e+03 3.458494945097859862e-05
1.654127063531765771e+03 3.426853851627307597e-05
1.655027513756878307e+03 3.396128417367704410e-05
1.655927963981990843e+03 3.366342143566949675e-05
1.656828414207103378e+03 3.337534815080549867e-05
1.657728864432216142e+03 3.309766922146791283e-05
1.658629314657328678e+03 3.283126048630600531e-05
1.659529764882441214e+03 3.257736147643202197e-05
1.660430215107553749e+03 3.233771148463539344e-05
1.661330665332666285e+03 3.211475192358612368e-05
1.662231115557778821e+03 3.191193209384415180e-05
1.663131565782891357e+03 3.173417916875217288e-05
1.664032016008003893e+03 3.158863293626378076e-05
1.664932466233116429e+03 3.148581134323109887e-05
1.665832916458228965e+03 3.144147417570616589e-05
1.666733366683341501e+03 3.147957830050312122e-05
1.667633816908454037e+03 3.163673705401796367e-05
1.668534267133566800e+03 3.196785005533280596e-05
1.669434717358679336e+03 3.254842190522411655e-05
1.670335167583791872e+03 3.345317989414898152e-05
1.671235617808904408e+03 3.465060898994830866e-05
1.672136068034016944e+03 3.575517668733326778e-05
1.673036518259129480e+03 3.597323183565821758e-05
1.673936968484242016e+03 3.493754113407039521e-05
1.674837418709354552e+03 3.326817134794871560e-05
1.675737868934467087e+03 3.167672869674397721e-05
1.676638319159579623e+03 3.041080414300529201e-05
1.677538769384692159e+03 2.944932962080779639e-05
1.678439219609804923e+03 2.871160942332399993e-05
1.679339669834917459e+03 2.812778126880567539e-05
1.680240120060029994e+03 2.764891971020020324e-05
1.681140570285142530e+03 2.724265660902424347e-05
1.682041020510255066e+03 2.688774389514628996e-05
1.682941470735367602e+03 2.657008061618271340e-05
1.683841920960480138e+03 2.628013803987416742e-05
1.684742371185592674e+03 2.601134397673942816e-05
1.685642821410705210e+03 2.575907059662819866e-05
1.686543271635817746e+03 2.551999332278195938e-05
1.687443721860930282e+03 2.529167813218681005e-05
1.688344172086043045e+03 2.507231103628021065e-05
1.689244622311155581e+03 2.486051746397964079e-05
1.690145072536268117e+03 2.465523948484308952e-05
1.691045522761380653e+03 2.445565090745378288e-05
1.691945972986493189e+03 2.426109761220676659e-05
1.692846423211605725e+03 2.407105497798915519e-05
1.693746873436718261e+03 2.388509707220599904e-05
1.694647323661830796e+03 2.370287405702518728e-05
1.695547773886943332e+03 2.352409541497592541e-05
1.696448224112055868e+03 2.334851735057951854e-05
1.697348674337168404e+03 2.317593322574898129e-05
1.698249124562281168e+03 2.300616622465406649e-05
1.699149574787393703e+03 2.283906367476411323e-05
1.700050025012506239e+03 2.267449261074009207e-05
1.700950475237618775e+03 2.251233627993819530e-05
1.701850925462731311e+03 2.235249136772860207e-05
1.702751375687843847e+03 2.219486577776241747e-05
1.703651825912956383e+03 2.203937684350891626e-05
1.704552276138068919e+03 2.188594987749499033e-05
1.705452726363181455e+03 2.173451698687683031e-05
1.706353176588293991e+03 2.158501610049392479e-05
1.707253626813406527e+03 2.143739016492872106e-05
1.708154077038519290e+03 2.129158647647335934e-05
1.709054527263631826e+03 2.114755612301232174e-05
1.709954977488744362e+03 2.100525351531189227e-05
1.710855427713856898e+03 2.086463599141501131e-05
1.711755877938969434e+03 2.072566348112166911e-05
1.712656328164081970e+03 2.058829822009817937e-05
1.713556778389194506e+03 2.045250450516612178e-05
1.714457228614307041e+03 2.031824848392225152e-05
1.715357678839419577e+03 2.018549797309819257e-05
1.716258129064532113e+03 2.005422230108594049e-05
1.717158579289644649e+03 1.992439217086019283e-05
1.718059029514757185e+03 1.979597954019061436e-05
1.718959479739869948e+03 1.966895751655796062e-05
1.719859929964982484e+03 1.954330026463067007e-05
1.720760380190095020e+03 1.941898292449755839e-05
1.721660830415207556e+03 1.929598153915559110e-05
1.722561280640320092e+03 1.917427298997910202e-05
1.723461730865432628e+03 1.905383493909823233e-05
1.724362181090545164e+03 1.893464577777824231e-05
1.725262631315657700e+03 1.881668458002392206e-05
1.726163081540770236e+03 1.869993106075346027e-05
1.727063531765882772e+03 1.858436553797066770e-05
1.727963981990995308e+03 1.846996889845785585e-05
1.728864432216108071e+03 1.835672256656690460e-05
1.729764882441220607e+03 1.824460847575102359e-05
1.730665332666333143e+03 1.813360904252553300e-05
1.731565782891445679e+03 1.802370714258521060e-05
1.732466233116558215e+03 1.791488608884658543e-05
1.733366683341670750e+03 1.780712961120555805e-05
1.734267133566783286e+03 1.770042183783513329e-05
1.735167583791895822e+03 1.759474727786207175e-05
1.736068034017008358e+03 1.749009080528798871e-05
1.736968484242120894e+03 1.738643764402971208e-05
1.737868934467233430e+03 1.728377335397369806e-05
1.738769384692346193e+03 1.718208381794964363e-05
1.739669834917458729e+03 1.708135522953646806e-05
1.740570285142571265e+03 1.698157408162893686e-05
1.741470735367683801e+03 1.688272715569663683e-05
1.742371185592796337e+03 1.678480151167517661e-05
1.743271635817908873e+03 1.668778447843835008e-05
1.744172086043021409e+03 1.659166364480159952e-05
1.745072536268133945e+03 1.649642685101570085e-05
1.745972986493246481e+03 1.640206218071086697e-05
1.746873436718359017e+03 1.630855795325720183e-05
1.747773886943471553e+03 1.621590271651067293e-05
1.748674337168584316e+03 1.612408523991471580e-05
1.749574787393696852e+03 1.603309450793424128e-05
1.750475237618809388e+03 1.594291971379613993e-05
1.751375687843921924e+03 1.585355025351710344e-05
1.752276138069034459e+03 1.576497572019827163e-05
1.753176588294146995e+03 1.567718589856993702e-05
1.754077038519259531e+03 1.559017075976951901e-05
1.754977488744372067e+03 1.550392045633825541e-05
1.755877938969484603e+03 1.541842531742349264e-05
1.756778389194597139e+03 1.533367584417421464e-05
1.757678839419709675e+03 1.524966270531653748e-05
1.758579289644822438e+03 1.516637673290284231e-05
1.759479739869934974e+03 1.508380891821893584e-05
1.760380190095047510e+03 1.500195040784643313e-05
1.761280640320160046e+03 1.492079249986736718e-05
1.762181090545272582e+03 1.484032664020551655e-05
1.763081540770385118e+03 1.476054441909707320e-05
1.763981990995497654e+03 1.468143756768408431e-05
1.764882441220610190e+03 1.460299795472337014e-05
1.765782891445722726e+03 1.452521758340699447e-05
1.766683341670835262e+03 1.444808858828766711e-05
1.767583791895947797e+03 1.437160323230380323e-05
1.768484242121060333e+03 1.429575390390132581e-05
1.769384692346173097e+03 1.422053311424522800e-05
1.770285142571285633e+03 1.414593349451946086e-05
1.771185592796398169e+03 1.407194779330896622e-05
1.772086043021510704e+03 1.399856887406192537e-05
1.772986493246623240e+03 1.392578971262800006e-05
1.773886943471735776e+03 1.385360339486905415e-05
1.774787393696848312e+03 1.378200311434039247e-05
1.775687843921960848e+03 1.371098217003895590e-05
1.776588294147073384e+03 1.364053396421518624e-05
1.777488744372185920e+03 1.357065200024753594e-05
1.778389194597298456e+03 1.350132988057604655e-05
1.779289644822411219e+03 1.343256130469265629e-05
1.780190095047523755e+03 1.336434006718682568e-05
1.781090545272636291e+03 1.329666005584401300e-05
1.781990995497748827e+03 1.322951524979522743e-05
1.782891445722861363e+03 1.316289971771473268e-05
1.783791895947973899e+03 1.309680761606646859e-05
1.784692346173086435e+03 1.303123318739507910e-05
1.785592796398198971e+03 1.296617075866089795e-05
1.786493246623311506e+03 1.290161473961842093e-05
1.787393696848424042e+03 1.283755962123462440e-05
1.788294147073536578e+03 1.277399997414799372e-05
1.789194597298649342e+03 1.271093044716483488e-05
1.790095047523761878e+03 1.264834576579399723e-05
1.790995497748874413e+03 1.258624073081564532e-05
1.791895947973986949e+03 1.252461021688715278e-05
1.792796398199099485e+03 1.246344917117986886e-05
1.793696848424212021e+03 1.240275261205081829e-05
1.794597298649324557e+03 1.234251562774418454e-05
1.795497748874437093e+03 1.228273337512450261e-05
1.796398199099549629e+03 1.222340107843883552e-05
1.797298649324662165e+03 1.216451402810780085e-05
1.798199099549774701e+03 1.210606757954448150e-05
1.799099549774887464e+03 1.204805715200045179e-05
1.800000000000000000e+03 1.199047822743772939e-05
