0.000000000000000000e+00 1.111665191189248206e-03
9.004502251125562351e-01 1.461263528467536630e-03
1.800900450225112470e+00 1.933125727822129335e-03
2.701350675337668594e+00 2.495164905044483603e-03
3.601800900450224940e+00 2.984166595852673961e-03
4.502251125562780842e+00 3.185394393327056067e-03
5.402701350675337189e+00 3.137189449466202835e-03
6.303151575787893535e+00 3.085717341751815189e-03
7.203601800900449881e+00 3.118784431374658963e-03
8.104052026013006227e+00 3.062251199928163643e-03
9.004502251125561685e+00 2.730129739804434269e-03
9.904952476238118919e+00 2.207764039858489419e-03
1.080540270135067438e+01 1.694132377476589586e-03
1.170585292646323161e+01 1.285505490034380850e-03
1.260630315157578707e+01 9.865679678310041844e-04
1.350675337668834430e+01 7.723500336234238048e-04
1.440720360180089976e+01 6.176680230056825734e-04
1.530765382691345522e+01 5.039102384963064628e-04
1.620810405202601245e+01 4.184808862992003635e-04
1.710855427713856969e+01 3.530439361129651264e-04
1.800900450225112337e+01 3.020526106306113700e-04
1.890945472736368060e+01 2.617481451223030247e-04
1.980990495247623784e+01 2.294737612021301946e-04
2.071035517758879507e+01 2.031338882264653687e-04
2.161080540270134875e+01 1.809241068067477768e-04
2.251125562781390599e+01 1.616393030886405994e-04
2.341170585292646322e+01 1.448682790289853380e-04
2.431215607803901690e+01 1.304585848978585436e-04
2.521260630315157414e+01 1.181455030904911697e-04
2.611305652826413137e+01 1.075971699414250205e-04
2.701350675337668861e+01 9.851227393073309902e-05
2.791395697848924229e+01 9.065202040847209798e-05
2.881440720360179952e+01 8.383536581464780593e-05
2.971485742871435676e+01 7.792033428793075070e-05
3.061530765382691044e+01 7.276576544123593336e-05
3.151575787893946767e+01 6.817293018281190349e-05
3.241620810405202491e+01 6.390492237242164936e-05
3.331665832916458214e+01 5.986531526208183838e-05
3.421710855427713938e+01 5.614454697189522942e-05
3.511755877938969661e+01 5.282647760182133755e-05
3.601800900450224674e+01 4.986069844339234200e-05
3.691845922961480397e+01 4.709377799138855428e-05
3.781890945472736121e+01 4.443459017332553550e-05
3.871935967983991844e+01 4.194271264489316285e-05
3.961980990495247568e+01 3.969752062690868667e-05
4.052026013006503291e+01 3.771082861829125408e-05
4.142071035517759015e+01 3.593389343558581813e-05
4.232116058029014027e+01 3.427233686733085750e-05
4.322161080540269751e+01 3.264796452660037449e-05
4.412206103051525474e+01 3.107202522772872289e-05
4.502251125562781198e+01 2.960014536747553157e-05
4.592296148074036921e+01 2.826009923865753458e-05
4.682341170585292645e+01 2.704956455029482306e-05
4.772386193096548368e+01 2.595744805575292950e-05
4.862431215607803381e+01 2.497517680488210297e-05
4.952476238119059104e+01 2.410018033688220675e-05
5.042521260630314828e+01 2.333719726894994468e-05
5.132566283141570551e+01 2.269923348904991661e-05
5.222611305652826275e+01 2.220583603713011128e-05
5.312656328164081998e+01 2.186822869479235974e-05
5.402701350675337721e+01 2.164035077266138459e-05
5.492746373186592734e+01 2.135152266451358370e-05
5.582791395697848458e+01 2.077632718620456075e-05
5.672836418209104181e+01 1.988965774581867582e-05
5.762881440720359905e+01 1.889820531086246224e-05
5.852926463231615628e+01 1.799273766696902238e-05
5.942971485742871351e+01 1.724054041197170062e-05
6.033016508254127075e+01 1.663971605273288965e-05
6.123061530765382088e+01 1.616829942317350282e-05
6.213106553276637811e+01 1.578454134828216688e-05
6.303151575787893535e+01 1.540601485205057343e-05
6.393196598299149258e+01 1.494626686721175711e-05
6.483241620810404982e+01 1.440944383519620283e-05
6.573286643321659994e+01 1.387106859756187038e-05
6.663331665832916428e+01 1.338487363569947274e-05
6.753376688344171441e+01 1.296326025331145969e-05
6.843421710855427875e+01 1.260136909602056922e-05
6.933466733366682888e+01 1.229333768895638831e-05
7.023511755877939322e+01 1.203679002927976295e-05
7.113556778389194335e+01 1.183093759531106416e-05
7.203601800900449348e+01 1.166892631077571969e-05
7.293646823411705782e+01 1.153082436346413357e-05
7.383691845922960795e+01 1.139909363819746863e-05
7.473736868434217229e+01 1.127033100155152816e-05
7.563781890945472242e+01 1.111241690459563867e-05
7.653826913456728676e+01 1.087236559359564997e-05
7.743871935967983688e+01 1.056904362462603168e-05
7.833916958479238701e+01 1.027954306545634604e-05
7.923961980990495135e+01 1.005585641099468667e-05
8.014007003501750148e+01 9.916272829550489088e-06
8.104052026013006582e+01 9.868045345904727603e-06
8.194097048524261595e+01 9.910170923990771136e-06
8.284142071035518029e+01 1.000655843912138549e-05
8.374187093546773042e+01 1.005258037474743825e-05
8.464232116058028055e+01 9.928760627196124683e-06
8.554277138569284489e+01 9.640314223140599294e-06
8.644322161080539502e+01 9.312826350352182840e-06
8.734367183591795936e+01 9.055346359164123294e-06
8.824412206103050949e+01 8.912031789557387895e-06
8.914457228614307382e+01 8.890510722485051278e-06
9.004502251125562395e+01 8.973205832942512931e-06
9.094547273636817408e+01 9.093724836765714983e-06
9.184592296148073842e+01 9.150788979773328012e-06
9.274637318659328855e+01 9.127261996357432280e-06
9.364682341170585289e+01 9.108077505996397166e-06
9.454727363681840302e+01 9.113876285421494128e-06
9.544772386193096736e+01 9.044015219723984872e-06
9.634817408704351749e+01 8.802156277391616241e-06
9.724862431215606762e+01 8.409517565145930006e-06
9.814907453726863196e+01 7.981817141400263506e-06
9.904952476238118209e+01 7.619828336331929936e-06
9.994997498749374643e+01 7.357643966909222218e-06
1.008504252126062966e+02 7.191751588022174949e-06
1.017508754377188609e+02 7.112713462583629015e-06
1.026513256628314110e+02 7.113753290937021880e-06
1.035517758879439612e+02 7.182284429247508945e-06
1.044522261130565255e+02 7.288195434806663471e-06
1.053526763381690756e+02 7.406283333352314173e-06
1.062531265632816400e+02 7.552978993600704616e-06
1.071535767883941901e+02 7.741943253456478371e-06
1.080540270135067544e+02 7.943739655333472026e-06
1.089544772386193046e+02 8.126874193499259797e-06
1.098549274637318547e+02 8.252348497248172834e-06
1.107553776888444190e+02 8.255701798369856473e-06
1.116558279139569692e+02 8.120046437375917425e-06
1.125562781390695335e+02 7.940383206257601027e-06
1.134567283641820836e+02 7.817147900304526756e-06
1.143571785892946480e+02 7.754574276456912985e-06
1.152576288144071981e+02 7.697166663867229238e-06
1.161580790395197482e+02 7.584040052376577043e-06
1.170585292646323126e+02 7.380277950649937847e-06
1.179589794897448627e+02 7.107698679968795328e-06
1.188594297148574270e+02 6.828182663439886669e-06
1.197598799399699772e+02 6.579307843433790581e-06
1.206603301650825415e+02 6.384888398387251717e-06
1.215607803901950916e+02 6.281412725914379698e-06
1.224612306153076418e+02 6.296754313078402404e-06
1.233616808404202061e+02 6.443783807051929320e-06
1.242621310655327562e+02 6.715696830131188110e-06
1.251625812906453206e+02 7.061043580554650660e-06
1.260630315157578707e+02 7.376955745651940646e-06
1.269634817408704350e+02 7.552785072011761880e-06
1.278639319659829852e+02 7.537240572793625637e-06
1.287643821910955353e+02 7.397384555486794582e-06
1.296648324162080996e+02 7.246702553857845167e-06
1.305652826413206640e+02 7.102192826572537070e-06
1.314657328664331999e+02 6.912701642001721734e-06
1.323661830915457642e+02 6.703529117057071300e-06
1.332666333166583286e+02 6.577010885643226104e-06
1.341670835417708929e+02 6.600966301666525603e-06
1.350675337668834288e+02 6.771754371764487766e-06
1.359679839919959932e+02 7.000916914090034852e-06
1.368684342171085575e+02 7.117597866459982866e-06
1.377688844422210934e+02 7.007493623048108597e-06
1.386693346673336578e+02 6.736720636230674302e-06
1.395697848924462221e+02 6.461260400566923179e-06
1.404702351175587864e+02 6.295871378294735574e-06
1.413706853426713224e+02 6.282692674088984521e-06
1.422711355677838867e+02 6.411398620952783113e-06
1.431715857928964510e+02 6.631865625841134327e-06
1.440720360180089870e+02 6.872136342962776331e-06
1.449724862431215513e+02 7.054633388649319115e-06
1.458729364682341156e+02 7.104768644103329030e-06
1.467733866933466800e+02 6.981452098500533445e-06
1.476738369184592159e+02 6.729607925057047421e-06
1.485742871435717802e+02 6.466639794833813504e-06
1.494747373686843446e+02 6.264960375382499845e-06
1.503751875937968805e+02 6.086330456244544353e-06
1.512756378189094448e+02 5.878342227669779530e-06
1.521760880440220092e+02 5.677220407509710180e-06
1.530765382691345735e+02 5.559765713594156490e-06
1.539769884942471094e+02 5.565826699554268404e-06
1.548774387193596738e+02 5.687694611203343621e-06
1.557778889444722381e+02 5.878752298799145001e-06
1.566783391695847740e+02 6.070352160349276191e-06
1.575787893946973384e+02 6.210512952506248357e-06
1.584792396198099027e+02 6.315768481536346414e-06
1.593796898449224670e+02 6.460049110750130301e-06
1.602801400700350030e+02 6.686491532485857721e-06
1.611805902951475673e+02 6.986424382382348417e-06
1.620810405202601316e+02 7.337901740177165876e-06
1.629814907453726676e+02 7.707515619477479582e-06
1.638819409704852319e+02 8.045875015427883791e-06
1.647823911955977962e+02 8.291832948530962228e-06
1.656828414207103606e+02 8.384318311935762573e-06
1.665832916458228965e+02 8.306808589333818601e-06
1.674837418709354608e+02 8.129681802563767462e-06
1.683841920960480252e+02 7.959687172093037939e-06
1.692846423211605611e+02 7.831763843542033691e-06
1.701850925462731254e+02 7.684214252123600401e-06
1.710855427713856898e+02 7.454435715882608549e-06
1.719859929964982541e+02 7.174465180874471719e-06
1.728864432216107900e+02 6.938909741617950598e-06
1.737868934467233544e+02 6.805024499237836793e-06
1.746873436718359187e+02 6.760538099244701187e-06
1.755877938969484546e+02 6.766908555511404793e-06
1.764882441220610190e+02 6.784107886569068073e-06
1.773886943471735833e+02 6.781487487065318338e-06
1.782891445722861476e+02 6.785192932563016917e-06
1.791895947973986836e+02 6.846067602668305165e-06
1.800900450225112479e+02 6.953119074849639185e-06
1.809904952476238122e+02 7.042731637913089469e-06
1.818909454727363482e+02 7.095263846255447346e-06
1.827913956978489125e+02 7.182898356265105903e-06
1.836918459229614768e+02 7.392803532644254397e-06
1.845922961480740412e+02 7.713903184147407943e-06
1.854927463731865771e+02 8.014490610546720503e-06
1.863931965982991414e+02 8.169442623391427697e-06
1.872936468234117058e+02 8.220764628235970820e-06
1.881940970485242417e+02 8.309254257422719189e-06
1.890945472736368060e+02 8.429648542544505654e-06
1.899949974987493704e+02 8.409880100848592297e-06
1.908954477238619347e+02 8.187552312892627023e-06
1.917958979489744706e+02 7.928585101927433152e-06
1.926963481740870350e+02 7.826921795346014596e-06
1.935967983991995993e+02 7.954991255595067967e-06
1.944972486243121352e+02 8.262979499077554953e-06
1.953976988494246996e+02 8.621237448531947741e-06
1.962981490745372639e+02 8.891341044626594446e-06
1.971985992996498283e+02 9.016578335834166588e-06
1.980990495247623642e+02 9.031504266364379880e-06
1.989994997498749285e+02 9.022246826382564146e-06
1.998999499749874929e+02 9.075530631472164558e-06
2.008004002001000288e+02 9.206352893733650566e-06
2.017008504252125931e+02 9.338237917373149374e-06
2.026013006503251574e+02 9.396274252481919735e-06
2.035017508754377218e+02 9.385945341968064044e-06
2.044022011005502577e+02 9.332283125340790238e-06
2.053026513256628220e+02 9.228937208210737705e-06
2.062031015507753864e+02 9.090338492753233682e-06
2.071035517758879223e+02 8.991342234738973878e-06
2.080040020010004866e+02 9.014920978730772111e-06
2.089044522261130510e+02 9.180556233119006204e-06
2.098049024512256153e+02 9.457155949862825067e-06
2.107053526763381512e+02 9.804203379193873725e-06
2.116058029014507156e+02 1.015140275024906828e-05
2.125062531265632799e+02 1.043616234183714702e-05
2.134067033516758158e+02 1.070495808236560248e-05
2.143071535767883802e+02 1.103869918681069448e-05
2.152076038019009445e+02 1.141948970771321840e-05
2.161080540270135089e+02 1.172106084532857726e-05
2.170085042521260448e+02 1.177670466383230042e-05
2.179089544772386091e+02 1.150207748233622699e-05
2.188094047023511735e+02 1.099337405379517194e-05
2.197098549274637094e+02 1.041905164778728361e-05
2.206103051525762737e+02 9.923523672433085666e-06
2.215107553776888381e+02 9.622481636060258421e-06
2.224112056028014024e+02 9.564029653840567681e-06
2.233116558279139383e+02 9.715962347455978714e-06
2.242121060530265027e+02 9.990621013689666505e-06
2.251125562781390670e+02 1.025152868924586593e-05
2.260130065032516029e+02 1.039395748356121773e-05
2.269134567283641672e+02 1.046934299287612341e-05
2.278139069534767316e+02 1.057240201416127559e-05
2.287143571785892959e+02 1.066040133090154544e-05
2.296148074037018318e+02 1.066557997031850046e-05
2.305152576288143962e+02 1.063690919393716441e-05
2.314157078539269605e+02 1.062978486653158709e-05
2.323161580790394964e+02 1.062177616248331469e-05
2.332166083041520608e+02 1.057325459918753077e-05
2.341170585292646251e+02 1.046921892349000411e-05
2.350175087543771895e+02 1.031195234376055357e-05
2.359179589794897254e+02 1.012026021622440868e-05
2.368184092046022897e+02 9.950056099262298071e-06
2.377188594297148541e+02 9.872569150000032440e-06
2.386193096548273900e+02 9.935179039920497026e-06
2.395197598799399543e+02 1.014622769900983505e-05
2.404202101050525187e+02 1.043368109686160507e-05
2.413206603301650830e+02 1.063634463779667361e-05
2.422211105552776189e+02 1.065417804284777851e-05
2.431215607803901833e+02 1.056032797104906212e-05
2.440220110055027476e+02 1.045262979735872700e-05
2.449224612306152835e+02 1.033111769570212889e-05
2.458229114557278479e+02 1.018760284095849212e-05
2.467233616808404122e+02 1.005186127850732932e-05
2.476238119059529765e+02 9.954362349902385324e-06
2.485242621310655124e+02 9.913446126491947904e-06
2.494247123561780768e+02 9.909567108864401853e-06
2.503251625812906411e+02 9.912419976697235802e-06
2.512256128064031770e+02 9.910650477124849763e-06
2.521260630315157414e+02 9.896956081741484695e-06
2.530265132566283057e+02 9.890526290882864849e-06
2.539269634817408701e+02 9.926011151627806237e-06
2.548274137068534060e+02 1.001246596876722853e-05
2.557278639319659703e+02 1.011533894396574109e-05
2.566283141570785347e+02 1.019483211486190136e-05
2.575287643821910706e+02 1.021659666885525248e-05
2.584292146073036633e+02 1.014077267715030118e-05
2.593296648324161993e+02 9.982243011037289957e-06
2.602301150575287352e+02 9.814286617359237096e-06
2.611305652826413279e+02 9.728928304847926046e-06
2.620310155077538639e+02 9.774280469277468451e-06
2.629314657328663998e+02 9.912301646261394568e-06
2.638319159579789925e+02 1.008264279456404586e-05
2.647323661830915285e+02 1.025961423230192739e-05
2.656328164082040644e+02 1.039968597581024311e-05
2.665332666333166571e+02 1.044551673070170380e-05
2.674337168584291931e+02 1.038226420733100774e-05
2.683341670835417858e+02 1.025483146580934904e-05
2.692346173086543217e+02 1.011791960341955003e-05
2.701350675337668577e+02 9.955452645037071957e-06
2.710355177588794504e+02 9.712153325873920250e-06
2.719359679839919863e+02 9.412714020396338715e-06
2.728364182091045222e+02 9.157657562473070029e-06
2.737368684342171150e+02 9.008932680551044283e-06
2.746373186593296509e+02 8.950415840679642047e-06
2.755377688844421868e+02 8.954130561241340611e-06
2.764382191095547796e+02 9.033711962855073396e-06
2.773386693346673155e+02 9.206459891537618749e-06
2.782391195597798514e+02 9.431837133977821584e-06
2.791395697848924442e+02 9.632683375783438192e-06
2.800400200100049801e+02 9.768710019809175854e-06
2.809404702351175729e+02 9.890070875447382358e-06
2.818409204602301088e+02 1.007622182569809581e-05
2.827413706853426447e+02 1.032447170716625220e-05
2.836418209104552375e+02 1.053869009016677131e-05
2.845422711355677734e+02 1.060266875956246546e-05
2.854427213606803093e+02 1.049211458329317669e-05
2.863431715857929021e+02 1.028182144838106768e-05
2.872436218109054380e+02 1.004837210039073145e-05
2.881440720360179739e+02 9.813273800664963598e-06
2.890445222611305667e+02 9.572000588337376629e-06
2.899449724862431026e+02 9.352642541047222175e-06
2.908454227113556385e+02 9.187541331325163902e-06
2.917458729364682313e+02 9.054788944329374506e-06
2.926463231615807672e+02 8.899716100468189900e-06
2.935467733866933600e+02 8.695764767161466100e-06
2.944472236118058959e+02 8.469975049891394418e-06
2.953476738369184318e+02 8.295284777010784589e-06
2.962481240620310246e+02 8.245324343260277517e-06
2.971485742871435605e+02 8.321113751293324391e-06
2.980490245122560964e+02 8.460560994280416720e-06
2.989494747373686891e+02 8.624282089606904498e-06
2.998499249624812251e+02 8.817915263328072681e-06
3.007503751875937610e+02 9.028877028813734560e-06
3.016508254127063537e+02 9.184572832968500685e-06
3.025512756378188897e+02 9.213975011157284157e-06
3.034517258629314256e+02 9.121636797979791399e-06
3.043521760880440183e+02 8.959980920065385869e-06
3.052526263131565543e+02 8.794296595626579339e-06
3.061530765382691470e+02 8.682952595966840473e-06
3.070535267633816829e+02 8.636590942573437913e-06
3.079539769884942189e+02 8.616151075944093035e-06
3.088544272136068116e+02 8.598164298234720439e-06
3.097548774387193475e+02 8.618612719699329913e-06
3.106553276638318835e+02 8.713618859975326046e-06
3.115557778889444762e+02 8.853613487703964566e-06
3.124562281140570121e+02 8.995770300061124188e-06
3.133566783391695481e+02 9.162515226170688903e-06
3.142571285642821408e+02 9.397242462976687939e-06
3.151575787893946767e+02 9.666762695560687763e-06
3.160580290145072127e+02 9.869210347998959149e-06
3.169584792396198054e+02 9.926667838629922079e-06
3.178589294647323413e+02 9.839898467664396614e-06
3.187593796898449341e+02 9.694358758105336583e-06
3.196598299149574700e+02 9.587234110163192485e-06
3.205602801400700059e+02 9.546064950266446158e-06
3.214607303651825987e+02 9.560347111878277535e-06
3.223611805902951346e+02 9.604731318709583239e-06
3.232616308154076705e+02 9.632175552292546666e-06
3.241620810405202633e+02 9.630482630036724218e-06
3.250625312656327992e+02 9.631465084114329119e-06
3.259629814907453351e+02 9.641079286998846174e-06
3.268634317158579279e+02 9.629013984092782674e-06
3.277638819409704638e+02 9.551903164045706763e-06
3.286643321660829997e+02 9.418299476580099303e-06
3.295647823911955925e+02 9.333171457481976113e-06
3.304652326163081284e+02 9.424959665818349110e-06
3.313656828414207212e+02 9.754510055172128214e-06
3.322661330665332571e+02 1.030194175381234075e-05
3.331665832916457930e+02 1.095131729831736497e-05
3.340670335167583858e+02 1.152211472663896653e-05
3.349674837418709217e+02 1.190766680062061023e-05
3.358679339669834576e+02 1.212825970170225620e-05
3.367683841920960504e+02 1.221726409397458932e-05
3.376688344172085863e+02 1.217263731437653132e-05
3.385692846423211222e+02 1.198718745126437051e-05
3.394697348674337150e+02 1.170054868919949992e-05
3.403701850925462509e+02 1.141086944186753696e-05
3.412706353176587868e+02 1.119753110366738552e-05
3.421710855427713796e+02 1.107046691680649902e-05
3.430715357678839155e+02 1.102196462665984533e-05
3.439719859929965082e+02 1.104449008988769713e-05
3.448724362181090441e+02 1.109352706408516799e-05
3.457728864432215801e+02 1.110318619021160655e-05
3.466733366683341728e+02 1.102922536439292450e-05
3.475737868934467087e+02 1.088579821700968309e-05
3.484742371185592447e+02 1.072922729392140278e-05
3.493746873436718374e+02 1.060466912932310200e-05
3.502751375687843733e+02 1.054065810593729162e-05
3.511755877938969093e+02 1.053816576896798129e-05
3.520760380190095020e+02 1.054851079339929850e-05
3.529764882441220379e+02 1.050219639833938648e-05
3.538769384692345739e+02 1.035832425812973930e-05
3.547773886943471666e+02 1.013073836931954318e-05
3.556778389194597025e+02 9.870901268240724811e-06
3.565782891445722953e+02 9.637342025630085275e-06
3.574787393696848312e+02 9.474307744538566631e-06
3.583791895947973671e+02 9.403105537881171645e-06
3.592796398199099599e+02 9.430312665483628538e-06
3.601800900450224958e+02 9.542960235090401929e-06
3.610805402701350317e+02 9.722863924203230851e-06
3.619809904952476245e+02 9.963352560461433949e-06
3.628814407203601604e+02 1.024421325548201470e-05
3.637818909454726963e+02 1.052979325052159298e-05
3.646823411705852891e+02 1.079651407103925807e-05
3.655827913956978250e+02 1.102042691698350625e-05
3.664832416208103609e+02 1.116360664056561778e-05
3.673836918459229537e+02 1.119135606510144012e-05
3.682841420710354896e+02 1.111097994086209201e-05
3.691845922961480824e+02 1.097610630386491077e-05
3.700850425212606183e+02 1.084495781222975366e-05
3.709854927463731542e+02 1.075439979021008639e-05
3.718859429714857470e+02 1.073007122434869698e-05
3.727863931965982829e+02 1.078133221331793326e-05
3.736868434217108188e+02 1.088477554627750702e-05
3.745872936468234116e+02 1.100984023535645981e-05
3.754877438719359475e+02 1.114823177161112876e-05
3.763881940970484834e+02 1.129814096367489714e-05
3.772886443221610762e+02 1.147704601999810354e-05
3.781890945472736121e+02 1.173094848818277310e-05
3.790895447723861480e+02 1.208989068554900446e-05
3.799899949974987408e+02 1.251542241669814198e-05
3.808904452226112767e+02 1.289514881563508343e-05
3.817908954477238694e+02 1.311027000167506704e-05
3.826913456728364054e+02 1.312465722963268243e-05
3.835917958979489413e+02 1.299156837176345704e-05
3.844922461230615340e+02 1.278921668702616353e-05
3.853926963481740700e+02 1.261708482265377314e-05
3.862931465732866059e+02 1.252898854002708574e-05
3.871935967983991986e+02 1.246134254497741395e-05
3.880940470235117346e+02 1.230151158693537782e-05
3.889944972486242705e+02 1.203954103518427242e-05
3.898949474737368632e+02 1.178336710866211573e-05
3.907953976988493991e+02 1.163824435246267287e-05
3.916958479239619351e+02 1.164693502306792688e-05
3.925962981490745278e+02 1.179428611160873209e-05
3.934967483741870637e+02 1.203026313841178819e-05
3.943971985992996565e+02 1.229439056266889752e-05
3.952976488244121924e+02 1.253595032541414578e-05
3.961980990495247283e+02 1.272313780410402974e-05
3.970985492746373211e+02 1.282881581150912330e-05
3.979989994997498570e+02 1.283760886246012681e-05
3.988994497248623929e+02 1.275249827996130244e-05
3.997998999499749857e+02 1.261571140078447452e-05
4.007003501750875216e+02 1.248663527160945689e-05
4.016008004002000575e+02 1.236874836574727687e-05
4.025012506253126503e+02 1.224264704768254125e-05
4.034017008504251862e+02 1.213799307558723021e-05
4.043021510755377221e+02 1.207682949429418279e-05
4.052026013006503149e+02 1.204197996712165504e-05
4.061030515257628508e+02 1.205719993141477193e-05
4.070035017508754436e+02 1.219454465941782970e-05
4.079039519759879795e+02 1.248100423527156027e-05
4.088044022011005154e+02 1.283410499271004652e-05
4.097048524262131082e+02 1.312907131970672961e-05
4.106053026513256441e+02 1.328922733914078951e-05
4.115057528764381800e+02 1.330736686036028156e-05
4.124062031015507728e+02 1.324782184859087587e-05
4.133066533266633087e+02 1.320604802240888503e-05
4.142071035517758446e+02 1.323386452150730496e-05
4.151075537768884374e+02 1.331623346289027326e-05
4.160080040020009733e+02 1.338339705821788543e-05
4.169084542271135092e+02 1.338562118290530138e-05
4.178089044522261020e+02 1.336788082974084738e-05
4.187093546773386379e+02 1.337872534337657522e-05
4.196098049024512306e+02 1.340342413972422743e-05
4.205102551275637666e+02 1.341992466501727698e-05
4.214107053526763025e+02 1.343978621928604529e-05
4.223111555777888952e+02 1.351475876130293835e-05
4.232116058029014312e+02 1.369057013605499100e-05
4.241120560280139671e+02 1.396229148378078973e-05
4.250125062531265598e+02 1.428087467887337798e-05
4.259129564782390958e+02 1.458912884847803854e-05
4.268134067033516317e+02 1.489325100792356241e-05
4.277138569284642244e+02 1.524749255745373535e-05
4.286143071535767604e+02 1.563181784962874222e-05
4.295147573786892963e+02 1.590949085900002528e-05
4.304152076038018890e+02 1.599259205243766315e-05
4.313156578289144250e+02 1.593408908792873219e-05
4.322161080540270177e+02 1.579222008025786835e-05
4.331165582791395536e+02 1.558121215075358766e-05
4.340170085042520896e+02 1.535194276113255042e-05
4.349174587293646823e+02 1.519286989569242360e-05
4.358179089544772182e+02 1.516974434311992485e-05
4.367183591795897541e+02 1.528452686223093440e-05
4.376188094047023469e+02 1.548574708259922936e-05
4.385192596298148828e+02 1.570701148420604613e-05
4.394197098549274187e+02 1.590730355214258138e-05
4.403201600800400115e+02 1.607078107363413608e-05
4.412206103051525474e+02 1.614955313181771698e-05
4.421210605302650833e+02 1.611416074756939824e-05
4.430215107553776761e+02 1.603446794830683573e-05
4.439219609804902120e+02 1.597382042356595812e-05
4.448224112056028048e+02 1.589099035600277079e-05
4.457228614307153407e+02 1.572200531315163467e-05
4.466233116558278766e+02 1.546274596288848744e-05
4.475237618809404694e+02 1.518216471117524062e-05
4.484242121060530053e+02 1.496628895190061161e-05
4.493246623311655412e+02 1.484987626253682109e-05
4.502251125562781340e+02 1.482757397065923679e-05
4.511255627813906699e+02 1.489098184548866212e-05
4.520260130065032058e+02 1.503034631316486870e-05
4.529264632316157986e+02 1.524039254003631342e-05
4.538269134567283345e+02 1.553086429267807814e-05
4.547273636818408704e+02 1.587817869066872347e-05
4.556278139069534632e+02 1.623095433208258915e-05
4.565282641320659991e+02 1.656861834980580492e-05
4.574287143571785919e+02 1.690236761912991930e-05
4.583291645822911278e+02 1.723395801113891332e-05
4.592296148074036637e+02 1.754500976326810763e-05
4.601300650325162565e+02 1.780193969760267419e-05
4.610305152576287924e+02 1.799750146673077776e-05
4.619309654827413283e+02 1.816966935257462003e-05
4.628314157078539210e+02 1.833424379008361102e-05
4.637318659329664570e+02 1.848512133630744983e-05
4.646323161580789929e+02 1.865779321183642507e-05
4.655327663831915856e+02 1.893082935522864463e-05
4.664332166083041216e+02 1.933343725043719147e-05
4.673336668334167143e+02 1.981315376641130447e-05
4.682341170585292502e+02 2.026733563584472701e-05
4.691345672836417862e+02 2.061662528831309507e-05
4.700350175087543789e+02 2.086672212201328151e-05
4.709354677338669148e+02 2.104308726419370598e-05
4.718359179589794508e+02 2.114270112628404327e-05
4.727363681840920435e+02 2.117237376681494295e-05
4.736368184092045794e+02 2.119289622213231761e-05
4.745372686343171154e+02 2.125184089138525744e-05
4.754377188594297081e+02 2.132944155497856704e-05
4.763381690845422440e+02 2.137666501899469258e-05
4.772386193096547800e+02 2.136004810399406702e-05
4.781390695347673727e+02 2.127237837865773713e-05
4.790395197598799086e+02 2.110446011133422560e-05
4.799399699849925014e+02 2.085655221732750372e-05
4.808404202101050373e+02 2.053770427350612806e-05
4.817408704352175732e+02 2.020759306979767679e-05
4.826413206603301660e+02 2.000007198964600671e-05
4.835417708854427019e+02 2.001115558814994705e-05
4.844422211105552378e+02 2.023690958035937297e-05
4.853426713356678306e+02 2.058250847720412564e-05
4.862431215607803665e+02 2.090808307752402721e-05
4.871435717858929024e+02 2.113497836890338729e-05
4.880440220110054952e+02 2.130678425965389466e-05
4.889444722361180311e+02 2.154449855767441514e-05
4.898449224612305670e+02 2.188621732986734253e-05
4.907453726863431598e+02 2.220000298554804829e-05
4.916458229114556957e+02 2.232235960995242614e-05
4.925462731365682885e+02 2.218761468377867228e-05
4.934467233616808244e+02 2.186235199321114744e-05
4.943471735867933603e+02 2.155063406853539374e-05
4.952476238119059531e+02 2.140956778522286823e-05
4.961480740370184890e+02 2.141785639135565923e-05
4.970485242621310249e+02 2.154471243297499924e-05
4.979489744872436177e+02 2.182317496721869634e-05
4.988494247123561536e+02 2.225285258859265833e-05
4.997498749374686895e+02 2.273638609680522348e-05
5.006503251625812823e+02 2.312253371839403108e-05
5.015507753876938182e+02 2.332968056367425635e-05
5.024512256128063541e+02 2.339220822842726379e-05
5.033516758379189469e+02 2.338604189419857241e-05
5.042521260630314828e+02 2.337784178899012349e-05
5.051525762881440755e+02 2.341132092797623427e-05
5.060530265132566115e+02 2.347931257424091471e-05
5.069534767383691474e+02 2.353655691520569325e-05
5.078539269634817401e+02 2.357143017496362845e-05
5.087543771885942760e+02 2.361259933836409438e-05
5.096548274137068120e+02 2.362905732446344078e-05
5.105552776388194047e+02 2.361009561948006587e-05
5.114557278639319406e+02 2.364258604233429806e-05
5.123561780890445334e+02 2.375051582400558754e-05
5.132566283141570693e+02 2.383350063974936671e-05
5.141570785392696052e+02 2.383667660255700508e-05
5.150575287643821412e+02 2.383349952501782627e-05
5.159579789894946771e+02 2.390172222524989488e-05
5.168584292146073267e+02 2.400901578955814432e-05
5.177588794397198626e+02 2.411973418362033271e-05
5.186593296648323985e+02 2.429165283301062028e-05
5.195597798899449344e+02 2.458352668178769224e-05
5.204602301150574704e+02 2.496441341381748215e-05
5.213606803401700063e+02 2.530598025434615208e-05
5.222611305652826559e+02 2.547395333492702408e-05
5.231615807903951918e+02 2.543229525559004045e-05
5.240620310155077277e+02 2.527747521269520239e-05
5.249624812406202636e+02 2.512773008251580035e-05
5.258629314657327996e+02 2.501774827617002110e-05
5.267633816908454492e+02 2.495774095561280922e-05
5.276638319159579851e+02 2.495830486977826420e-05
5.285642821410705210e+02 2.498029589824521485e-05
5.294647323661830569e+02 2.498253675627919987e-05
5.303651825912955928e+02 2.502853574006190350e-05
5.312656328164081287e+02 2.524344743168125611e-05
5.321660830415207784e+02 2.563269917481563004e-05
5.330665332666333143e+02 2.606766715128520812e-05
5.339669834917458502e+02 2.643470565857430308e-05
5.348674337168583861e+02 2.673902377849707090e-05
5.357678839419709220e+02 2.706504302755307056e-05
5.366683341670835716e+02 2.744989608566100636e-05
5.375687843921961075e+02 2.786864408292124564e-05
5.384692346173086435e+02 2.830000773008516744e-05
5.393696848424211794e+02 2.872465416087120830e-05
5.402701350675337153e+02 2.912798934349710800e-05
5.411705852926462512e+02 2.952200053961636549e-05
5.420710355177589008e+02 2.992458728546827296e-05
5.429714857428714367e+02 3.035331653830000218e-05
5.438719359679839727e+02 3.084206191719461143e-05
5.447723861930965086e+02 3.143051920350770426e-05
5.456728364182090445e+02 3.207790476718784479e-05
5.465732866433215804e+02 3.269844218294391076e-05
5.474737368684342300e+02 3.324523376877588671e-05
5.483741870935467659e+02 3.367653551053931483e-05
5.492746373186593019e+02 3.400284023029831270e-05
5.501750875437718378e+02 3.430823848576015634e-05
5.510755377688843737e+02 3.468019995889324756e-05
5.519759879939970233e+02 3.512803409623375717e-05
5.528764382191095592e+02 3.555886904567620886e-05
5.537768884442220951e+02 3.590032431457667092e-05
5.546773386693346310e+02 3.616787286307739097e-05
5.555777888944471670e+02 3.643904359082567962e-05
5.564782391195597029e+02 3.679321006870726662e-05
5.573786893446723525e+02 3.723030845487273566e-05
5.582791395697848884e+02 3.772325569407531282e-05
5.591795897948974243e+02 3.829354967198207846e-05
5.600800400200099602e+02 3.896455139175425826e-05
5.609804902451224962e+02 3.973775791136321576e-05
5.618809404702351458e+02 4.059125125287869613e-05
5.627813906953476817e+02 4.149025105704643991e-05
5.636818409204602176e+02 4.241131738919476450e-05
5.645822911455727535e+02 4.330943748243241639e-05
5.654827413706852894e+02 4.413866744124959743e-05
5.663831915957978254e+02 4.483009634359229329e-05
5.672836418209104750e+02 4.526970839441112711e-05
5.681840920460230109e+02 4.541088729792238586e-05
5.690845422711355468e+02 4.537828671553773030e-05
5.699849924962480827e+02 4.534614927115204828e-05
5.708854427213606186e+02 4.543680972892096177e-05
5.717858929464731546e+02 4.574203732714426126e-05
5.726863431715858042e+02 4.622462858682654122e-05
5.735867933966983401e+02 4.672729182458264837e-05
5.744872436218108760e+02 4.710401498348520483e-05
5.753876938469234119e+02 4.731500875597291288e-05
5.762881440720359478e+02 4.739403546747538598e-05
5.771885942971485974e+02 4.740080288488369943e-05
5.780890445222611334e+02 4.743072947889482948e-05
5.789894947473736693e+02 4.750993848394809469e-05
5.798899449724862052e+02 4.759587491903627550e-05
5.807903951975987411e+02 4.761298695656429695e-05
5.816908454227112770e+02 4.752962104218228537e-05
5.825912956478239266e+02 4.738455596511845133e-05
5.834917458729364625e+02 4.724948945959434320e-05
5.843921960980489985e+02 4.722281795668192920e-05
5.852926463231615344e+02 4.735290990679237854e-05
5.861930965482740703e+02 4.763846555691402445e-05
5.870935467733867199e+02 4.804174603171097247e-05
5.879939969984992558e+02 4.846477223646332894e-05
5.888944472236117917e+02 4.889415645692970401e-05
5.897948974487243277e+02 4.948178934435862336e-05
5.906953476738368636e+02 5.034500043374975643e-05
5.915957978989493995e+02 5.134231757822625323e-05
5.924962481240620491e+02 5.217063850845277915e-05
5.933966983491745850e+02 5.272756090995042960e-05
5.942971485742871209e+02 5.319377493577793191e-05
5.951975987993996569e+02 5.370239320454587006e-05
5.960980490245121928e+02 5.417912884239084855e-05
5.969984992496247287e+02 5.458198990799620912e-05
5.978989494747373783e+02 5.491494257807099077e-05
5.987993996998499142e+02 5.514980761311950413e-05
5.996998499249624501e+02 5.534341678358696738e-05
6.006003001500749860e+02 5.559233475830697042e-05
6.015007503751875220e+02 5.591529401717540909e-05
6.024012006003001716e+02 5.626319417882797146e-05
6.033016508254127075e+02 5.657668103414695889e-05
6.042021010505252434e+02 5.689015868223296817e-05
6.051025512756377793e+02 5.730596564306069909e-05
6.060030015007503152e+02 5.783331724037885725e-05
6.069034517258628512e+02 5.842590719631159314e-05
6.078039019509755008e+02 5.910654949421912150e-05
6.087043521760880367e+02 5.977455775163748546e-05
6.096048024012005726e+02 6.011852065514993045e-05
6.105052526263131085e+02 5.999575230430981472e-05
6.114057028514256444e+02 5.966052069883347815e-05
6.123061530765382940e+02 5.944506056279990334e-05
6.132066033016508300e+02 5.937305375047848309e-05
6.141070535267633659e+02 5.927679822830243274e-05
6.150075037518759018e+02 5.903119158725929285e-05
6.159079539769884377e+02 5.858975984459675906e-05
6.168084042021009736e+02 5.804682071395321838e-05
6.177088544272136232e+02 5.762788480887835545e-05
6.186093046523261592e+02 5.751927776121265368e-05
6.195097548774386951e+02 5.757423560199615900e-05
6.204102051025512310e+02 5.742732369754780815e-05
6.213106553276637669e+02 5.691209122114654893e-05
6.222111055527763028e+02 5.617255186132943782e-05
6.231115557778889524e+02 5.556111104521859210e-05
6.240120060030014884e+02 5.527090662640301888e-05
6.249124562281140243e+02 5.510707208200580959e-05
6.258129064532265602e+02 5.484693560076772732e-05
6.267133566783390961e+02 5.461737252668873898e-05
6.276138069034517457e+02 5.459947444094410892e-05
6.285142571285642816e+02 5.466876107282112409e-05
6.294147073536768175e+02 5.458796210837475109e-05
6.303151575787893535e+02 5.437916960602613887e-05
6.312156078039018894e+02 5.419604844825641422e-05
6.321160580290144253e+02 5.410474288315956528e-05
6.330165082541270749e+02 5.413933592156544398e-05
6.339169584792396108e+02 5.423833908280774893e-05
6.348174087043521467e+02 5.429163560752653736e-05
6.357178589294646827e+02 5.434226120324906894e-05
6.366183091545772186e+02 5.449311388861001075e-05
6.375187593796898682e+02 5.462419144999939235e-05
6.384192096048024041e+02 5.447434268077890203e-05
6.393196598299149400e+02 5.399356391179395203e-05
6.402201100550274759e+02 5.340189388955102841e-05
6.411205602801400119e+02 5.290329398897080000e-05
6.420210105052525478e+02 5.241703343378181502e-05
6.429214607303651974e+02 5.183834402308936772e-05
6.438219109554777333e+02 5.136142450943327338e-05
6.447223611805902692e+02 5.123664670317370075e-05
6.456228114057028051e+02 5.150643888232253804e-05
6.465232616308153411e+02 5.197076588679835717e-05
6.474237118559278770e+02 5.245761881939615945e-05
6.483241620810405266e+02 5.305252817038764735e-05
6.492246123061530625e+02 5.372650339866860242e-05
6.501250625312655984e+02 5.425046483485017394e-05
6.510255127563781343e+02 5.451505435392706904e-05
6.519259629814906702e+02 5.452677492808799992e-05
6.528264132066033198e+02 5.416472882268913555e-05
6.537268634317158558e+02 5.329451827163991405e-05
6.546273136568283917e+02 5.202829385080283214e-05
6.555277638819409276e+02 5.069988792081354544e-05
6.564282141070534635e+02 4.965475751247007809e-05
6.573286643321659994e+02 4.908654461692661349e-05
6.582291145572786490e+02 4.902138927889919905e-05
6.591295647823911850e+02 4.933936232169084155e-05
6.600300150075037209e+02 4.982853929184523492e-05
6.609304652326162568e+02 5.035217929875709724e-05
6.618309154577287927e+02 5.088633027739428768e-05
6.627313656828414423e+02 5.136133849278709534e-05
6.636318159079539782e+02 5.167008854638470026e-05
6.645322661330665142e+02 5.174310829942775067e-05
6.654327163581790501e+02 5.163191545544863704e-05
6.663331665832915860e+02 5.152237588950626734e-05
6.672336168084041219e+02 5.150573240800927706e-05
6.681340670335167715e+02 5.144373924409877141e-05
6.690345172586293074e+02 5.116665177292443399e-05
6.699349674837418434e+02 5.065811958336992126e-05
6.708354177088543793e+02 5.001416768227146214e-05
6.717358679339669152e+02 4.941332097514013948e-05
6.726363181590794511e+02 4.901567740821340319e-05
6.735367683841921007e+02 4.885845427935711811e-05
6.744372186093046366e+02 4.889007479022257986e-05
6.753376688344171725e+02 4.892346147313206555e-05
6.762381190595297085e+02 4.867254693425106021e-05
6.771385692846422444e+02 4.800739652990851407e-05
6.780390195097548940e+02 4.710403860391075982e-05
6.789394697348674299e+02 4.633263743097396726e-05
6.798399199599799658e+02 4.601047881099498438e-05
6.807403701850925017e+02 4.622856045581433162e-05
6.816408204102050377e+02 4.676119123332835519e-05
6.825412706353175736e+02 4.725961346420702792e-05
6.834417208604302232e+02 4.750430385129718899e-05
6.843421710855427591e+02 4.746419340245307446e-05
6.852426213106552950e+02 4.729374319125932306e-05
6.861430715357678309e+02 4.714923662749612664e-05
6.870435217608803669e+02 4.704861255195012272e-05
6.879439719859930165e+02 4.694316519059435190e-05
6.888444222111055524e+02 4.682637089119567376e-05
6.897448724362180883e+02 4.668521103756851493e-05
6.906453226613306242e+02 4.647430701662345090e-05
6.915457728864431601e+02 4.622719454222779602e-05
6.924462231115556961e+02 4.610839251642130242e-05
6.933466733366683457e+02 4.626821791899380200e-05
6.942471235617808816e+02 4.654761891292980383e-05
6.951475737868934175e+02 4.653136666773291139e-05
6.960480240120059534e+02 4.604801646996471183e-05
6.969484742371184893e+02 4.541342622295614694e-05
6.978489244622311389e+02 4.506243958062410818e-05
6.987493746873436749e+02 4.516751507725485815e-05
6.996498249124562108e+02 4.554278977684515821e-05
7.005502751375687467e+02 4.580992952561836984e-05
7.014507253626812826e+02 4.576482709999740955e-05
7.023511755877938185e+02 4.553873712291190687e-05
7.032516258129064681e+02 4.535998239678606892e-05
7.041520760380190040e+02 4.527840938260651834e-05
7.050525262631315400e+02 4.517949491641179671e-05
7.059529764882440759e+02 4.497841895943512612e-05
7.068534267133566118e+02 4.467261971674299845e-05
7.077538769384691477e+02 4.437653672357281593e-05
7.086543271635817973e+02 4.418981552200475118e-05
7.095547773886943332e+02 4.397131828634256377e-05
7.104552276138068692e+02 4.342765399544438418e-05
7.113556778389194051e+02 4.244840778240254869e-05
7.122561280640319410e+02 4.124692091243076307e-05
7.131565782891445906e+02 4.007614049584684314e-05
7.140570285142571265e+02 3.906336081371265654e-05
7.149574787393696624e+02 3.821930614312903709e-05
7.158579289644821984e+02 3.749601927978688171e-05
7.167583791895947343e+02 3.688080529191363683e-05
7.176588294147072702e+02 3.640256219052607405e-05
7.185592796398199198e+02 3.612966849717136179e-05
7.194597298649324557e+02 3.615194246583953546e-05
7.203601800900449916e+02 3.649629076269426720e-05
7.212606303151575275e+02 3.700986192070493836e-05
7.221610805402700635e+02 3.741383733062287042e-05
7.230615307653827131e+02 3.755344137547778348e-05
7.239619809904952490e+02 3.748816386889714794e-05
7.248624312156077849e+02 3.724941565405441736e-05
7.257628814407203208e+02 3.678779532000078724e-05
7.266633316658328567e+02 3.622995787339778907e-05
7.275637818909453927e+02 3.580316029594772840e-05
7.284642321160580423e+02 3.549314014481983539e-05
7.293646823411705782e+02 3.514197632256682710e-05
7.302651325662831141e+02 3.472578699298181355e-05
7.311655827913956500e+02 3.437675294778640633e-05
7.320660330165081859e+02 3.420588880418636609e-05
7.329664832416207219e+02 3.424038846287588445e-05
7.338669334667333715e+02 3.438968924211140870e-05
7.347673836918459074e+02 3.445016018119124518e-05
7.356678339169584433e+02 3.430283943085909694e-05
7.365682841420709792e+02 3.401653223829373553e-05
7.374687343671835151e+02 3.373076045041808037e-05
7.383691845922961647e+02 3.348279756239850539e-05
7.392696348174087007e+02 3.313577269172408163e-05
7.401700850425212366e+02 3.257090982894764332e-05
7.410705352676337725e+02 3.190813256220719662e-05
7.419709854927463084e+02 3.132569102908292977e-05
7.428714357178588443e+02 3.079301668051984120e-05
7.437718859429714939e+02 3.022232303127897167e-05
7.446723361680840299e+02 2.968641825147962679e-05
7.455727863931965658e+02 2.929948855421688638e-05
7.464732366183091017e+02 2.908972688925487470e-05
7.473736868434216376e+02 2.894830687181576762e-05
7.482741370685342872e+02 2.871214815893582945e-05
7.491745872936468231e+02 2.836798439160307723e-05
7.500750375187593590e+02 2.805573050346113571e-05
7.509754877438718950e+02 2.788802631816191842e-05
7.518759379689844309e+02 2.784907188991233144e-05
7.527763881940969668e+02 2.789554043656754736e-05
7.536768384192096164e+02 2.799902350015397200e-05
7.545772886443221523e+02 2.799453789572197885e-05
7.554777388694346882e+02 2.768626294397423049e-05
7.563781890945472242e+02 2.717214876324747192e-05
7.572786393196597601e+02 2.674377330585557666e-05
7.581790895447722960e+02 2.654996711701801296e-05
7.590795397698849456e+02 2.654473543328418234e-05
7.599799899949974815e+02 2.662448557673364571e-05
7.608804402201100174e+02 2.673077331748228153e-05
7.617808904452225534e+02 2.685997277777701312e-05
7.626813406703350893e+02 2.698166690434009618e-05
7.635817908954477389e+02 2.701983340680770383e-05
7.644822411205602748e+02 2.697816191987256160e-05
7.653826913456728107e+02 2.692944725027656062e-05
7.662831415707853466e+02 2.688969449429833936e-05
7.671835917958978825e+02 2.679801780064197908e-05
7.680840420210104185e+02 2.657300373781598649e-05
7.689844922461230681e+02 2.624638981571673639e-05
7.698849424712356040e+02 2.594409326534274929e-05
7.707853926963481399e+02 2.572034971229185109e-05
7.716858429214606758e+02 2.552923115655741907e-05
7.725862931465732117e+02 2.528186596589916129e-05
7.734867433716858613e+02 2.488196965324107732e-05
7.743871935967983973e+02 2.431853537999379653e-05
7.752876438219109332e+02 2.371793516793838433e-05
7.761880940470234691e+02 2.319019539758756520e-05
7.770885442721360050e+02 2.275710298081985800e-05
7.779889944972485409e+02 2.243024548354950067e-05
7.788894447223611905e+02 2.222552208387889051e-05
7.797898949474737265e+02 2.211748304799388603e-05
7.806903451725862624e+02 2.204392969640176818e-05
7.815907953976987983e+02 2.200107430667776263e-05
7.824912456228113342e+02 2.200048159207213230e-05
7.833916958479238701e+02 2.199023502367368390e-05
7.842921460730365197e+02 2.195021679654878997e-05
7.851925962981490557e+02 2.194456172538230228e-05
7.860930465232615916e+02 2.201744068541401910e-05
7.869934967483741275e+02 2.215844139890746952e-05
7.878939469734866634e+02 2.235335824527116339e-05
7.887943971985993130e+02 2.250839296259112568e-05
7.896948474237118489e+02 2.249112835730501144e-05
7.905952976488243849e+02 2.231114765877903358e-05
7.914957478739369208e+02 2.209102599204505640e-05
7.923961980990494567e+02 2.195283344592545316e-05
7.932966483241619926e+02 2.192294205724051943e-05
7.941970985492746422e+02 2.193669350644491625e-05
7.950975487743871781e+02 2.198419914074481660e-05
7.959979989994997140e+02 2.209736954752097369e-05
7.968984492246122500e+02 2.225401642460833414e-05
7.977988994497247859e+02 2.241177299751623235e-05
7.986993496748374355e+02 2.256567804622926554e-05
7.995997998999499714e+02 2.271153764214709078e-05
8.005002501250625073e+02 2.282144740236535956e-05
8.014007003501750432e+02 2.283894542875326389e-05
8.023011505752875792e+02 2.273162259465231593e-05
8.032016008004001151e+02 2.257595591533205533e-05
8.041020510255127647e+02 2.250318679657853867e-05
8.050025012506253006e+02 2.254511250611222656e-05
8.059029514757378365e+02 2.255735892801616509e-05
8.068034017008503724e+02 2.237312198982602417e-05
8.077038519259629084e+02 2.201162725597172865e-05
8.086043021510754443e+02 2.164333533607170156e-05
8.095047523761880939e+02 2.145914682081585291e-05
8.104052026013006298e+02 2.155977789773777289e-05
8.113056528264131657e+02 2.185843195962181558e-05
8.122061030515257016e+02 2.212932501973342153e-05
8.131065532766382375e+02 2.216734277455026974e-05
8.140070035017508872e+02 2.192907739580393430e-05
8.149074537268634231e+02 2.152078276078728662e-05
8.158079039519759590e+02 2.107532719389276882e-05
8.167083541770884949e+02 2.067114408282469393e-05
8.176088044022010308e+02 2.033826913981335208e-05
8.185092546273135667e+02 2.007471264636746976e-05
8.194097048524262163e+02 1.986891025784691847e-05
8.203101550775387523e+02 1.970431024016910192e-05
8.212106053026512882e+02 1.958001657709418502e-05
8.221110555277638241e+02 1.955867981871549962e-05
8.230115057528763600e+02 1.970724971399336910e-05
8.239119559779890096e+02 1.999883458499307492e-05
8.248124062031015455e+02 2.033305389164610647e-05
8.257128564282140815e+02 2.057908272351678512e-05
8.266133066533266174e+02 2.063065256758572338e-05
8.275137568784391533e+02 2.056303238539916803e-05
8.284142071035516892e+02 2.054533581722201607e-05
8.293146573286643388e+02 2.060942126747540375e-05
8.302151075537768747e+02 2.067251984812189383e-05
8.311155577788894107e+02 2.068614431719270906e-05
8.320160080040019466e+02 2.068144564663176342e-05
8.329164582291144825e+02 2.066354400254525605e-05
8.338169084542270184e+02 2.059395876386446755e-05
8.347173586793396680e+02 2.051294324010282121e-05
8.356178089044522039e+02 2.055234196445283388e-05
8.365182591295647399e+02 2.083541427291632164e-05
8.374187093546772758e+02 2.141467961039114507e-05
8.383191595797898117e+02 2.224933454896697971e-05
8.392196098049024613e+02 2.318461577125250015e-05
8.401200600300149972e+02 2.399411510300175315e-05
8.410205102551275331e+02 2.451145840657548177e-05
8.419209604802400690e+02 2.468417736647766494e-05
8.428214107053526050e+02 2.457064512228114024e-05
8.437218609304651409e+02 2.430640872901221477e-05
8.446223111555777905e+02 2.393475242709939112e-05
8.455227613806903264e+02 2.345159846020018182e-05
8.464232116058028623e+02 2.300741040854635891e-05
8.473236618309153982e+02 2.279113924671599404e-05
8.482241120560279342e+02 2.283828622953823042e-05
8.491245622811405838e+02 2.304876289880251476e-05
8.500250125062531197e+02 2.326256669365425422e-05
8.509254627313656556e+02 2.332064509597157873e-05
8.518259129564781915e+02 2.321149600926099610e-05
8.527263631815907274e+02 2.308351355268267486e-05
8.536268134067032634e+02 2.307089895129356272e-05
8.545272636318159130e+02 2.319398373424965180e-05
8.554277138569284489e+02 2.339044009472845647e-05
8.563281640820409848e+02 2.360592411477402763e-05
8.572286143071535207e+02 2.383700630951201757e-05
8.581290645322660566e+02 2.408790759505397710e-05
8.590295147573785925e+02 2.431603298629949540e-05
8.599299649824912422e+02 2.445367392911205139e-05
8.608304152076037781e+02 2.452443594774717818e-05
8.617308654327163140e+02 2.462623810285173668e-05
8.626313156578288499e+02 2.473061136961517638e-05
8.635317658829413858e+02 2.475224087495160656e-05
8.644322161080540354e+02 2.473316164442771690e-05
8.653326663331665713e+02 2.475954922283231141e-05
8.662331165582791073e+02 2.482524448902572847e-05
8.671335667833916432e+02 2.485712676557541912e-05
8.680340170085041791e+02 2.482467100619454542e-05
8.689344672336167150e+02 2.475585688062014573e-05
8.698349174587293646e+02 2.468916156915143987e-05
8.707353676838419005e+02 2.466269639791824613e-05
8.716358179089544365e+02 2.469415869393452024e-05
8.725362681340669724e+02 2.479084907791217818e-05
8.734367183591795083e+02 2.491835920118547974e-05
8.743371685842921579e+02 2.500627453161230468e-05
8.752376188094046938e+02 2.501084504747228094e-05
8.761380690345172297e+02 2.494811700188145573e-05
8.770385192596297657e+02 2.486552451666357554e-05
8.779389694847423016e+02 2.479548750570115091e-05
8.788394197098548375e+02 2.474051266792646941e-05
8.797398699349674871e+02 2.468425546260780346e-05
8.806403201600800230e+02 2.463980074939881449e-05
8.815407703851925589e+02 2.467022263101156641e-05
8.824412206103050949e+02 2.483126473294971720e-05
8.833416708354176308e+02 2.510688777314103832e-05
8.842421210605301667e+02 2.541762253393468801e-05
8.851425712856428163e+02 2.565780771045557881e-05
8.860430215107553522e+02 2.580203030970270296e-05
8.869434717358678881e+02 2.591012832743559967e-05
8.878439219609804240e+02 2.597482984387466639e-05
8.887443721860929600e+02 2.594370180006973375e-05
8.896448224112056096e+02 2.587804814825049474e-05
8.905452726363181455e+02 2.591900411723743175e-05
8.914457228614306814e+02 2.609554795828953870e-05
8.923461730865432173e+02 2.636159275497729128e-05
8.932466233116557532e+02 2.675057974539236160e-05
8.941470735367682892e+02 2.732075105084125566e-05
8.950475237618809388e+02 2.799668665190179525e-05
8.959479739869934747e+02 2.862017541288076791e-05
8.968484242121060106e+02 2.907465847692963920e-05
8.977488744372185465e+02 2.935476062976556357e-05
8.986493246623310824e+02 2.952142763487907709e-05
8.995497748874437320e+02 2.958661929942363040e-05
9.004502251125562680e+02 2.953732906208242801e-05
9.013506753376688039e+02 2.944105103070804552e-05
9.022511255627813398e+02 2.946031207838611891e-05
9.031515757878938757e+02 2.970617930370352382e-05
9.040520260130064116e+02 3.017486174793159814e-05
9.049524762381190612e+02 3.086565897481017472e-05
9.058529264632315972e+02 3.176022660251936265e-05
9.067533766883441331e+02 3.274902052469308439e-05
9.076538269134566690e+02 3.369047359779230808e-05
9.085542771385692049e+02 3.446764202901685174e-05
9.094547273636817408e+02 3.501734925709131311e-05
9.103551775887943904e+02 3.542088113302104202e-05
9.112556278139069263e+02 3.579714280235815084e-05
9.121560780390194623e+02 3.610589470657556507e-05
9.130565282641319982e+02 3.630622863402575498e-05
9.139569784892445341e+02 3.647315959674462117e-05
9.148574287143571837e+02 3.671859245852575061e-05
9.157578789394697196e+02 3.710008202388842113e-05
9.166583291645822555e+02 3.754625527030858314e-05
9.175587793896947915e+02 3.793507398202943464e-05
9.184592296148073274e+02 3.824094447614788438e-05
9.193596798399198633e+02 3.848772701080433351e-05
9.202601300650325129e+02 3.865838364914072370e-05
9.211605802901450488e+02 3.870078555897193560e-05
9.220610305152575847e+02 3.855661077799265050e-05
9.229614807403701207e+02 3.825187992366361957e-05
9.238619309654826566e+02 3.794254750527251374e-05
9.247623811905953062e+02 3.778371524487261361e-05
9.256628314157078421e+02 3.785180035769908867e-05
9.265632816408203780e+02 3.818076184390876320e-05
9.274637318659329139e+02 3.871399395800395664e-05
9.283641820910454499e+02 3.931781787807350439e-05
9.292646323161579858e+02 3.997999409342832056e-05
9.301650825412706354e+02 4.085661478851764400e-05
9.310655327663831713e+02 4.202639982711828644e-05
9.319659829914957072e+02 4.338190365051384318e-05
9.328664332166082431e+02 4.468236706129650218e-05
9.337668834417207790e+02 4.567480549060400942e-05
9.346673336668334287e+02 4.627255388033854654e-05
9.355677838919459646e+02 4.651598385309282425e-05
9.364682341170585005e+02 4.638709343597296992e-05
9.373686843421710364e+02 4.590590337838829148e-05
9.382691345672835723e+02 4.540273350850326870e-05
9.391695847923961082e+02 4.537432972653097349e-05
9.400700350175087578e+02 4.608492730358557706e-05
9.409704852426212938e+02 4.744880052397385488e-05
9.418709354677338297e+02 4.921076889675102907e-05
9.427713856928463656e+02 5.107607691276843477e-05
9.436718359179589015e+02 5.276102946952099921e-05
9.445722861430714374e+02 5.407718253638989068e-05
9.454727363681840870e+02 5.502111039308334026e-05
9.463731865932966230e+02 5.566804666640576195e-05
9.472736368184091589e+02 5.602185849454225118e-05
9.481740870435216948e+02 5.614158327406536188e-05
9.490745372686342307e+02 5.610067923705923864e-05
9.499749874937468803e+02 5.586376772655363214e-05
9.508754377188594162e+02 5.542536462278403850e-05
9.517758879439719522e+02 5.498423020565161367e-05
9.526763381690844881e+02 5.469730360915467122e-05
9.535767883941970240e+02 5.446502488013465614e-05
9.544772386193095599e+02 5.412193114712326590e-05
9.553776888444222095e+02 5.371592377980282556e-05
9.562781390695347454e+02 5.348203792099480891e-05
9.571785892946472813e+02 5.360063095783955292e-05
9.580790395197598173e+02 5.416519612381955078e-05
9.589794897448723532e+02 5.522705325477870471e-05
9.598799399699850028e+02 5.668395531455830064e-05
9.607803901950975387e+02 5.821934257246555889e-05
9.616808404202100746e+02 5.946325961852480150e-05
9.625812906453226105e+02 6.006926721133064176e-05
9.634817408704351465e+02 5.993215601166634898e-05
9.643821910955476824e+02 5.947507655686734064e-05
9.652826413206603320e+02 5.929446549750947429e-05
9.661830915457728679e+02 5.967819033117374125e-05
9.670835417708854038e+02 6.055070138173031789e-05
9.679839919959979397e+02 6.143901201009989747e-05
9.688844422211104757e+02 6.180357586494052201e-05
9.697848924462230116e+02 6.161321037081123313e-05
9.706853426713356612e+02 6.136056497335536661e-05
9.715857928964481971e+02 6.148975795145965935e-05
9.724862431215607330e+02 6.204241552574679957e-05
9.733866933466732689e+02 6.273738839452046290e-05
9.742871435717858049e+02 6.326430208003073119e-05
9.751875937968984545e+02 6.363248863364975383e-05
9.760880440220109904e+02 6.408736756368525647e-05
9.769884942471235263e+02 6.488689153812926655e-05
9.778889444722360622e+02 6.623619596235533191e-05
9.787893946973485981e+02 6.806071772212277755e-05
9.796898449224611340e+02 7.003181613127696054e-05
9.805902951475737837e+02 7.188291261872767313e-05
9.814907453726863196e+02 7.346573295402738905e-05
9.823911955977988555e+02 7.463833019940407357e-05
9.832916458229113914e+02 7.535241821427171864e-05
9.841920960480239273e+02 7.592252528725982501e-05
9.850925462731365769e+02 7.679622918610152181e-05
9.859929964982491128e+02 7.797422230155171485e-05
9.868934467233616488e+02 7.911376130812564414e-05
9.877938969484741847e+02 8.011362325389955006e-05
9.886943471735867206e+02 8.121925863953182540e-05
9.895947973986992565e+02 8.268492054564472631e-05
9.904952476238119061e+02 8.444025381716347897e-05
9.913956978489244420e+02 8.620936466549699152e-05
9.922961480740369780e+02 8.784000101935522664e-05
9.931965982991495139e+02 8.924890109023415018e-05
9.940970485242620498e+02 9.054946800954308326e-05
9.949974987493745857e+02 9.209948072369133663e-05
9.958979489744872353e+02 9.426076583532882363e-05
9.967983991995997712e+02 9.715227293960702621e-05
9.976988494247123072e+02 1.002625237776641953e-04
9.985992996498248431e+02 1.027414114157060391e-04
9.994997498749373790e+02 1.042451046510979432e-04
1.000400200100050029e+03 1.049759335372168394e-04
1.001300650325162565e+03 1.051848174650616942e-04
1.002201100550275100e+03 1.049357138687789743e-04
1.003101550775387636e+03 1.044285093634738818e-04
1.004002001000500172e+03 1.042612206517881923e-04
1.004902451225612708e+03 1.049872593539025607e-04
1.005802901450725358e+03 1.064843726258076569e-04
1.006703351675837894e+03 1.080932386129112595e-04
1.007603801900950430e+03 1.095778579102260392e-04
1.008504252126062966e+03 1.113382874348514706e-04
1.009404702351175501e+03 1.134885277348866422e-04
1.010305152576288151e+03 1.156894557493713709e-04
1.011205602801400687e+03 1.179687483131562381e-04
1.012106053026513223e+03 1.208840635321212041e-04
1.013006503251625759e+03 1.247030267824260374e-04
1.013906953476738295e+03 1.291818451151782461e-04
1.014807403701850831e+03 1.340080013722003355e-04
1.015707853926963480e+03 1.389991458905552807e-04
1.016608304152076016e+03 1.438917856953807943e-04
1.017508754377188552e+03 1.483104807829985856e-04
1.018409204602301088e+03 1.525091153347348178e-04
1.019309654827413624e+03 1.569908564008023783e-04
1.020210105052526160e+03 1.615367784532846279e-04
1.021110555277638809e+03 1.656078146761023916e-04
1.022011005502751345e+03 1.685539836123360277e-04
1.022911455727863881e+03 1.697128157247862793e-04
1.023811905952976417e+03 1.692541932930258209e-04
1.024712356178089067e+03 1.683757883578159179e-04
1.025612806403201603e+03 1.686131092871815112e-04
1.026513256628314139e+03 1.707640250518656182e-04
1.027413706853426675e+03 1.743899677559493518e-04
1.028314157078539210e+03 1.788336338515976876e-04
1.029214607303651746e+03 1.842319793501379110e-04
1.030115057528764282e+03 1.906473508860364327e-04
1.031015507753876818e+03 1.971830259521729998e-04
1.031915957978989354e+03 2.025789004938703317e-04
1.032816408204101890e+03 2.062488412361817560e-04
1.033716858429214653e+03 2.086943648780770709e-04
1.034617308654327189e+03 2.111630533955697285e-04
1.035517758879439725e+03 2.142699141008457214e-04
1.036418209104552261e+03 2.173196722023581725e-04
1.037318659329664797e+03 2.197327937509180372e-04
1.038219109554777333e+03 2.224549248147014583e-04
1.039119559779889869e+03 2.269711341569668865e-04
1.040020010005002405e+03 2.334855033743779790e-04
1.040920460230114941e+03 2.409442685846027894e-04
1.041820910455227477e+03 2.481093872805322344e-04
1.042721360680340013e+03 2.550428425978186952e-04
1.043621810905452776e+03 2.631488035805841226e-04
1.044522261130565312e+03 2.729250524232861778e-04
1.045422711355677848e+03 2.830811505312567531e-04
1.046323161580790384e+03 2.919382856308566903e-04
1.047223611805902920e+03 2.991209290077606348e-04
1.048124062031015455e+03 3.052508141350300823e-04
1.049024512256127991e+03 3.106479820725566816e-04
1.049924962481240527e+03 3.154489725616795395e-04
1.050825412706353063e+03 3.203849181471469078e-04
1.051725862931465599e+03 3.267357212189205039e-04
1.052626313156578135e+03 3.357015531240595653e-04
1.053526763381690898e+03 3.473037360118693220e-04
1.054427213606803434e+03 3.599034589337834046e-04
1.055327663831915970e+03 3.718564786590966781e-04
1.056228114057028506e+03 3.829693048092347495e-04
1.057128564282141042e+03 3.944827156193051148e-04
1.058029014507253578e+03 4.076627241833872899e-04
1.058929464732366114e+03 4.229023022485990982e-04
1.059829914957478650e+03 4.395545146441105170e-04
1.060730365182591186e+03 4.552594266688322769e-04
1.061630815407703722e+03 4.681834588438098439e-04
1.062531265632816257e+03 4.797921526924074274e-04
1.063431715857929021e+03 4.916830782699229069e-04
1.064332166083041557e+03 5.024787948075075655e-04
1.065232616308154093e+03 5.100381842997761626e-04
1.066133066533266629e+03 5.138868298375536730e-04
1.067033516758379164e+03 5.158071918958781650e-04
1.067933966983491700e+03 5.181966147810891654e-04
1.068834417208604236e+03 5.211574900787412177e-04
1.069734867433716772e+03 5.233675755015441576e-04
1.070635317658829308e+03 5.246044002573616721e-04
1.071535767883941844e+03 5.253665513782284323e-04
1.072436218109054380e+03 5.254178199004264430e-04
1.073336668334167143e+03 5.247251403139048921e-04
1.074237118559279679e+03 5.243697934766521204e-04
1.075137568784392215e+03 5.259056411266430000e-04
1.076038019009504751e+03 5.288667274882984581e-04
1.076938469234617287e+03 5.313898594455638202e-04
1.077838919459729823e+03 5.337687421651472666e-04
1.078739369684842359e+03 5.385871114174187874e-04
1.079639819909954895e+03 5.478982710471162884e-04
1.080540270135067431e+03 5.603336143725077189e-04
1.081440720360179967e+03 5.715298805376179542e-04
1.082341170585292502e+03 5.778925878628511604e-04
1.083241620810405038e+03 5.796182235582247270e-04
1.084142071035517802e+03 5.801020007383670329e-04
1.085042521260630338e+03 5.815813007372895235e-04
1.085942971485742873e+03 5.827952015530143970e-04
1.086843421710855409e+03 5.832402333144924610e-04
1.087743871935967945e+03 5.848575155546286526e-04
1.088644322161080481e+03 5.884467147204870685e-04
1.089544772386193017e+03 5.933080425295163317e-04
1.090445222611305553e+03 5.983590009333639766e-04
1.091345672836418089e+03 6.022866937960588522e-04
1.092246123061530625e+03 6.049195236623216079e-04
1.093146573286643161e+03 6.075749442691569463e-04
1.094047023511755924e+03 6.127604643719713855e-04
1.094947473736868460e+03 6.212976423026462212e-04
1.095847923961980996e+03 6.301606745505813510e-04
1.096748374187093532e+03 6.363617908202816569e-04
1.097648824412206068e+03 6.395551356232032992e-04
1.098549274637318604e+03 6.398260223989415572e-04
1.099449724862431140e+03 6.372852494681268418e-04
1.100350175087543676e+03 6.337594436032698009e-04
1.101250625312656211e+03 6.296424394142869935e-04
1.102151075537768747e+03 6.219755057552652303e-04
1.103051525762881283e+03 6.087607515652061936e-04
1.103951975987994047e+03 5.915941862834406869e-04
1.104852426213106583e+03 5.736861115861715188e-04
1.105752876438219118e+03 5.582696615162454452e-04
1.106653326663331654e+03 5.477049371768014270e-04
1.107553776888444190e+03 5.434142937288681443e-04
1.108454227113556726e+03 5.441356335260480893e-04
1.109354677338669262e+03 5.442371586775036863e-04
1.110255127563781798e+03 5.383290164736312042e-04
1.111155577788894334e+03 5.259326452873496014e-04
1.112056028014006870e+03 5.093526308799163670e-04
1.112956478239119406e+03 4.906791126812278967e-04
1.113856928464232169e+03 4.709775486230214432e-04
1.114757378689344705e+03 4.503674904058941361e-04
1.115657828914457241e+03 4.302522752542699519e-04
1.116558279139569777e+03 4.125593472625012576e-04
1.117458729364682313e+03 3.979098973710663996e-04
1.118359179589794849e+03 3.857785516649496482e-04
1.119259629814907385e+03 3.751859526496519200e-04
1.120160080040019920e+03 3.658547051557057834e-04
1.121060530265132456e+03 3.574206855102379332e-04
1.121960980490244992e+03 3.485031018917490600e-04
1.122861430715357528e+03 3.376045535570381274e-04
1.123761880940470292e+03 3.243989491141450717e-04
1.124662331165582827e+03 3.100858793793909033e-04
1.125562781390695363e+03 2.963098692510125038e-04
1.126463231615807899e+03 2.842970802330291292e-04
1.127363681840920435e+03 2.750339848128376097e-04
1.128264132066032971e+03 2.690172383869131583e-04
1.129164582291145507e+03 2.654999365668268461e-04
1.130065032516258043e+03 2.628086304723311435e-04
1.130965482741370579e+03 2.596846180837791883e-04
1.131865932966483115e+03 2.560075822599672279e-04
1.132766383191595651e+03 2.521115833765155104e-04
1.133666833416708187e+03 2.474976613163177392e-04
1.134567283641820950e+03 2.400503924847580258e-04
1.135467733866933486e+03 2.289044999398019481e-04
1.136368184092046022e+03 2.162647865683955419e-04
1.137268634317158558e+03 2.046651820844642663e-04
1.138169084542271094e+03 1.943976769458756731e-04
1.139069534767383630e+03 1.843842538470172473e-04
1.139969984992496165e+03 1.742878122599096353e-04
1.140870435217608701e+03 1.646439168514445537e-04
1.141770885442721237e+03 1.558683481858242270e-04
1.142671335667833773e+03 1.479424874043560256e-04
1.143571785892946309e+03 1.408899334059752052e-04
1.144472236118059072e+03 1.347946265853463904e-04
1.145372686343171608e+03 1.294535880109339932e-04
1.146273136568284144e+03 1.246362527240268904e-04
1.147173586793396680e+03 1.200661554661220439e-04
1.148074037018509216e+03 1.153365175158144851e-04
1.148974487243621752e+03 1.102936884427797897e-04
1.149874937468734288e+03 1.051701638885436165e-04
1.150775387693846824e+03 1.003932032503038478e-04
1.151675837918959360e+03 9.641121306450997337e-05
1.152576288144071896e+03 9.345185871250671103e-05
1.153476738369184432e+03 9.119462922180142036e-05
1.154377188594297195e+03 8.897423484260776831e-05
1.155277638819409731e+03 8.641915908346830925e-05
1.156178089044522267e+03 8.366641625070489257e-05
1.157078539269634803e+03 8.092297729381920345e-05
1.157978989494747339e+03 7.823314483510390629e-05
1.158879439719859874e+03 7.561901513810123079e-05
1.159779889944972410e+03 7.318738468101379795e-05
1.160680340170084946e+03 7.110958075107412925e-05
1.161580790395197482e+03 6.953417584229957204e-05
1.162481240620310018e+03 6.852204864767732280e-05
1.163381690845422554e+03 6.808924542111133543e-05
1.164282141070535317e+03 6.828851291467983903e-05
1.165182591295647853e+03 6.915269010984132045e-05
1.166083041520760389e+03 7.068409387506435467e-05
1.166983491745872925e+03 7.283562140358085712e-05
1.167883941970985461e+03 7.535328659097390209e-05
1.168784392196097997e+03 7.779464173320525236e-05
1.169684842421210533e+03 7.980307496327333576e-05
1.170585292646323069e+03 8.133703012744743623e-05
1.171485742871435605e+03 8.240098736857646359e-05
1.172386193096548141e+03 8.284678153206336199e-05
1.173286643321660677e+03 8.281110831743071228e-05
1.174187093546773440e+03 8.274925439948737358e-05
1.175087543771885976e+03 8.293913722258781191e-05
1.175987993996998512e+03 8.341604890604074559e-05
1.176888444222111048e+03 8.423991736322302803e-05
1.177788894447223583e+03 8.546385267754924608e-05
1.178689344672336119e+03 8.697175642022003076e-05
1.179589794897448655e+03 8.851495043578403007e-05
1.180490245122561191e+03 9.004134459180227759e-05
1.181390695347673727e+03 9.182679465625404622e-05
1.182291145572786263e+03 9.426377465127312911e-05
1.183191595797898799e+03 9.751792138946978881e-05
1.184092046023011562e+03 1.013366272217573137e-04
1.184992496248124098e+03 1.054482785860999327e-04
1.185892946473236634e+03 1.096706889496462867e-04
1.186793396698349170e+03 1.138150780741541503e-04
1.187693846923461706e+03 1.177962808295870376e-04
1.188594297148574242e+03 1.216847755145709459e-04
1.189494747373686778e+03 1.255774265760870967e-04
1.190395197598799314e+03 1.291791316294733168e-04
1.191295647823911850e+03 1.320791515068666841e-04
1.192196098049024386e+03 1.343810238862969250e-04
1.193096548274136921e+03 1.363187243865146580e-04
1.193996998499249457e+03 1.379114249543563733e-04
1.194897448724362221e+03 1.393245565947797836e-04
1.195797898949474757e+03 1.409228441716216338e-04
1.196698349174587293e+03 1.430941828093931886e-04
1.197598799399699828e+03 1.458371522394222742e-04
1.198499249624812364e+03 1.485286536170654583e-04
1.199399699849924900e+03 1.507020673205788344e-04
1.200300150075037436e+03 1.525945558817820753e-04
1.201200600300149972e+03 1.546714889130992117e-04
1.202101050525262508e+03 1.572836899624023479e-04
1.203001500750375044e+03 1.606572663165043346e-04
1.203901950975487580e+03 1.648640573720020592e-04
1.204802401200600343e+03 1.695297010790073168e-04
1.205702851425712879e+03 1.740788738266786683e-04
1.206603301650825415e+03 1.781890997227709593e-04
1.207503751875937951e+03 1.817631483777820537e-04
1.208404202101050487e+03 1.847916161046191043e-04
1.209304652326163023e+03 1.874135792444022429e-04
1.210205102551275559e+03 1.899275353223261532e-04
1.211105552776388095e+03 1.919433074022305441e-04
1.212006003001500630e+03 1.931628019730196547e-04
1.212906453226613166e+03 1.945332165275709814e-04
1.213806903451725702e+03 1.971712179071520663e-04
1.214707353676838466e+03 2.015885986478136078e-04
1.215607803901951002e+03 2.075800916037909738e-04
1.216508254127063537e+03 2.142592563690415384e-04
1.217408704352176073e+03 2.207706467199091948e-04
1.218309154577288609e+03 2.268303769949301415e-04
1.219209604802401145e+03 2.321051520355022716e-04
1.220110055027513681e+03 2.361836503131120341e-04
1.221010505252626217e+03 2.394689291264555202e-04
1.221910955477738753e+03 2.432325400052816387e-04
1.222811405702851289e+03 2.488527688000407006e-04
1.223711855927963825e+03 2.566794689714040284e-04
1.224612306153076588e+03 2.655460506694547651e-04
1.225512756378189124e+03 2.742545296513297735e-04
1.226413206603301660e+03 2.826290079296870793e-04
1.227313656828414196e+03 2.906762138146602248e-04
1.228214107053526732e+03 2.992124826667068760e-04
1.229114557278639268e+03 3.099759906656980612e-04
1.230015007503751804e+03 3.235559821959403041e-04
1.230915457728864340e+03 3.389870260128528541e-04
1.231815907953976875e+03 3.544991758286480097e-04
1.232716358179089411e+03 3.688460531717648277e-04
1.233616808404201947e+03 3.822659015839353436e-04
1.234517258629314711e+03 3.961081377035846965e-04
1.235417708854427246e+03 4.116659954994270564e-04
1.236318159079539782e+03 4.293022437911276972e-04
1.237218609304652318e+03 4.487170175223212203e-04
1.238119059529764854e+03 4.689457880221023956e-04
1.239019509754877390e+03 4.879453710330025986e-04
1.239919959979989926e+03 5.042365541869980785e-04
1.240820410205102462e+03 5.191433394183306944e-04
1.241720860430214998e+03 5.349378616104676293e-04
1.242621310655327534e+03 5.520438066968585099e-04
1.243521760880440070e+03 5.690695574679593364e-04
1.244422211105552606e+03 5.842111248078744922e-04
1.245322661330665369e+03 5.963983651103193021e-04
1.246223111555777905e+03 6.061499985700790011e-04
1.247123561780890441e+03 6.152475159759881454e-04
1.248024012006002977e+03 6.242761060294845605e-04
1.248924462231115513e+03 6.320397651295003773e-04
1.249824912456228049e+03 6.376685782892103352e-04
1.250725362681340584e+03 6.412026584539877363e-04
1.251625812906453120e+03 6.427070416981738423e-04
1.252526263131565656e+03 6.422109460688840872e-04
1.253426713356678192e+03 6.398569884869265969e-04
1.254327163581790728e+03 6.365306562012611408e-04
1.255227613806903491e+03 6.341121490298224890e-04
1.256128064032016027e+03 6.345336499330330154e-04
1.257028514257128563e+03 6.386913582217007166e-04
1.257928964482241099e+03 6.454201554846693669e-04
1.258829414707353635e+03 6.533095566093449075e-04
1.259729864932466171e+03 6.621279657228222246e-04
1.260630315157578707e+03 6.715691268026518276e-04
1.261530765382691243e+03 6.810719322551067687e-04
1.262431215607803779e+03 6.903487696391155930e-04
1.263331665832916315e+03 6.987739614582943537e-04
1.264232116058028851e+03 7.064631097567913853e-04
1.265132566283141614e+03 7.147864430727901780e-04
1.266033016508254150e+03 7.245462062008705718e-04
1.266933466733366686e+03 7.357647790462599818e-04
1.267833916958479222e+03 7.479985954565804632e-04
1.268734367183591758e+03 7.594900359621327207e-04
1.269634817408704293e+03 7.679305787492747429e-04
1.270535267633816829e+03 7.737394378073633467e-04
1.271435717858929365e+03 7.801607104476554694e-04
1.272336168084041901e+03 7.892974930975362206e-04
1.273236618309154437e+03 8.007367504003696894e-04
1.274137068534266973e+03 8.128897010871980779e-04
1.275037518759379736e+03 8.239059049028109880e-04
1.275937968984492272e+03 8.336632660539436369e-04
1.276838419209604808e+03 8.446914199639505043e-04
1.277738869434717344e+03 8.588929288791591257e-04
1.278639319659829880e+03 8.757597353803484551e-04
1.279539769884942416e+03 8.944576594394528912e-04
1.280440220110054952e+03 9.147759715363580320e-04
1.281340670335167488e+03 9.364850491753869913e-04
1.282241120560280024e+03 9.592164701393070822e-04
1.283141570785392560e+03 9.818884472687300705e-04
1.284042021010505096e+03 1.003951787853439711e-03
1.284942471235617859e+03 1.025580856514250261e-03
1.285842921460730395e+03 1.045953697094109507e-03
1.286743371685842931e+03 1.064501138729014420e-03
1.287643821910955467e+03 1.081927454997694141e-03
1.288544272136068003e+03 1.098957833945221271e-03
1.289444722361180538e+03 1.114597633163720179e-03
1.290345172586293074e+03 1.126650609027672568e-03
1.291245622811405610e+03 1.135532253532105544e-03
1.292146073036518146e+03 1.143679262551927991e-03
1.293046523261630682e+03 1.152683615571588761e-03
1.293946973486743218e+03 1.162393781271741592e-03
1.294847423711855754e+03 1.171168527909632233e-03
1.295747873936968517e+03 1.177418415524058258e-03
1.296648324162081053e+03 1.181109533216189366e-03
1.297548774387193589e+03 1.184257665242284411e-03
1.298449224612306125e+03 1.189891208952990539e-03
1.299349674837418661e+03 1.199326121115831681e-03
1.300250125062531197e+03 1.210322652925661024e-03
1.301150575287643733e+03 1.220263172090483000e-03
1.302051025512756269e+03 1.229579493591044514e-03
1.302951475737868805e+03 1.239869134500559559e-03
1.303851925962981340e+03 1.252089362943821765e-03
1.304752376188093876e+03 1.267498851333046309e-03
1.305652826413206640e+03 1.287474499001157492e-03
1.306553276638319176e+03 1.311877960919405166e-03
1.307453726863431712e+03 1.339143346145180548e-03
1.308354177088544247e+03 1.367726579680771798e-03
1.309254627313656783e+03 1.396535273697029414e-03
1.310155077538769319e+03 1.424837917988161810e-03
1.311055527763881855e+03 1.452392563623945742e-03
1.311955977988994391e+03 1.480610694645607137e-03
1.312856428214106927e+03 1.511984476026723969e-03
1.313756878439219463e+03 1.547586792103385154e-03
1.314657328664331999e+03 1.586129199219484800e-03
1.315557778889444762e+03 1.626434819481872938e-03
1.316458229114557298e+03 1.669918516895697088e-03
1.317358679339669834e+03 1.717324768691269599e-03
1.318259129564782370e+03 1.766498842997213294e-03
1.319159579789894906e+03 1.815434154301937214e-03
1.320060030015007442e+03 1.863793913576869844e-03
1.320960480240119978e+03 1.911352631396470757e-03
1.321860930465232514e+03 1.957954059573583511e-03
1.322761380690345050e+03 2.005967770410516625e-03
1.323661830915457585e+03 2.057907942921126040e-03
1.324562281140570121e+03 2.113373276909952421e-03
1.325462731365682885e+03 2.171655721613993152e-03
1.326363181590795421e+03 2.235446272330162201e-03
1.327263631815907956e+03 2.307871075035818238e-03
1.328164082041020492e+03 2.388050724279569114e-03
1.329064532266133028e+03 2.472503604744226077e-03
1.329964982491245564e+03 2.557053091935176155e-03
1.330865432716358100e+03 2.635628949208084632e-03
1.331765882941470636e+03 2.703006032330385316e-03
1.332666333166583172e+03 2.760399440158383885e-03
1.333566783391695708e+03 2.813301528627203466e-03
1.334467233616808244e+03 2.865177802836296576e-03
1.335367683841921007e+03 2.918205812606842163e-03
1.336268134067033543e+03 2.973876716769976135e-03
1.337168584292146079e+03 3.031780936560798077e-03
1.338069034517258615e+03 3.094885312500312430e-03
1.338969484742371151e+03 3.167905266755642688e-03
1.339869934967483687e+03 3.250565336665592071e-03
1.340770385192596223e+03 3.341929281381455889e-03
1.341670835417708759e+03 3.445751562631550659e-03
1.342571285642821294e+03 3.570365418134625272e-03
1.343471735867933830e+03 3.718230085732554188e-03
1.344372186093046366e+03 3.878732652187232358e-03
1.345272636318158902e+03 4.035871397049290051e-03
1.346173086543271666e+03 4.182328889766885084e-03
1.347073536768384201e+03 4.321580550397461327e-03
1.347973986993496737e+03 4.456408949694541134e-03
1.348874437218609273e+03 4.586824827793465481e-03
1.349774887443721809e+03 4.720335613051226953e-03
1.350675337668834345e+03 4.869665919208765112e-03
1.351575787893946881e+03 5.037510914181574442e-03
1.352476238119059417e+03 5.221355085533321318e-03
1.353376688344171953e+03 5.428475024827510154e-03
1.354277138569284489e+03 5.674267077116202512e-03
1.355177588794397025e+03 5.959181083052306378e-03
1.356078039019509788e+03 6.265102743390960592e-03
1.356978489244622324e+03 6.575075356422368719e-03
1.357878939469734860e+03 6.883188216708009330e-03
1.358779389694847396e+03 7.190648063187189860e-03
1.359679839919959932e+03 7.502841254370896419e-03
1.360580290145072468e+03 7.810876432636954490e-03
1.361480740370185003e+03 8.100436141285366140e-03
1.362381190595297539e+03 8.389748918634072281e-03
1.363281640820410075e+03 8.706326538326057685e-03
1.364182091045522611e+03 9.039861521686105503e-03
1.365082541270635147e+03 9.362887490510700059e-03
1.365982991495747910e+03 9.673614426904448074e-03
1.366883441720860446e+03 9.992095497751367350e-03
1.367783891945972982e+03 1.034620249142222462e-02
1.368684342171085518e+03 1.075470901546250573e-02
1.369584792396198054e+03 1.120716433793109840e-02
1.370485242621310590e+03 1.169136881677768254e-02
1.371385692846423126e+03 1.221517464339493507e-02
1.372286143071535662e+03 1.278831188092242541e-02
1.373186593296648198e+03 1.341870998209555681e-02
1.374087043521760734e+03 1.410609185773160391e-02
1.374987493746873270e+03 1.481021055372891242e-02
1.375887943971986033e+03 1.546175424663545628e-02
1.376788394197098569e+03 1.603337448692727582e-02
1.377688844422211105e+03 1.657163892402221603e-02
1.378589294647323641e+03 1.714442340788558533e-02
1.379489744872436177e+03 1.779416790726691053e-02
1.380390195097548713e+03 1.852621436006349209e-02
1.381290645322661248e+03 1.931341973718822547e-02
1.382191095547773784e+03 2.016948512113800676e-02
1.383091545772886320e+03 2.118053419305788651e-02
1.383991995997998856e+03 2.242750788297466838e-02
1.384892446223111392e+03 2.391132541080059903e-02
1.385792896448224155e+03 2.555987214526035667e-02
1.386693346673336691e+03 2.732032861772248911e-02
1.387593796898449227e+03 2.922646310798192315e-02
1.388494247123561763e+03 3.128211637966252234e-02
1.389394697348674299e+03 3.339810735555651111e-02
1.390295147573786835e+03 3.551446345630256129e-02
1.391195597798899371e+03 3.764619020836297569e-02
1.392096048024011907e+03 3.980259071972080259e-02
1.392996498249124443e+03 4.194344789666287071e-02
1.393896948474236979e+03 4.397153279011583454e-02
1.394797398699349515e+03 4.578504844895867065e-02
1.395697848924462278e+03 4.736920556883408157e-02
1.396598299149574814e+03 4.872817013891529714e-02
1.397498749374687350e+03 4.967556003136618797e-02
1.398399199599799886e+03 4.988465180429928897e-02
1.399299649824912422e+03 4.923381538365909776e-02
1.400200100050024957e+03 4.789022278924655318e-02
1.401100550275137493e+03 4.608617390030329136e-02
1.402001000500250029e+03 4.398854372694956105e-02
1.402901450725362565e+03 4.165166678086201085e-02
1.403801900950475101e+03 3.913084989453156221e-02
1.404702351175587637e+03 3.650979829128972454e-02
1.405602801400700173e+03 3.382590590230170891e-02
1.406503251625812936e+03 3.105004161721629935e-02
1.407403701850925472e+03 2.813489486743932233e-02
1.408304152076038008e+03 2.517565620465253909e-02
1.409204602301150544e+03 2.236890810714222202e-02
1.410105052526263080e+03 1.984748912972989290e-02
1.411005502751375616e+03 1.766766300837293788e-02
1.411905952976488152e+03 1.583661537104114753e-02
1.412806403201600688e+03 1.430770988895943042e-02
1.413706853426713224e+03 1.298746761130526936e-02
1.414607303651825760e+03 1.179245236990571731e-02
1.415507753876938295e+03 1.069456315553705961e-02
1.416408204102051059e+03 9.706019923920030518e-03
1.417308654327163595e+03 8.846551016565073339e-03
1.418209104552276131e+03 8.132277513158144705e-03
1.419109554777388666e+03 7.557648962643863204e-03
1.420010005002501202e+03 7.093417536024485513e-03
1.420910455227613738e+03 6.707501456129434832e-03
1.421810905452726274e+03 6.376720085663899369e-03
1.422711355677838810e+03 6.074604785277142732e-03
1.423611805902951346e+03 5.769006711532749521e-03
1.424512256128063882e+03 5.447920786409152401e-03
1.425412706353176418e+03 5.134020338697934706e-03
1.426313156578289181e+03 4.859188235608555631e-03
1.427213606803401717e+03 4.629071222961249517e-03
1.428114057028514253e+03 4.426313707217707435e-03
1.429014507253626789e+03 4.236412311378656530e-03
1.429914957478739325e+03 4.054751031928017189e-03
1.430815407703851861e+03 3.876295447040423430e-03
1.431715857928964397e+03 3.694967468303612425e-03
1.432616308154076933e+03 3.515417217404392079e-03
1.433516758379189469e+03 3.350440858813338255e-03
1.434417208604302004e+03 3.208218562158465705e-03
1.435317658829414540e+03 3.088148924990266001e-03
1.436218109054527304e+03 2.985005742372123187e-03
1.437118559279639840e+03 2.894579105678186243e-03
1.438019009504752376e+03 2.810686381607621544e-03
1.438919459729864911e+03 2.725040078256501293e-03
1.439819909954977447e+03 2.636638191623773882e-03
1.440720360180089983e+03 2.548542165983615302e-03
1.441620810405202519e+03 2.462649212257896503e-03
1.442521260630315055e+03 2.377782962765906220e-03
1.443421710855427591e+03 2.291688325990255248e-03
1.444322161080540127e+03 2.208522342477221151e-03
1.445222611305652663e+03 2.135241289270639956e-03
1.446123061530765426e+03 2.074555424338745627e-03
1.447023511755877962e+03 2.025937847478190713e-03
1.447923961980990498e+03 1.986353868378804791e-03
1.448824412206103034e+03 1.951490799304754281e-03
1.449724862431215570e+03 1.917961745066457243e-03
1.450625312656328106e+03 1.881836883722094863e-03
1.451525762881440642e+03 1.841483830598782991e-03
1.452426213106553178e+03 1.798977342445460224e-03
1.453326663331665713e+03 1.758231154849643381e-03
1.454227113556778249e+03 1.724893543046433038e-03
1.455127563781890785e+03 1.700365982506881531e-03
1.456028014007003321e+03 1.679447074922189040e-03
1.456928464232116085e+03 1.656199420909048410e-03
1.457828914457228620e+03 1.624110284610974985e-03
1.458729364682341156e+03 1.576805466883671831e-03
1.459629814907453692e+03 1.516455364644751997e-03
1.460530265132566228e+03 1.453586437989693543e-03
1.461430715357678764e+03 1.397990801565460704e-03
1.462331165582791300e+03 1.352274600813285939e-03
1.463231615807903836e+03 1.312667959529793078e-03
1.464132066033016372e+03 1.274479577421737181e-03
1.465032516258128908e+03 1.236645730741017801e-03
1.465932966483241444e+03 1.200471481617504388e-03
1.466833416708354207e+03 1.167259348011015756e-03
1.467733866933466743e+03 1.137731764672491675e-03
1.468634317158579279e+03 1.111772648758210151e-03
1.469534767383691815e+03 1.087558403306010954e-03
1.470435217608804351e+03 1.061633410330232443e-03
1.471335667833916887e+03 1.032475607152780238e-03
1.472236118059029423e+03 1.001648009595521808e-03
1.473136568284141958e+03 9.722847893839048307e-04
1.474037018509254494e+03 9.464972789084562547e-04
1.474937468734367030e+03 9.238573957255426542e-04
1.475837918959479566e+03 9.036127387949443104e-04
1.476738369184592329e+03 8.857915970265896550e-04
1.477638819409704865e+03 8.716709961908675978e-04
1.478539269634817401e+03 8.642089608535754057e-04
1.479439719859929937e+03 8.640100438006980028e-04
1.480340170085042473e+03 8.674995755914762657e-04
1.481240620310155009e+03 8.699050633520675428e-04
1.482141070535267545e+03 8.687512012891681311e-04
1.483041520760380081e+03 8.656896734822406778e-04
1.483941970985492617e+03 8.633829742069617326e-04
1.484842421210605153e+03 8.610919372307394414e-04
1.485742871435717689e+03 8.570652774310075911e-04
1.486643321660830452e+03 8.507828759693646581e-04
1.487543771885942988e+03 8.405699545358244007e-04
1.488444222111055524e+03 8.246323039483457150e-04
1.489344672336168060e+03 8.041803312360101255e-04
1.490245122561280596e+03 7.821072475813939558e-04
1.491145572786393132e+03 7.610745583541808548e-04
1.492046023011505667e+03 7.430321378682215290e-04
1.492946473236618203e+03 7.279483514421578906e-04
1.493846923461730739e+03 7.139128107312377094e-04
1.494747373686843275e+03 6.998564125307143438e-04
1.495647823911955811e+03 6.867058299900011178e-04
1.496548274137068574e+03 6.751510147889896139e-04
1.497448724362181110e+03 6.652990981514694292e-04
1.498349174587293646e+03 6.568257643942449365e-04
1.499249624812406182e+03 6.486267553247855935e-04
1.500150075037518718e+03 6.411780231563846393e-04
1.501050525262631254e+03 6.354989634325626437e-04
1.501950975487743790e+03 6.311939009297632460e-04
1.502851425712856326e+03 6.269505686659069318e-04
1.503751875937968862e+03 6.214010935058215165e-04
1.504652326163081398e+03 6.147884581913571527e-04
1.505552776388193934e+03 6.087086436443768511e-04
1.506453226613306470e+03 6.046645722047496027e-04
1.507353676838419233e+03 6.023024618808001888e-04
1.508254127063531769e+03 5.985327853962816832e-04
1.509154577288644305e+03 5.915256805154628546e-04
1.510055027513756841e+03 5.827760055653101673e-04
1.510955477738869376e+03 5.748101265168092163e-04
1.511855927963981912e+03 5.686149705693806710e-04
1.512756378189094448e+03 5.637349726533962815e-04
1.513656828414206984e+03 5.598139585245928565e-04
1.514557278639319520e+03 5.563488535483788067e-04
1.515457728864432056e+03 5.522320444256871358e-04
1.516358179089544592e+03 5.464754890217901184e-04
1.517258629314657355e+03 5.392071960294823494e-04
1.518159079539769891e+03 5.318456981124086757e-04
1.519059529764882427e+03 5.266676745892774278e-04
1.519959979989994963e+03 5.245779851368731483e-04
1.520860430215107499e+03 5.241009223059618551e-04
1.521760880440220035e+03 5.240764956020381969e-04
1.522661330665332571e+03 5.242118698235014333e-04
1.523561780890445107e+03 5.232257229581473330e-04
1.524462231115557643e+03 5.200197218008742071e-04
1.525362681340670179e+03 5.150103993658111364e-04
1.526263131565782714e+03 5.090038762542116110e-04
1.527163581790895478e+03 5.023200428595289702e-04
1.528064032016008014e+03 4.948436021914749813e-04
1.528964482241120550e+03 4.855727108182621393e-04
1.529864932466233086e+03 4.735472055568204237e-04
1.530765382691345621e+03 4.595323894099661503e-04
1.531665832916458157e+03 4.458931564685255765e-04
1.532566283141570693e+03 4.347330740251842299e-04
1.533466733366683229e+03 4.266107360777676499e-04
1.534367183591795765e+03 4.209818999756850268e-04
1.535267633816908301e+03 4.170717036602894653e-04
1.536168084042020837e+03 4.137764894377968542e-04
1.537068534267133600e+03 4.106603249998927495e-04
1.537968984492246136e+03 4.087263252060812919e-04
1.538869434717358672e+03 4.080971542706406476e-04
1.539769884942471208e+03 4.068689234111622132e-04
1.540670335167583744e+03 4.035319322524580604e-04
1.541570785392696280e+03 3.989691565609854162e-04
1.542471235617808816e+03 3.949394356644381947e-04
1.543371685842921352e+03 3.919748278083469472e-04
1.544272136068033888e+03 3.893513344372678299e-04
1.545172586293146423e+03 3.872288481580742504e-04
1.546073036518258959e+03 3.875283122218316613e-04
1.546973486743371723e+03 3.912224859036261891e-04
1.547873936968484259e+03 3.971486111502459701e-04
1.548774387193596795e+03 4.034338138506927008e-04
1.549674837418709330e+03 4.085155844461770837e-04
1.550575287643821866e+03 4.117040851894329689e-04
1.551475737868934402e+03 4.129727942953448860e-04
1.552376188094046938e+03 4.128676190735658781e-04
1.553276638319159474e+03 4.131490241540433195e-04
1.554177088544272010e+03 4.151498126628726162e-04
1.555077538769384546e+03 4.180299085944683721e-04
1.555977988994497082e+03 4.193115303621872841e-04
1.556878439219609618e+03 4.171737456735229947e-04
1.557778889444722381e+03 4.117064171229281762e-04
1.558679339669834917e+03 4.049385936616337186e-04
1.559579789894947453e+03 3.996670905010043487e-04
1.560480240120059989e+03 3.975220126127552750e-04
1.561380690345172525e+03 3.988121208149548991e-04
1.562281140570285061e+03 4.028229130201602896e-04
1.563181590795397597e+03 4.074039327385594873e-04
1.564082041020510133e+03 4.107040555513633852e-04
1.564982491245622668e+03 4.126188105988911367e-04
1.565882941470735204e+03 4.136897716916682110e-04
1.566783391695847740e+03 4.140458526665761639e-04
1.567683841920960504e+03 4.123243429651234147e-04
1.568584292146073039e+03 4.045652103857100062e-04
1.569484742371185575e+03 3.877380945756769273e-04
1.570385192596298111e+03 3.630555822559403340e-04
1.571285642821410647e+03 3.331094773963239682e-04
1.572186093046523183e+03 3.000958291702665788e-04
1.573086543271635719e+03 2.665027124512303397e-04
1.573986993496748255e+03 2.345746807294328182e-04
1.574887443721860791e+03 2.052795036687172180e-04
1.575787893946973327e+03 1.790519162335094225e-04
1.576688344172085863e+03 1.565363678353918185e-04
1.577588794397198626e+03 1.380999536747386876e-04
1.578489244622311162e+03 1.235493211078052007e-04
1.579389694847423698e+03 1.122464806479324205e-04
1.580290145072536234e+03 1.034204481304925894e-04
1.581190595297648770e+03 9.640842170310691221e-05
1.582091045522761306e+03 9.071957640962583695e-05
1.582991495747873842e+03 8.600899141142652644e-05
1.583891945972986377e+03 8.203594900852508075e-05
1.584792396198098913e+03 7.863043508350252145e-05
1.585692846423211449e+03 7.567011865743175235e-05
1.586593296648323985e+03 7.306519839574196604e-05
1.587493746873436749e+03 7.074846443186283494e-05
1.588394197098549284e+03 6.866870513253986908e-05
1.589294647323661820e+03 6.678625704678304957e-05
1.590195097548774356e+03 6.506994420474398295e-05
1.591095547773886892e+03 6.349493320991717797e-05
1.591995997998999428e+03 6.204120306829004566e-05
1.592896448224111964e+03 6.069243524409428632e-05
1.593796898449224500e+03 5.943519604334369791e-05
1.594697348674337036e+03 5.825832573075130129e-05
1.595597798899449572e+03 5.715247611232779004e-05
1.596498249124562108e+03 5.610975627133169268e-05
1.597398699349674871e+03 5.512345814025772608e-05
1.598299149574787407e+03 5.418784173254695966e-05
1.599199599799899943e+03 5.329796546630936541e-05
1.600100050025012479e+03 5.244955093104802769e-05
1.601000500250125015e+03 5.163887422272234656e-05
1.601900950475237551e+03 5.086267796108234947e-05
1.602801400700350086e+03 5.011809954523637639e-05
1.603701850925462622e+03 4.940261226044874649e-05
1.604602301150575158e+03 4.871397663198638199e-05
1.605502751375687694e+03 4.805020000708695136e-05
1.606403201600800230e+03 4.740950278767402975e-05
1.607303651825912766e+03 4.679029007235175616e-05
1.608204102051025529e+03 4.619112772385482022e-05
1.609104552276138065e+03 4.561072207719888815e-05
1.610005002501250601e+03 4.504790265869411256e-05
1.610905452726363137e+03 4.450160740737448554e-05
1.611805902951475673e+03 4.397086998610584823e-05
1.612706353176588209e+03 4.345480884556440689e-05
1.613606803401700745e+03 4.295261776486277491e-05
1.614507253626813281e+03 4.246355764120671275e-05
1.615407703851925817e+03 4.198694934016872655e-05
1.616308154077038353e+03 4.152216744993318496e-05
1.617208604302150889e+03 4.106863480874705275e-05
1.618109054527263652e+03 4.062581769597597785e-05
1.619009504752376188e+03 4.019322159455961623e-05
1.619909954977488724e+03 3.977038744701387810e-05
1.620810405202601260e+03 3.935688833900975465e-05
1.621710855427713796e+03 3.895232655445123406e-05
1.622611305652826331e+03 3.855633095422184036e-05
1.623511755877938867e+03 3.816855463768151723e-05
1.624412206103051403e+03 3.778867285180410391e-05
1.625312656328163939e+03 3.741638111774238178e-05
1.626213106553276475e+03 3.705139354875259530e-05
1.627113556778389011e+03 3.669344133692143133e-05
1.628014007003501774e+03 3.634227138913164547e-05
1.628914457228614310e+03 3.599764509525561643e-05
1.629814907453726846e+03 3.565933721374576961e-05
1.630715357678839382e+03 3.532713486166866247e-05
1.631615807903951918e+03 3.500083659783725400e-05
1.632516258129064454e+03 3.468025158908905986e-05
1.633416708354176990e+03 3.436519885095250286e-05
1.634317158579289526e+03 3.405550655499507158e-05
1.635217608804402062e+03 3.375101139603347254e-05
1.636118059029514598e+03 3.345155801319012087e-05
1.637018509254627133e+03 3.315699845945197758e-05
1.637918959479739897e+03 3.286719171499391902e-05
1.638819409704852433e+03 3.258200324004842131e-05
1.639719859929964969e+03 3.230130456356722487e-05
1.640620310155077505e+03 3.202497290432243662e-05
1.641520760380190040e+03 3.175289082144974501e-05
1.642421210605302576e+03 3.148494589175370898e-05
1.643321660830415112e+03 3.122103041136745988e-05
1.644222111055527648e+03 3.096104111960882048e-05
1.645122561280640184e+03 3.070487894308987622e-05
1.646023011505752720e+03 3.045244875833141781e-05
1.646923461730865256e+03 3.020365917130417164e-05
1.647823911955978019e+03 2.995842231247446022e-05
1.648724362181090555e+03 2.971665364606396306e-05
1.649624812406203091e+03 2.947827179235931779e-05
1.650525262631315627e+03 2.924319836201465071e-05
1.651425712856428163e+03 2.901135780138671490e-05
1.652326163081540699e+03 2.878267724803136414e-05
1.653226613306653235e+03 2.855708639556927520e-05
1.654127063531765771e+03 2.833451736719801295e-05
1.655027513756878307e+03 2.811490459719023387e-05
1.655927963981990843e+03 2.789818471977925689e-05
1.656828414207103378e+03 2.768429646488239921e-05
1.657728864432216142e+03 2.747318056015709626e-05
1.658629314657328678e+03 2.726477963893253359e-05
1.659529764882441214e+03 2.705903815359312153e-05
1.660430215107553749e+03 2.685590229402728450e-05
1.661330665332666285e+03 2.665531991078698678e-05
1.662231115557778821e+03 2.645724044262926807e-05
1.663131565782891357e+03 2.626161484814078950e-05
1.664032016008003893e+03 2.606839554116729913e-05
1.664932466233116429e+03 2.587753632979510640e-05
1.665832916458228965e+03 2.568899235864420798e-05
1.666733366683341501e+03 2.550272005426089029e-05
1.667633816908454037e+03 2.531867707340554127e-05
1.668534267133566800e+03 2.513682225405130657e-05
1.669434717358679336e+03 2.495711556891974143e-05
1.670335167583791872e+03 2.477951808139568332e-05
1.671235617808904408e+03 2.460399190367260281e-05
1.672136068034016944e+03 2.443050015699190465e-05
1.673036518259129480e+03 2.425900693384738257e-05
1.673936968484242016e+03 2.408947726203839793e-05
1.674837418709354552e+03 2.392187707045944218e-05
1.675737868934467087e+03 2.375617315652542481e-05
1.676638319159579623e+03 2.359233315513689443e-05
1.677538769384692159e+03 2.343032550909463819e-05
1.678439219609804923e+03 2.327011944088258841e-05
1.679339669834917459e+03 2.311168492574107547e-05
1.680240120060029994e+03 2.295499266595778885e-05
1.681140570285142530e+03 2.280001406630833462e-05
1.682041020510255066e+03 2.264672121058501010e-05
1.682941470735367602e+03 2.249508683915222304e-05
1.683841920960480138e+03 2.234508432747553462e-05
1.684742371185592674e+03 2.219668766557047506e-05
1.685642821410705210e+03 2.204987143832401334e-05
1.686543271635817746e+03 2.190461080664228382e-05
1.687443721860930282e+03 2.176088148938116099e-05
1.688344172086043045e+03 2.161865974602129493e-05
1.689244622311155581e+03 2.147792236004842362e-05
1.690145072536268117e+03 2.133864662300330889e-05
1.691045522761380653e+03 2.120081031916790586e-05
1.691945972986493189e+03 2.106439171085839089e-05
1.692846423211605725e+03 2.092936952429244393e-05
1.693746873436718261e+03 2.079572293600356515e-05
1.694647323661830796e+03 2.066343155977923732e-05
1.695547773886943332e+03 2.053247543409274245e-05
1.696448224112055868e+03 2.040283501000898477e-05
1.697348674337168404e+03 2.027449113954328329e-05
1.698249124562281168e+03 2.014742506444700457e-05
1.699149574787393703e+03 2.002161840540599521e-05
1.700050025012506239e+03 1.989705315162930698e-05
1.700950475237618775e+03 1.977371165081293712e-05
1.701850925462731311e+03 1.965157659945988505e-05
1.702751375687843847e+03 1.953063103354260683e-05
1.703651825912956383e+03 1.941085831949145534e-05
1.704552276138068919e+03 1.929224214549475069e-05
1.705452726363181455e+03 1.917476651309889000e-05
1.706353176588293991e+03 1.905841572909470011e-05
1.707253626813406527e+03 1.894317439767481033e-05
1.708154077038519290e+03 1.882902741285728837e-05
1.709054527263631826e+03 1.871595995115722639e-05
1.709954977488744362e+03 1.860395746450225915e-05
1.710855427713856898e+03 1.849300567337668947e-05
1.711755877938969434e+03 1.838309056018901018e-05
1.712656328164081970e+03 1.827419836285155364e-05
1.713556778389194506e+03 1.816631556856406949e-05
1.714457228614307041e+03 1.805942890779474580e-05
1.715357678839419577e+03 1.795352534844787563e-05
1.716258129064532113e+03 1.784859209021373393e-05
1.717158579289644649e+03 1.774461655909270600e-05
1.718059029514757185e+03 1.764158640208613924e-05
1.718959479739869948e+03 1.753948948204746701e-05
1.719859929964982484e+03 1.743831387269123638e-05
1.720760380190095020e+03 1.733804785374769007e-05
1.721660830415207556e+03 1.723867990626161160e-05
1.722561280640320092e+03 1.714019870803254025e-05
1.723461730865432628e+03 1.704259312918376894e-05
1.724362181090545164e+03 1.694585222786281853e-05
1.725262631315657700e+03 1.684996524606364432e-05
1.726163081540770236e+03 1.675492160556946343e-05
1.727063531765882772e+03 1.666071090401015185e-05
1.727963981990995308e+03 1.656732291102935262e-05
1.728864432216108071e+03 1.647474756456200653e-05
1.729764882441220607e+03 1.638297496721066390e-05
1.730665332666333143e+03 1.629199538272544604e-05
1.731565782891445679e+03 1.620179923257840005e-05
1.732466233116558215e+03 1.611237709263105776e-05
1.733366683341670750e+03 1.602371968989274578e-05
1.734267133566783286e+03 1.593581789936475757e-05
1.735167583791895822e+03 1.584866274096961505e-05
1.736068034017008358e+03 1.576224537656079500e-05
1.736968484242120894e+03 1.567655710701096856e-05
1.737868934467233430e+03 1.559158936937711412e-05
1.738769384692346193e+03 1.550733373413792611e-05
1.739669834917458729e+03 1.542378190250377393e-05
1.740570285142571265e+03 1.534092570379417609e-05
1.741470735367683801e+03 1.525875709288303705e-05
1.742371185592796337e+03 1.517726814770794517e-05
1.743271635817908873e+03 1.509645106684250000e-05
1.744172086043021409e+03 1.501629816712860452e-05
1.745072536268133945e+03 1.493680188136814955e-05
1.745972986493246481e+03 1.485795475607134100e-05
1.746873436718359017e+03 1.477974944926042647e-05
1.747773886943471553e+03 1.470217872832668658e-05
1.748674337168584316e+03 1.462523546793965958e-05
1.749574787393696852e+03 1.454891264800654913e-05
1.750475237618809388e+03 1.447320335168071100e-05
1.751375687843921924e+03 1.439810076341712790e-05
1.752276138069034459e+03 1.432359816707467970e-05
1.753176588294146995e+03 1.424968894406224744e-05
1.754077038519259531e+03 1.417636657152909859e-05
1.754977488744372067e+03 1.410362462059625180e-05
1.755877938969484603e+03 1.403145675463007803e-05
1.756778389194597139e+03 1.395985672755505667e-05
1.757678839419709675e+03 1.388881838220477010e-05
1.758579289644822438e+03 1.381833564871123328e-05
1.759479739869934974e+03 1.374840254293028491e-05
1.760380190095047510e+03 1.367901316490256244e-05
1.761280640320160046e+03 1.361016169734884630e-05
1.762181090545272582e+03 1.354184240419921259e-05
1.763081540770385118e+03 1.347404962915493208e-05
1.763981990995497654e+03 1.340677779428122154e-05
1.764882441220610190e+03 1.334002139863224496e-05
1.765782891445722726e+03 1.327377501690512742e-05
1.766683341670835262e+03 1.320803329812366584e-05
1.767583791895947797e+03 1.314279096435041035e-05
1.768484242121060333e+03 1.307804280942669766e-05
1.769384692346173097e+03 1.301378369773905432e-05
1.770285142571285633e+03 1.295000856301258472e-05
1.771185592796398169e+03 1.288671240712982433e-05
1.772086043021510704e+03 1.282389029897392813e-05
1.772986493246623240e+03 1.276153737329735988e-05
1.773886943471735776e+03 1.269964882961258897e-05
1.774787393696848312e+03 1.263821993110777643e-05
1.775687843921960848e+03 1.257724600358322851e-05
1.776588294147073384e+03 1.251672243441068796e-05
1.777488744372185920e+03 1.245664467151413654e-05
1.778389194597298456e+03 1.239700822237068240e-05
1.779289644822411219e+03 1.233780865303257583e-05
1.780190095047523755e+03 1.227904158716836290e-05
1.781090545272636291e+03 1.222070270512369361e-05
1.781990995497748827e+03 1.216278774300126964e-05
1.782891445722861363e+03 1.210529249175837817e-05
1.783791895947973899e+03 1.204821279632325355e-05
1.784692346173086435e+03 1.199154455472857786e-05
1.785592796398198971e+03 1.193528371726182213e-05
1.786493246623311506e+03 1.187942628563274683e-05
1.787393696848424042e+03 1.182396831215676042e-05
1.788294147073536578e+03 1.176890589895450035e-05
1.789194597298649342e+03 1.171423519716722473e-05
1.790095047523761878e+03 1.165995240618618007e-05
1.790995497748874413e+03 1.160605377289826082e-05
1.791895947973986949e+03 1.155253559094515374e-05
1.792796398199099485e+03 1.149939419999705963e-05
1.793696848424212021e+03 1.144662598503993712e-05
1.794597298649324557e+03 1.139422737567654130e-05
1.795497748874437093e+03 1.134219484544052516e-05
1.796398199099549629e+03 1.129052491112289092e-05
1.797298649324662165e+03 1.123921413211241050e-05
1.798199099549774701e+03 1.118825910974667129e-05
1.799099549774887464e+03 1.113765648667647441e-05
1.800000000000000000e+03 1.108740294624094469e-05
