0.000000000000000000e+00 1.189224711280640950e-03
9.004502251125562351e-01 1.564347626367450315e-03
1.800900450225112470e+00 2.085210216202162611e-03
2.701350675337668594e+00 2.757645130227285961e-03
3.601800900450224940e+00 3.474869986412437630e-03
4.502251125562780842e+00 3.993053313129544743e-03
5.402701350675337189e+00 4.134886793488164007e-03
6.303151575787893535e+00 3.882058131093111056e-03
7.203601800900449881e+00 3.290807581185975841e-03
8.104052026013006227e+00 2.571833445551176614e-03
9.004502251125561685e+00 1.939192867875886997e-03
9.904952476238118919e+00 1.460835786954564185e-03
1.080540270135067438e+01 1.117265234110580629e-03
1.170585292646323161e+01 8.720832105646467245e-04
1.260630315157578707e+01 6.951005238345753625e-04
1.350675337668834430e+01 5.649549027147352095e-04
1.440720360180089976e+01 4.672737769644523401e-04
1.530765382691345522e+01 3.924994037611727543e-04
1.620810405202601245e+01 3.342354898151541492e-04
1.710855427713856969e+01 2.881441744215174289e-04
1.800900450225112337e+01 2.512387865689163732e-04
1.890945472736368060e+01 2.214257349350659044e-04
1.980990495247623784e+01 1.971586208483283261e-04
2.071035517758879507e+01 1.770936887619308647e-04
2.161080540270134875e+01 1.598543023677497800e-04
2.251125562781390599e+01 1.443472089723060042e-04
2.341170585292646322e+01 1.302951854664274791e-04
2.431215607803901690e+01 1.178906414336636146e-04
2.521260630315157414e+01 1.071616982340592206e-04
2.611305652826413137e+01 9.791736484122837299e-05
2.701350675337668861e+01 8.991488085216854252e-05
2.791395697848924229e+01 8.294334936041753000e-05
2.881440720360179952e+01 7.683723838728374563e-05
2.971485742871435676e+01 7.146701915046861728e-05
3.061530765382691044e+01 6.672045513718222675e-05
3.151575787893946767e+01 6.247884559116724371e-05
3.241620810405202491e+01 5.862545606439410365e-05
3.331665832916458214e+01 5.510934718990583670e-05
3.421710855427713938e+01 5.194639874213613880e-05
3.511755877938969661e+01 4.913153714590413228e-05
3.601800900450224674e+01 4.657987625018752400e-05
3.691845922961480397e+01 4.414620302608352154e-05
3.781890945472736121e+01 4.176657071062453083e-05
3.871935967983991844e+01 3.951809565978081352e-05
3.961980990495247568e+01 3.748086020080757072e-05
4.052026013006503291e+01 3.566659436815725157e-05
4.142071035517759015e+01 3.403295574123273962e-05
4.232116058029014027e+01 3.249992781453742694e-05
4.322161080540269751e+01 3.100685124107352078e-05
4.412206103051525474e+01 2.957052804523596816e-05
4.502251125562781198e+01 2.823613335998403475e-05
4.592296148074036921e+01 2.702148062184249653e-05
4.682341170585292645e+01 2.592251805757027526e-05
4.772386193096548368e+01 2.493077277089471956e-05
4.862431215607803381e+01 2.404129672518847625e-05
4.952476238119059104e+01 2.325522448367904821e-05
5.042521260630314828e+01 2.258114365750516872e-05
5.132566283141570551e+01 2.203609229812540115e-05
5.222611305652826275e+01 2.164258646409003635e-05
5.312656328164081998e+01 2.140938859528064973e-05
5.402701350675337721e+01 2.127899049369498294e-05
5.492746373186592734e+01 2.107306160166973861e-05
5.582791395697848458e+01 2.056030979132756283e-05
5.672836418209104181e+01 1.968736755500748344e-05
5.762881440720359905e+01 1.866681916459859755e-05
5.852926463231615628e+01 1.772722334306489622e-05
5.942971485742871351e+01 1.695512481999188661e-05
6.033016508254127075e+01 1.635045910218367959e-05
6.123061530765382088e+01 1.588832098867668308e-05
6.213106553276637811e+01 1.552365386594594602e-05
6.303151575787893535e+01 1.517065253041986728e-05
6.393196598299149258e+01 1.473656697103000298e-05
6.483241620810404982e+01 1.421610878708181654e-05
6.573286643321659994e+01 1.368549495577764581e-05
6.663331665832916428e+01 1.320837847208509746e-05
6.753376688344171441e+01 1.280428184764589594e-05
6.843421710855427875e+01 1.247182974474327233e-05
6.933466733366682888e+01 1.220807326736962460e-05
7.023511755877939322e+01 1.201316872305673063e-05
7.113556778389194335e+01 1.188287109948823451e-05
7.203601800900449348e+01 1.178717625803071897e-05
7.293646823411705782e+01 1.166056844864234458e-05
7.383691845922960795e+01 1.146404538789854891e-05
7.473736868434217229e+01 1.123042156394743394e-05
7.563781890945472242e+01 1.098088225143674741e-05
7.653826913456728676e+01 1.070187577324397352e-05
7.743871935967983688e+01 1.041746649822525572e-05
7.833916958479238701e+01 1.018163377728148099e-05
7.923961980990495135e+01 1.002982925030907396e-05
8.014007003501750148e+01 9.977527530604969879e-06
8.104052026013006582e+01 1.002731117585412271e-05
8.194097048524261595e+01 1.015009417796683302e-05
8.284142071035518029e+01 1.025796031625925595e-05
8.374187093546773042e+01 1.023030051794663151e-05
8.464232116058028055e+01 9.998230189844663346e-06
8.554277138569284489e+01 9.613443520062528441e-06
8.644322161080539502e+01 9.208317305053169088e-06
8.734367183591795936e+01 8.882968990066310685e-06
8.824412206103050949e+01 8.671083571010673982e-06
8.914457228614307382e+01 8.570308309412580741e-06
9.004502251125562395e+01 8.554814071592325623e-06
9.094547273636817408e+01 8.559371786386501651e-06
9.184592296148073842e+01 8.500676931057522061e-06
9.274637318659328855e+01 8.369845300281980973e-06
9.364682341170585289e+01 8.237932869460120209e-06
9.454727363681840302e+01 8.140886257063876313e-06
9.544772386193096736e+01 8.031805578952135787e-06
9.634817408704351749e+01 7.848079238867395352e-06
9.724862431215606762e+01 7.594352370701444389e-06
9.814907453726863196e+01 7.335258607520756891e-06
9.904952476238118209e+01 7.125882332094468423e-06
9.994997498749374643e+01 6.985684623686508031e-06
1.008504252126062966e+02 6.916771093584520983e-06
1.017508754377188609e+02 6.919469750865418803e-06
1.026513256628314110e+02 6.990670868800930249e-06
1.035517758879439612e+02 7.103878503530199768e-06
1.044522261130565255e+02 7.193937144890591529e-06
1.053526763381690756e+02 7.216683802435059184e-06
1.062531265632816400e+02 7.223043320100484092e-06
1.071535767883941901e+02 7.283172826939653772e-06
1.080540270135067544e+02 7.388466003920236173e-06
1.089544772386193046e+02 7.469737286733968209e-06
1.098549274637318547e+02 7.485889987254118327e-06
1.107553776888444190e+02 7.443700487270575520e-06
1.116558279139569692e+02 7.351916048683916056e-06
1.125562781390695335e+02 7.250280529211213438e-06
1.134567283641820836e+02 7.194045041652037789e-06
1.143571785892946480e+02 7.193114627358734140e-06
1.152576288144071981e+02 7.216761398554620266e-06
1.161580790395197482e+02 7.191101982595649081e-06
1.170585292646323126e+02 7.024048148609395061e-06
1.179589794897448627e+02 6.725971414171720176e-06
1.188594297148574270e+02 6.415916263186520120e-06
1.197598799399699772e+02 6.184583114222732808e-06
1.206603301650825415e+02 6.056881465649246073e-06
1.215607803901950916e+02 6.031544661017977311e-06
1.224612306153076418e+02 6.106826321890449103e-06
1.233616808404202061e+02 6.281856321764476245e-06
1.242621310655327562e+02 6.543121739290955245e-06
1.251625812906453206e+02 6.857883965106141043e-06
1.260630315157578707e+02 7.195999323863414976e-06
1.269634817408704350e+02 7.547418204804768874e-06
1.278639319659829852e+02 7.925693892448814446e-06
1.287643821910955353e+02 8.363563063808997154e-06
1.296648324162080996e+02 8.808484558860598732e-06
1.305652826413206640e+02 9.010583394559698486e-06
1.314657328664331999e+02 8.784675379281449233e-06
1.323661830915457642e+02 8.325642211571935577e-06
1.332666333166583286e+02 7.943168317848318510e-06
1.341670835417708929e+02 7.768116579874483066e-06
1.350675337668834288e+02 7.776266500670792932e-06
1.359679839919959932e+02 7.857673404461988542e-06
1.368684342171085575e+02 7.868118167690706707e-06
1.377688844422210934e+02 7.709894396273985590e-06
1.386693346673336578e+02 7.417663719083398375e-06
1.395697848924462221e+02 7.124762954733428077e-06
1.404702351175587864e+02 6.946936305796657586e-06
1.413706853426713224e+02 6.922755121769051033e-06
1.422711355677838867e+02 7.042632288361348855e-06
1.431715857928964510e+02 7.294875697300030571e-06
1.440720360180089870e+02 7.645478276613623146e-06
1.449724862431215513e+02 8.001295641738846210e-06
1.458729364682341156e+02 8.241615397198255529e-06
1.467733866933466800e+02 8.319940375802500386e-06
1.476738369184592159e+02 8.305770262951334967e-06
1.485742871435717802e+02 8.253021342175933115e-06
1.494747373686843446e+02 8.099493321260516773e-06
1.503751875937968805e+02 7.800663761507375127e-06
1.512756378189094448e+02 7.419348161039445431e-06
1.521760880440220092e+02 7.073049239281377015e-06
1.530765382691345735e+02 6.845553771553074675e-06
1.539769884942471094e+02 6.768357612551920149e-06
1.548774387193596738e+02 6.846441838054420746e-06
1.557778889444722381e+02 7.026366616785524166e-06
1.566783391695847740e+02 7.190312611572265317e-06
1.575787893946973384e+02 7.250370863991442687e-06
1.584792396198099027e+02 7.227648544041795958e-06
1.593796898449224670e+02 7.213907442085048223e-06
1.602801400700350030e+02 7.282386831872601612e-06
1.611805902951475673e+02 7.449158372642603191e-06
1.620810405202601316e+02 7.660859416678384402e-06
1.629814907453726676e+02 7.845950343802071488e-06
1.638819409704852319e+02 7.982737923981066019e-06
1.647823911955977962e+02 8.060870491890313768e-06
1.656828414207103606e+02 8.044196062298098320e-06
1.665832916458228965e+02 7.911995852699537832e-06
1.674837418709354608e+02 7.728899586608405770e-06
1.683841920960480252e+02 7.613860829430148910e-06
1.692846423211605611e+02 7.590290776464447207e-06
1.701850925462731254e+02 7.567634474587922696e-06
1.710855427713856898e+02 7.510146854053137152e-06
1.719859929964982541e+02 7.496722612265561786e-06
1.728864432216107900e+02 7.598272790593220722e-06
1.737868934467233544e+02 7.831038637032179141e-06
1.746873436718359187e+02 8.156972360588048073e-06
1.755877938969484546e+02 8.476410582738668970e-06
1.764882441220610190e+02 8.692769966951404049e-06
1.773886943471735833e+02 8.828595228961855573e-06
1.782891445722861476e+02 8.997522982546639887e-06
1.791895947973986836e+02 9.252642433410265721e-06
1.800900450225112479e+02 9.513549283240160733e-06
1.809904952476238122e+02 9.667253262692836356e-06
1.818909454727363482e+02 9.700703494062112403e-06
1.827913956978489125e+02 9.670001301153069139e-06
1.836918459229614768e+02 9.627402065724095971e-06
1.845922961480740412e+02 9.618473380743815948e-06
1.854927463731865771e+02 9.655437178757603098e-06
1.863931965982991414e+02 9.692469195090499661e-06
1.872936468234117058e+02 9.678629793925926379e-06
1.881940970485242417e+02 9.632475917649604269e-06
1.890945472736368060e+02 9.618940126498187092e-06
1.899949974987493704e+02 9.673465199605703387e-06
1.908954477238619347e+02 9.807948628934866394e-06
1.917958979489744706e+02 1.001984275743017179e-05
1.926963481740870350e+02 1.028957880862425896e-05
1.935967983991995993e+02 1.057421836311146628e-05
1.944972486243121352e+02 1.085957660244652846e-05
1.953976988494246996e+02 1.114569171569514849e-05
1.962981490745372639e+02 1.133615006940297764e-05
1.971985992996498283e+02 1.127520537057123294e-05
1.980990495247623642e+02 1.091954425072539269e-05
1.989994997498749285e+02 1.041061196493630143e-05
1.998999499749874929e+02 9.938534909370788789e-06
2.008004002001000288e+02 9.615937440047414353e-06
2.017008504252125931e+02 9.488059711678926465e-06
2.026013006503251574e+02 9.542414682470683508e-06
2.035017508754377218e+02 9.676816320384778430e-06
2.044022011005502577e+02 9.761080782050472553e-06
2.053026513256628220e+02 9.775160793144494075e-06
2.062031015507753864e+02 9.762469748833248412e-06
2.071035517758879223e+02 9.696511734303779725e-06
2.080040020010004866e+02 9.520289098039658277e-06
2.089044522261130510e+02 9.231825654204511399e-06
2.098049024512256153e+02 8.877500932323126675e-06
2.107053526763381512e+02 8.569031328214991112e-06
2.116058029014507156e+02 8.458720545157322283e-06
2.125062531265632799e+02 8.631240954595048012e-06
2.134067033516758158e+02 9.020204074954631338e-06
2.143071535767883802e+02 9.417848035042753705e-06
2.152076038019009445e+02 9.641847110831520130e-06
2.161080540270135089e+02 9.634217106031211494e-06
2.170085042521260448e+02 9.425029380459128947e-06
2.179089544772386091e+02 9.129395306551702115e-06
2.188094047023511735e+02 8.875673555776402568e-06
2.197098549274637094e+02 8.728396542529307179e-06
2.206103051525762737e+02 8.692440227982996462e-06
2.215107553776888381e+02 8.736762340684379872e-06
2.224112056028014024e+02 8.791456609210563137e-06
2.233116558279139383e+02 8.786954103364363880e-06
2.242121060530265027e+02 8.707331814040519561e-06
2.251125562781390670e+02 8.583881199645302073e-06
2.260130065032516029e+02 8.483712658363989272e-06
2.269134567283641672e+02 8.472263358031255974e-06
2.278139069534767316e+02 8.550118189669723867e-06
2.287143571785892959e+02 8.686058644543048125e-06
2.296148074037018318e+02 8.886012195528098369e-06
2.305152576288143962e+02 9.141369185103218349e-06
2.314157078539269605e+02 9.376955748485948049e-06
2.323161580790394964e+02 9.520914265724530966e-06
2.332166083041520608e+02 9.590836604516180973e-06
2.341170585292646251e+02 9.664242286679018901e-06
2.350175087543771895e+02 9.779571604505626415e-06
2.359179589794897254e+02 9.910050249592704998e-06
2.368184092046022897e+02 1.000774973478284152e-05
2.377188594297148541e+02 1.007964061420307379e-05
2.386193096548273900e+02 1.019805789537282163e-05
2.395197598799399543e+02 1.039637951585107628e-05
2.404202101050525187e+02 1.062476647448869274e-05
2.413206603301650830e+02 1.079672248091462927e-05
2.422211105552776189e+02 1.090434244319187483e-05
2.431215607803901833e+02 1.101964343777219022e-05
2.440220110055027476e+02 1.117061676446608122e-05
2.449224612306152835e+02 1.132896512720704248e-05
2.458229114557278479e+02 1.143901021022341390e-05
2.467233616808404122e+02 1.141968500188106443e-05
2.476238119059529765e+02 1.122745334308359572e-05
2.485242621310655124e+02 1.091965946328628258e-05
2.494247123561780768e+02 1.061978184064085638e-05
2.503251625812906411e+02 1.042568558500639138e-05
2.512256128064031770e+02 1.034538471183227954e-05
2.521260630315157414e+02 1.034709547791541054e-05
2.530265132566283057e+02 1.040842712697456783e-05
2.539269634817408701e+02 1.048537538481713870e-05
2.548274137068534060e+02 1.053083533139119495e-05
2.557278639319659703e+02 1.055606939462560178e-05
2.566283141570785347e+02 1.060200057671678116e-05
2.575287643821910706e+02 1.067623157789864101e-05
2.584292146073036633e+02 1.076269455583693646e-05
2.593296648324161993e+02 1.085088042462917510e-05
2.602301150575287352e+02 1.093189944510367079e-05
2.611305652826413279e+02 1.097553471746874108e-05
2.620310155077538639e+02 1.096106918486722197e-05
2.629314657328663998e+02 1.091166184322051384e-05
2.638319159579789925e+02 1.086185474117613899e-05
2.647323661830915285e+02 1.086031501834662967e-05
2.656328164082040644e+02 1.095493931387931985e-05
2.665332666333166571e+02 1.113662705563256824e-05
2.674337168584291931e+02 1.134187539061485494e-05
2.683341670835417858e+02 1.154864037677068795e-05
2.692346173086543217e+02 1.178631384599107456e-05
2.701350675337668577e+02 1.206653605632447115e-05
2.710355177588794504e+02 1.233671677884278048e-05
2.719359679839919863e+02 1.248502211146296466e-05
2.728364182091045222e+02 1.244431751972957080e-05
2.737368684342171150e+02 1.222563259629511260e-05
2.746373186593296509e+02 1.181697010309651705e-05
2.755377688844421868e+02 1.119312622147715289e-05
2.764382191095547796e+02 1.044383178947680911e-05
2.773386693346673155e+02 9.749405386105727546e-06
2.782391195597798514e+02 9.222951333467708726e-06
2.791395697848924442e+02 8.872856937320952811e-06
2.800400200100049801e+02 8.686894651484883135e-06
2.809404702351175729e+02 8.666716758964260168e-06
2.818409204602301088e+02 8.809668467395450649e-06
2.827413706853426447e+02 9.081963103627624438e-06
2.836418209104552375e+02 9.397394450621674748e-06
2.845422711355677734e+02 9.628060873414166958e-06
2.854427213606803093e+02 9.652495674217730342e-06
2.863431715857929021e+02 9.433064504910462517e-06
2.872436218109054380e+02 9.068290545174465884e-06
2.881440720360179739e+02 8.698699818779483142e-06
2.890445222611305667e+02 8.417918693942445549e-06
2.899449724862431026e+02 8.270635322645296036e-06
2.908454227113556385e+02 8.239108570720200759e-06
2.917458729364682313e+02 8.243570346152055063e-06
2.926463231615807672e+02 8.224881079937436236e-06
2.935467733866933600e+02 8.205162475245531299e-06
2.944472236118058959e+02 8.242256749337754780e-06
2.953476738369184318e+02 8.358736559499556595e-06
2.962481240620310246e+02 8.515601426603389986e-06
2.971485742871435605e+02 8.651265764025506256e-06
2.980490245122560964e+02 8.758242021434321358e-06
2.989494747373686891e+02 8.908857581792895388e-06
2.998499249624812251e+02 9.176936299132114938e-06
3.007503751875937610e+02 9.547979309130577870e-06
3.016508254127063537e+02 9.910057472316134814e-06
3.025512756378188897e+02 1.015897587330261914e-05
3.034517258629314256e+02 1.029281358897618398e-05
3.043521760880440183e+02 1.036074430628264575e-05
3.052526263131565543e+02 1.036628952840771199e-05
3.061530765382691470e+02 1.026839068493865004e-05
3.070535267633816829e+02 1.008113093291352747e-05
3.079539769884942189e+02 9.898951499905861014e-06
3.088544272136068116e+02 9.800271682387869498e-06
3.097548774387193475e+02 9.759436365787153424e-06
3.106553276638318835e+02 9.687785341517312558e-06
3.115557778889444762e+02 9.596269939738995839e-06
3.124562281140570121e+02 9.567567872521104852e-06
3.133566783391695481e+02 9.615522689365034909e-06
3.142571285642821408e+02 9.703559962744718109e-06
3.151575787893946767e+02 9.786647020992861871e-06
3.160580290145072127e+02 9.835574766581390343e-06
3.169584792396198054e+02 9.848088448380524698e-06
3.178589294647323413e+02 9.827520033186491738e-06
3.187593796898449341e+02 9.782988785600512109e-06
3.196598299149574700e+02 9.746044920088022657e-06
3.205602801400700059e+02 9.732385551949632334e-06
3.214607303651825987e+02 9.749295457166617224e-06
3.223611805902951346e+02 9.807831472715002703e-06
3.232616308154076705e+02 9.843803612066838167e-06
3.241620810405202633e+02 9.754251779461173472e-06
3.250625312656327992e+02 9.534946398732194691e-06
3.259629814907453351e+02 9.269403284162566992e-06
3.268634317158579279e+02 9.044731139161953093e-06
3.277638819409704638e+02 8.919140815664003749e-06
3.286643321660829997e+02 8.935742067266570668e-06
3.295647823911955925e+02 9.131386053310080610e-06
3.304652326163081284e+02 9.487637597718465547e-06
3.313656828414207212e+02 9.920902327031671231e-06
3.322661330665332571e+02 1.034973374347872470e-05
3.331665832916457930e+02 1.074506710813919330e-05
3.340670335167583858e+02 1.111879086081824785e-05
3.349674837418709217e+02 1.147826371941358678e-05
3.358679339669834576e+02 1.178408694040042299e-05
3.367683841920960504e+02 1.193592016556641318e-05
3.376688344172085863e+02 1.182301216847064816e-05
3.385692846423211222e+02 1.144201235002071843e-05
3.394697348674337150e+02 1.093021693667709485e-05
3.403701850925462509e+02 1.042138855905948075e-05
3.412706353176587868e+02 9.963257005351138106e-06
3.421710855427713796e+02 9.590231562152878465e-06
3.430715357678839155e+02 9.351725060927692113e-06
3.439719859929965082e+02 9.258751238103076834e-06
3.448724362181090441e+02 9.266730510189964576e-06
3.457728864432215801e+02 9.317162897973560088e-06
3.466733366683341728e+02 9.392469149891448886e-06
3.475737868934467087e+02 9.522521263324691063e-06
3.484742371185592447e+02 9.733948573782562734e-06
3.493746873436718374e+02 9.979054068118643612e-06
3.502751375687843733e+02 1.017443841647386323e-05
3.511755877938969093e+02 1.026799227365458200e-05
3.520760380190095020e+02 1.023403470559608396e-05
3.529764882441220379e+02 1.009751089856978109e-05
3.538769384692345739e+02 9.945427446384684598e-06
3.547773886943471666e+02 9.850007954494285632e-06
3.556778389194597025e+02 9.812797422337192442e-06
3.565782891445722953e+02 9.803017615324123980e-06
3.574787393696848312e+02 9.826610975054258146e-06
3.583791895947973671e+02 9.930332669625384175e-06
3.592796398199099599e+02 1.013567884798956427e-05
3.601800900450224958e+02 1.040056496418101048e-05
3.610805402701350317e+02 1.065074140514029206e-05
3.619809904952476245e+02 1.084631511146824246e-05
3.628814407203601604e+02 1.100515849410428553e-05
3.637818909454726963e+02 1.116125611867602508e-05
3.646823411705852891e+02 1.131558998750953004e-05
3.655827913956978250e+02 1.147020487468405152e-05
3.664832416208103609e+02 1.163748550485772240e-05
3.673836918459229537e+02 1.177087811557121589e-05
3.682841420710354896e+02 1.177089234952935612e-05
3.691845922961480824e+02 1.156349195026519515e-05
3.700850425212606183e+02 1.116271954192026268e-05
3.709854927463731542e+02 1.067925375087793580e-05
3.718859429714857470e+02 1.027977984887978092e-05
3.727863931965982829e+02 1.008435529553306123e-05
3.736868434217108188e+02 1.009457954436652916e-05
3.745872936468234116e+02 1.022622696140287798e-05
3.754877438719359475e+02 1.040942316863646733e-05
3.763881940970484834e+02 1.063881561111597033e-05
3.772886443221610762e+02 1.091538353338048298e-05
3.781890945472736121e+02 1.118108918649013808e-05
3.790895447723861480e+02 1.136020489197563388e-05
3.799899949974987408e+02 1.144211976069405604e-05
3.808904452226112767e+02 1.148854840030255468e-05
3.817908954477238694e+02 1.155764389513345659e-05
3.826913456728364054e+02 1.165127454831561649e-05
3.835917958979489413e+02 1.173763549424369929e-05
3.844922461230615340e+02 1.177737389188356838e-05
3.853926963481740700e+02 1.173622912443711956e-05
3.862931465732866059e+02 1.162611863899345912e-05
3.871935967983991986e+02 1.151373756746319487e-05
3.880940470235117346e+02 1.143607289346778189e-05
3.889944972486242705e+02 1.139317253923426226e-05
3.898949474737368632e+02 1.142452415736307296e-05
3.907953976988493991e+02 1.157480763136729716e-05
3.916958479239619351e+02 1.181732283370747543e-05
3.925962981490745278e+02 1.208231420527899496e-05
3.934967483741870637e+02 1.232058372846378832e-05
3.943971985992996565e+02 1.253548565000762152e-05
3.952976488244121924e+02 1.274303034933837662e-05
3.961980990495247283e+02 1.291147611001702781e-05
3.970985492746373211e+02 1.302231782460788600e-05
3.979989994997498570e+02 1.311992924751458803e-05
3.988994497248623929e+02 1.326412443408613827e-05
3.997998999499749857e+02 1.346250791654201192e-05
4.007003501750875216e+02 1.363237417504443126e-05
4.016008004002000575e+02 1.365481181871917713e-05
4.025012506253126503e+02 1.352082129675227575e-05
4.034017008504251862e+02 1.333045544020368583e-05
4.043021510755377221e+02 1.318456031749471117e-05
4.052026013006503149e+02 1.311488884941613468e-05
4.061030515257628508e+02 1.310231383938745046e-05
4.070035017508754436e+02 1.312857497331131820e-05
4.079039519759879795e+02 1.319371511787984201e-05
4.088044022011005154e+02 1.328864028514239941e-05
4.097048524262131082e+02 1.337848726495834522e-05
4.106053026513256441e+02 1.341713999179171212e-05
4.115057528764381800e+02 1.338903904491194173e-05
4.124062031015507728e+02 1.332981494272192792e-05
4.133066533266633087e+02 1.328959853054802286e-05
4.142071035517758446e+02 1.325628530472036815e-05
4.151075537768884374e+02 1.315083437807906748e-05
4.160080040020009733e+02 1.291989762563869918e-05
4.169084542271135092e+02 1.261752154401495533e-05
4.178089044522261020e+02 1.237017802025921416e-05
4.187093546773386379e+02 1.224120264737359296e-05
4.196098049024512306e+02 1.220803928143749710e-05
4.205102551275637666e+02 1.221998162567466221e-05
4.214107053526763025e+02 1.228563880495963020e-05
4.223111555777888952e+02 1.244009703721082636e-05
4.232116058029014312e+02 1.263990523659939845e-05
4.241120560280139671e+02 1.281635740921202230e-05
4.250125062531265598e+02 1.295373845524127438e-05
4.259129564782390958e+02 1.308414659840560560e-05
4.268134067033516317e+02 1.326798190975324372e-05
4.277138569284642244e+02 1.351980746826643518e-05
4.286143071535767604e+02 1.378148967943858650e-05
4.295147573786892963e+02 1.398985773760065646e-05
4.304152076038018890e+02 1.412136397194243499e-05
4.313156578289144250e+02 1.417923849530105764e-05
4.322161080540270177e+02 1.418270459977978279e-05
4.331165582791395536e+02 1.419051620517150822e-05
4.340170085042520896e+02 1.424546816189660919e-05
4.349174587293646823e+02 1.433983976853076330e-05
4.358179089544772182e+02 1.449268604158922051e-05
4.367183591795897541e+02 1.473833791404603379e-05
4.376188094047023469e+02 1.506571212214005028e-05
4.385192596298148828e+02 1.543317602038658302e-05
4.394197098549274187e+02 1.581227145069592628e-05
4.403201600800400115e+02 1.616093346151658070e-05
4.412206103051525474e+02 1.637699013459330006e-05
4.421210605302650833e+02 1.640863645769626141e-05
4.430215107553776761e+02 1.631583550162223512e-05
4.439219609804902120e+02 1.616355365113248890e-05
4.448224112056028048e+02 1.598652606338291771e-05
4.457228614307153407e+02 1.583857415026265888e-05
4.466233116558278766e+02 1.577803852016503456e-05
4.475237618809404694e+02 1.582372002941687862e-05
4.484242121060530053e+02 1.596612665211947571e-05
4.493246623311655412e+02 1.620502674206514751e-05
4.502251125562781340e+02 1.653246595295493462e-05
4.511255627813906699e+02 1.691623737837464922e-05
4.520260130065032058e+02 1.732887763677586608e-05
4.529264632316157986e+02 1.777200516360379943e-05
4.538269134567283345e+02 1.822554692969933043e-05
4.547273636818408704e+02 1.862801137355565346e-05
4.556278139069534632e+02 1.894662320195394099e-05
4.565282641320659991e+02 1.918987336421847881e-05
4.574287143571785919e+02 1.939110294869956434e-05
4.583291645822911278e+02 1.955494616586589407e-05
4.592296148074036637e+02 1.963091765176568150e-05
4.601300650325162565e+02 1.958966341402494966e-05
4.610305152576287924e+02 1.948001395485934230e-05
4.619309654827413283e+02 1.937910543039299459e-05
4.628314157078539210e+02 1.936873283095348427e-05
4.637318659329664570e+02 1.948846844692813968e-05
4.646323161580789929e+02 1.965822980561653634e-05
4.655327663831915856e+02 1.973716380442139644e-05
4.664332166083041216e+02 1.970049025447479765e-05
4.673336668334167143e+02 1.967241502303266145e-05
4.682341170585292502e+02 1.975008335073898200e-05
4.691345672836417862e+02 1.990502545665472515e-05
4.700350175087543789e+02 2.003122638001791320e-05
4.709354677338669148e+02 2.005823351155876623e-05
4.718359179589794508e+02 2.001546016303830671e-05
4.727363681840920435e+02 1.998190622267306506e-05
4.736368184092045794e+02 1.998535556067516727e-05
4.745372686343171154e+02 1.997617487828650719e-05
4.754377188594297081e+02 1.993925638671435944e-05
4.763381690845422440e+02 1.993418404049490292e-05
4.772386193096547800e+02 2.002687322763698659e-05
4.781390695347673727e+02 2.017386044520861200e-05
4.790395197598799086e+02 2.023526334939456994e-05
4.799399699849925014e+02 2.020513651525455574e-05
4.808404202101050373e+02 2.024425445934578040e-05
4.817408704352175732e+02 2.042084009935175255e-05
4.826413206603301660e+02 2.061927797991120495e-05
4.835417708854427019e+02 2.073210458659106002e-05
4.844422211105552378e+02 2.079843795394104315e-05
4.853426713356678306e+02 2.093409924449642000e-05
4.862431215607803665e+02 2.122441503667477899e-05
4.871435717858929024e+02 2.165155367304278397e-05
4.880440220110054952e+02 2.211677951754232880e-05
4.889444722361180311e+02 2.250020571824802728e-05
4.898449224612305670e+02 2.272479932398137478e-05
4.907453726863431598e+02 2.280389855502128790e-05
4.916458229114556957e+02 2.281365560279327207e-05
4.925462731365682885e+02 2.283151083881795811e-05
4.934467233616808244e+02 2.285796531865412471e-05
4.943471735867933603e+02 2.282105879377224994e-05
4.952476238119059531e+02 2.268067160120534976e-05
4.961480740370184890e+02 2.248731832156153679e-05
4.970485242621310249e+02 2.234690319677624262e-05
4.979489744872436177e+02 2.228720935733176904e-05
4.988494247123561536e+02 2.216923980326859577e-05
4.997498749374686895e+02 2.187703560319853479e-05
5.006503251625812823e+02 2.148557977929854373e-05
5.015507753876938182e+02 2.115767811321112932e-05
5.024512256128063541e+02 2.102594303015585932e-05
5.033516758379189469e+02 2.114510672881312288e-05
5.042521260630314828e+02 2.148461507881265691e-05
5.051525762881440755e+02 2.195605443663460051e-05
5.060530265132566115e+02 2.245389699730392842e-05
5.069534767383691474e+02 2.292256036004336207e-05
5.078539269634817401e+02 2.336285660468136356e-05
5.087543771885942760e+02 2.377616898176438659e-05
5.096548274137068120e+02 2.411342284705986468e-05
5.105552776388194047e+02 2.431309621044358587e-05
5.114557278639319406e+02 2.439860014516063096e-05
5.123561780890445334e+02 2.446404008633903493e-05
5.132566283141570693e+02 2.456673563405520545e-05
5.141570785392696052e+02 2.473298705247708562e-05
5.150575287643821412e+02 2.496377709548736941e-05
5.159579789894946771e+02 2.518400019992824410e-05
5.168584292146073267e+02 2.529865081816400657e-05
5.177588794397198626e+02 2.524241751681003491e-05
5.186593296648323985e+02 2.504193853236513252e-05
5.195597798899449344e+02 2.483773508541425705e-05
5.204602301150574704e+02 2.475016763684181832e-05
5.213606803401700063e+02 2.474951725306800718e-05
5.222611305652826559e+02 2.471607469065715428e-05
5.231615807903951918e+02 2.466798408985619039e-05
5.240620310155077277e+02 2.476079352355200255e-05
5.249624812406202636e+02 2.506284604947667081e-05
5.258629314657327996e+02 2.545417413791554420e-05
5.267633816908454492e+02 2.573438881356391686e-05
5.276638319159579851e+02 2.582185327561309861e-05
5.285642821410705210e+02 2.578441403407114978e-05
5.294647323661830569e+02 2.572393800303265587e-05
5.303651825912955928e+02 2.572926056560975220e-05
5.312656328164081287e+02 2.585944461224610940e-05
5.321660830415207784e+02 2.609210651023544268e-05
5.330665332666333143e+02 2.631848083257535265e-05
5.339669834917458502e+02 2.645447975928330678e-05
5.348674337168583861e+02 2.651847964505946176e-05
5.357678839419709220e+02 2.657343992080325103e-05
5.366683341670835716e+02 2.670166086776387814e-05
5.375687843921961075e+02 2.695570751970684557e-05
5.384692346173086435e+02 2.730956829822474516e-05
5.393696848424211794e+02 2.768678164322759626e-05
5.402701350675337153e+02 2.802692849464070963e-05
5.411705852926462512e+02 2.830862969422375967e-05
5.420710355177589008e+02 2.854298877238549705e-05
5.429714857428714367e+02 2.878450162828327815e-05
5.438719359679839727e+02 2.913821154660163154e-05
5.447723861930965086e+02 2.968491332086092534e-05
5.456728364182090445e+02 3.037331812680324315e-05
5.465732866433215804e+02 3.110560075542319233e-05
5.474737368684342300e+02 3.188337670551382802e-05
5.483741870935467659e+02 3.275576437901304126e-05
5.492746373186593019e+02 3.372002350569170564e-05
5.501750875437718378e+02 3.476472287297033232e-05
5.510755377688843737e+02 3.586190783824445404e-05
5.519759879939970233e+02 3.689572306364351733e-05
5.528764382191095592e+02 3.779905921031583780e-05
5.537768884442220951e+02 3.862817768571614010e-05
5.546773386693346310e+02 3.938413524278422390e-05
5.555777888944471670e+02 3.997496954535815610e-05
5.564782391195597029e+02 4.034946741710396690e-05
5.573786893446723525e+02 4.057580334306329231e-05
5.582791395697848884e+02 4.077475853408363455e-05
5.591795897948974243e+02 4.100634243394709716e-05
5.600800400200099602e+02 4.122679748634757672e-05
5.609804902451224962e+02 4.137571191832353730e-05
5.618809404702351458e+02 4.143947603517903632e-05
5.627813906953476817e+02 4.140327892084091509e-05
5.636818409204602176e+02 4.125459648346280331e-05
5.645822911455727535e+02 4.101746904408486659e-05
5.654827413706852894e+02 4.086349098913008180e-05
5.663831915957978254e+02 4.105243755224693639e-05
5.672836418209104750e+02 4.170849121177526989e-05
5.681840920460230109e+02 4.268756233642296416e-05
5.690845422711355468e+02 4.371704224994796061e-05
5.699849924962480827e+02 4.465360995983688541e-05
5.708854427213606186e+02 4.550973710100676489e-05
5.717858929464731546e+02 4.628222323625667773e-05
5.726863431715858042e+02 4.696293364546108887e-05
5.735867933966983401e+02 4.758128589645677450e-05
5.744872436218108760e+02 4.816097346894598934e-05
5.753876938469234119e+02 4.872993005647653620e-05
5.762881440720359478e+02 4.930277994215194275e-05
5.771885942971485974e+02 4.996130153811835929e-05
5.780890445222611334e+02 5.080692378693435973e-05
5.789894947473736693e+02 5.168451874883310966e-05
5.798899449724862052e+02 5.229420941913049921e-05
5.807903951975987411e+02 5.258149611186329134e-05
5.816908454227112770e+02 5.268770630316775241e-05
5.825912956478239266e+02 5.271436249208378465e-05
5.834917458729364625e+02 5.268233535047378460e-05
5.843921960980489985e+02 5.263077049511819027e-05
5.852926463231615344e+02 5.260618443339782528e-05
5.861930965482740703e+02 5.264868884723125810e-05
5.870935467733867199e+02 5.277589633119146774e-05
5.879939969984992558e+02 5.297563656995999304e-05
5.888944472236117917e+02 5.322503989811257745e-05
5.897948974487243277e+02 5.348149261598477946e-05
5.906953476738368636e+02 5.371774580634277072e-05
5.915957978989493995e+02 5.387346648603461220e-05
5.924962481240620491e+02 5.375228334668813619e-05
5.933966983491745850e+02 5.320351034461639860e-05
5.942971485742871209e+02 5.238401405847348654e-05
5.951975987993996569e+02 5.165015343975716522e-05
5.960980490245121928e+02 5.119110330391283300e-05
5.969984992496247287e+02 5.093288636878317297e-05
5.978989494747373783e+02 5.077815233826086242e-05
5.987993996998499142e+02 5.068151263182989387e-05
5.996998499249624501e+02 5.066183295665950635e-05
6.006003001500749860e+02 5.079541240701911553e-05
6.015007503751875220e+02 5.120121952371712275e-05
6.024012006003001716e+02 5.189165999772730266e-05
6.033016508254127075e+02 5.264023454272288052e-05
6.042021010505252434e+02 5.324480775155759031e-05
6.051025512756377793e+02 5.365894076162174128e-05
6.060030015007503152e+02 5.382934435542312583e-05
6.069034517258628512e+02 5.376949490380009692e-05
6.078039019509755008e+02 5.368306538877550400e-05
6.087043521760880367e+02 5.376556313383154225e-05
6.096048024012005726e+02 5.401050868693862706e-05
6.105052526263131085e+02 5.430994503338670788e-05
6.114057028514256444e+02 5.454517557772238506e-05
6.123061530765382940e+02 5.466690874273747407e-05
6.132066033016508300e+02 5.484970671842579436e-05
6.141070535267633659e+02 5.519252433512122268e-05
6.150075037518759018e+02 5.545458994402534074e-05
6.159079539769884377e+02 5.536659700373584684e-05
6.168084042021009736e+02 5.501076618736346996e-05
6.177088544272136232e+02 5.471979869167678989e-05
6.186093046523261592e+02 5.464703360069391006e-05
6.195097548774386951e+02 5.478936987675126370e-05
6.204102051025512310e+02 5.522414941009019443e-05
6.213106553276637669e+02 5.603939260771867778e-05
6.222111055527763028e+02 5.714041298369968596e-05
6.231115557778889524e+02 5.823049146980838236e-05
6.240120060030014884e+02 5.896973390700617571e-05
6.249124562281140243e+02 5.917274581639441020e-05
6.258129064532265602e+02 5.893630065204079945e-05
6.267133566783390961e+02 5.860380102007790528e-05
6.276138069034517457e+02 5.854526883814176012e-05
6.285142571285642816e+02 5.884968055706378635e-05
6.294147073536768175e+02 5.931590655448967710e-05
6.303151575787893535e+02 5.981320018609867322e-05
6.312156078039018894e+02 6.024163770175618914e-05
6.321160580290144253e+02 6.041642794928103901e-05
6.330165082541270749e+02 6.018688308361669191e-05
6.339169584792396108e+02 5.950976019414478427e-05
6.348174087043521467e+02 5.854556158734601246e-05
6.357178589294646827e+02 5.759026621852112761e-05
6.366183091545772186e+02 5.684312352326877321e-05
6.375187593796898682e+02 5.636050249953727644e-05
6.384192096048024041e+02 5.605426236513378485e-05
6.393196598299149400e+02 5.579201351167409003e-05
6.402201100550274759e+02 5.545907953206557697e-05
6.411205602801400119e+02 5.515175535648614150e-05
6.420210105052525478e+02 5.515954768172914272e-05
6.429214607303651974e+02 5.549623897073126342e-05
6.438219109554777333e+02 5.585623778345499661e-05
6.447223611805902692e+02 5.594309498575085541e-05
6.456228114057028051e+02 5.585324435033993818e-05
6.465232616308153411e+02 5.590196833597834959e-05
6.474237118559278770e+02 5.615423618063340499e-05
6.483241620810405266e+02 5.640885325325019931e-05
6.492246123061530625e+02 5.641183087581478419e-05
6.501250625312655984e+02 5.609204222758557517e-05
6.510255127563781343e+02 5.552096812234887953e-05
6.519259629814906702e+02 5.478809060590014056e-05
6.528264132066033198e+02 5.410324829467237293e-05
6.537268634317158558e+02 5.356083958887750894e-05
6.546273136568283917e+02 5.301761187607626586e-05
6.555277638819409276e+02 5.243115715206430417e-05
6.564282141070534635e+02 5.192189943411893306e-05
6.573286643321659994e+02 5.157387057790938605e-05
6.582291145572786490e+02 5.143833895345537537e-05
6.591295647823911850e+02 5.162875529863772146e-05
6.600300150075037209e+02 5.214904335401047048e-05
6.609304652326162568e+02 5.275823181972176301e-05
6.618309154577287927e+02 5.311668508296133910e-05
6.627313656828414423e+02 5.298949137202141747e-05
6.636318159079539782e+02 5.244618001513967517e-05
6.645322661330665142e+02 5.177483430145273489e-05
6.654327163581790501e+02 5.110072788586052153e-05
6.663331665832915860e+02 5.050701429178796394e-05
6.672336168084041219e+02 5.017466458038295790e-05
6.681340670335167715e+02 5.018632578261864556e-05
6.690345172586293074e+02 5.047396792912335671e-05
6.699349674837418434e+02 5.089753080204995533e-05
6.708354177088543793e+02 5.126702784808144134e-05
6.717358679339669152e+02 5.143980411102842072e-05
6.726363181590794511e+02 5.143459796726489218e-05
6.735367683841921007e+02 5.132318023444187616e-05
6.744372186093046366e+02 5.112670621607840572e-05
6.753376688344171725e+02 5.085899403228379920e-05
6.762381190595297085e+02 5.057076146787765620e-05
6.771385692846422444e+02 5.027145492368728994e-05
6.780390195097548940e+02 4.991713006099867002e-05
6.789394697348674299e+02 4.954481886539514732e-05
6.798399199599799658e+02 4.934779813484712675e-05
6.807403701850925017e+02 4.943132634074631814e-05
6.816408204102050377e+02 4.965396324937196954e-05
6.825412706353175736e+02 4.971835885001550610e-05
6.834417208604302232e+02 4.948840843268790304e-05
6.843421710855427591e+02 4.911657319828134914e-05
6.852426213106552950e+02 4.876973119142317779e-05
6.861430715357678309e+02 4.847752999350561545e-05
6.870435217608803669e+02 4.823919468791143246e-05
6.879439719859930165e+02 4.801965480907371243e-05
6.888444222111055524e+02 4.772635370294759028e-05
6.897448724362180883e+02 4.740330223570807927e-05
6.906453226613306242e+02 4.722821481642037138e-05
6.915457728864431601e+02 4.728172339889815344e-05
6.924462231115556961e+02 4.737434516291964641e-05
6.933466733366683457e+02 4.734143938155791100e-05
6.942471235617808816e+02 4.725569615880018310e-05
6.951475737868934175e+02 4.711589535419367800e-05
6.960480240120059534e+02 4.683124910018072171e-05
6.969484742371184893e+02 4.640125745698036160e-05
6.978489244622311389e+02 4.581982212941585820e-05
6.987493746873436749e+02 4.507335759842792699e-05
6.996498249124562108e+02 4.426103814370699915e-05
7.005502751375687467e+02 4.358312560190956891e-05
7.014507253626812826e+02 4.315787437881369096e-05
7.023511755877938185e+02 4.290117308876745500e-05
7.032516258129064681e+02 4.259916874819478290e-05
7.041520760380190040e+02 4.206178471131386839e-05
7.050525262631315400e+02 4.120565879001350409e-05
7.059529764882440759e+02 4.003835109701127842e-05
7.068534267133566118e+02 3.868678242343399405e-05
7.077538769384691477e+02 3.742863837610956425e-05
7.086543271635817973e+02 3.644127918479449007e-05
7.095547773886943332e+02 3.572924422528593277e-05
7.104552276138068692e+02 3.525871921050364587e-05
7.113556778389194051e+02 3.499812104929766684e-05
7.122561280640319410e+02 3.491385677394577856e-05
7.131565782891445906e+02 3.494525876900851825e-05
7.140570285142571265e+02 3.500055844618240789e-05
7.149574787393696624e+02 3.499293842554170801e-05
7.158579289644821984e+02 3.491135563416244378e-05
7.167583791895947343e+02 3.484294576250942122e-05
7.176588294147072702e+02 3.486750828812745209e-05
7.185592796398199198e+02 3.500871685903635231e-05
7.194597298649324557e+02 3.520379577459830436e-05
7.203601800900449916e+02 3.536043950079234766e-05
7.212606303151575275e+02 3.544817909722020526e-05
7.221610805402700635e+02 3.549640908866721152e-05
7.230615307653827131e+02 3.551372645564997252e-05
7.239619809904952490e+02 3.548834012720046213e-05
7.248624312156077849e+02 3.541511270874854916e-05
7.257628814407203208e+02 3.527388912762365806e-05
7.266633316658328567e+02 3.511949774541034549e-05
7.275637818909453927e+02 3.512659906088637558e-05
7.284642321160580423e+02 3.537280433225856570e-05
7.293646823411705782e+02 3.573106093948133310e-05
7.302651325662831141e+02 3.604896381846926703e-05
7.311655827913956500e+02 3.620017552456377498e-05
7.320660330165081859e+02 3.601557858690101902e-05
7.329664832416207219e+02 3.539440658997390193e-05
7.338669334667333715e+02 3.441509481359787220e-05
7.347673836918459074e+02 3.331865567286898056e-05
7.356678339169584433e+02 3.240283274226635755e-05
7.365682841420709792e+02 3.184952067110270176e-05
7.374687343671835151e+02 3.166132076830869814e-05
7.383691845922961647e+02 3.168352266085591452e-05
7.392696348174087007e+02 3.170029818109689764e-05
7.401700850425212366e+02 3.153859695333524225e-05
7.410705352676337725e+02 3.117418083020153090e-05
7.419709854927463084e+02 3.069217687699960921e-05
7.428714357178588443e+02 3.017743320942114794e-05
7.437718859429714939e+02 2.967810469406355453e-05
7.446723361680840299e+02 2.920970489803206594e-05
7.455727863931965658e+02 2.882097486165637772e-05
7.464732366183091017e+02 2.855517565489924976e-05
7.473736868434216376e+02 2.829844996500748678e-05
7.482741370685342872e+02 2.790076567796703769e-05
7.491745872936468231e+02 2.735058398209453147e-05
7.500750375187593590e+02 2.678385970300261178e-05
7.509754877438718950e+02 2.642116460108627390e-05
7.518759379689844309e+02 2.638452554163353721e-05
7.527763881940969668e+02 2.658251242639624794e-05
7.536768384192096164e+02 2.682906761935938494e-05
7.545772886443221523e+02 2.695874776121732732e-05
7.554777388694346882e+02 2.685661306664145068e-05
7.563781890945472242e+02 2.655091424726901416e-05
7.572786393196597601e+02 2.621443354598135557e-05
7.581790895447722960e+02 2.598945878502401745e-05
7.590795397698849456e+02 2.585219984807933806e-05
7.599799899949974815e+02 2.567521098572519888e-05
7.608804402201100174e+02 2.541006710364180176e-05
7.617808904452225534e+02 2.513213146749449298e-05
7.626813406703350893e+02 2.491186476665039739e-05
7.635817908954477389e+02 2.471564480099434981e-05
7.644822411205602748e+02 2.447798123641379699e-05
7.653826913456728107e+02 2.419891916890956575e-05
7.662831415707853466e+02 2.395179091132320460e-05
7.671835917958978825e+02 2.384138672628548022e-05
7.680840420210104185e+02 2.392539219793517863e-05
7.689844922461230681e+02 2.417633363517401299e-05
7.698849424712356040e+02 2.451322866746344741e-05
7.707853926963481399e+02 2.488093684983036782e-05
7.716858429214606758e+02 2.522385172008252241e-05
7.725862931465732117e+02 2.538839632010895140e-05
7.734867433716858613e+02 2.525067630857015858e-05
7.743871935967983973e+02 2.488493457868659668e-05
7.752876438219109332e+02 2.450305323806559345e-05
7.761880940470234691e+02 2.428070871346908012e-05
7.770885442721360050e+02 2.420746043007584474e-05
7.779889944972485409e+02 2.410104055450091801e-05
7.788894447223611905e+02 2.381694055415800227e-05
7.797898949474737265e+02 2.341596505546778825e-05
7.806903451725862624e+02 2.306885656480950588e-05
7.815907953976987983e+02 2.287195644518180801e-05
7.824912456228113342e+02 2.276657389749530032e-05
7.833916958479238701e+02 2.262869335278873452e-05
7.842921460730365197e+02 2.237573152333489652e-05
7.851925962981490557e+02 2.202623013834723435e-05
7.860930465232615916e+02 2.167722246604792907e-05
7.869934967483741275e+02 2.142032940724821472e-05
7.878939469734866634e+02 2.130886874177383090e-05
7.887943971985993130e+02 2.136265006797894887e-05
7.896948474237118489e+02 2.157927080405344162e-05
7.905952976488243849e+02 2.195049283741489908e-05
7.914957478739369208e+02 2.244435403070891416e-05
7.923961980990494567e+02 2.297057671477639712e-05
7.932966483241619926e+02 2.342543822563947543e-05
7.941970985492746422e+02 2.378776415976049797e-05
7.950975487743871781e+02 2.407698285380188989e-05
7.959979989994997140e+02 2.427781113263970811e-05
7.968984492246122500e+02 2.439072019390367487e-05
7.977988994497247859e+02 2.446934070732237993e-05
7.986993496748374355e+02 2.453773503131637300e-05
7.995997998999499714e+02 2.454645761604104038e-05
8.005002501250625073e+02 2.448718597030032789e-05
8.014007003501750432e+02 2.439035233346514991e-05
8.023011505752875792e+02 2.421788753413746723e-05
8.032016008004001151e+02 2.390286045184651550e-05
8.041020510255127647e+02 2.346084971309312294e-05
8.050025012506253006e+02 2.297926621733428759e-05
8.059029514757378365e+02 2.251518894013243035e-05
8.068034017008503724e+02 2.208443627792587566e-05
8.077038519259629084e+02 2.171391450927392174e-05
8.086043021510754443e+02 2.143756156525361667e-05
8.095047523761880939e+02 2.130307529975225894e-05
8.104052026013006298e+02 2.135285935683590346e-05
8.113056528264131657e+02 2.152937480052628458e-05
8.122061030515257016e+02 2.168652296392313143e-05
8.131065532766382375e+02 2.172691591413166979e-05
8.140070035017508872e+02 2.165434893421238184e-05
8.149074537268634231e+02 2.151461103554221641e-05
8.158079039519759590e+02 2.134873109707841141e-05
8.167083541770884949e+02 2.121259619497454989e-05
8.176088044022010308e+02 2.115240661672669877e-05
8.185092546273135667e+02 2.117805036946592530e-05
8.194097048524262163e+02 2.128293951611108558e-05
8.203101550775387523e+02 2.140861941350493953e-05
8.212106053026512882e+02 2.146007589555830913e-05
8.221110555277638241e+02 2.142386181500261993e-05
8.230115057528763600e+02 2.141433937767075365e-05
8.239119559779890096e+02 2.153902130650721598e-05
8.248124062031015455e+02 2.176251854144286676e-05
8.257128564282140815e+02 2.195702003555287783e-05
8.266133066533266174e+02 2.203106387367292828e-05
8.275137568784391533e+02 2.197500478213193414e-05
8.284142071035516892e+02 2.184356793731324762e-05
8.293146573286643388e+02 2.168347512831440718e-05
8.302151075537768747e+02 2.147307211540565005e-05
8.311155577788894107e+02 2.118503454789199059e-05
8.320160080040019466e+02 2.085020869929362077e-05
8.329164582291144825e+02 2.057043907041741538e-05
8.338169084542270184e+02 2.043033668595041317e-05
8.347173586793396680e+02 2.041837145379477581e-05
8.356178089044522039e+02 2.047969509670560532e-05
8.365182591295647399e+02 2.059079790978001422e-05
8.374187093546772758e+02 2.071159315199914172e-05
8.383191595797898117e+02 2.081594361707287636e-05
8.392196098049024613e+02 2.092083067004822853e-05
8.401200600300149972e+02 2.096673165288900637e-05
8.410205102551275331e+02 2.086788070170803559e-05
8.419209604802400690e+02 2.066148159781313674e-05
8.428214107053526050e+02 2.045360900208688734e-05
8.437218609304651409e+02 2.033908297333615495e-05
8.446223111555777905e+02 2.038214919695040676e-05
8.455227613806903264e+02 2.056281477532835296e-05
8.464232116058028623e+02 2.080775108606332152e-05
8.473236618309153982e+02 2.104237085761094704e-05
8.482241120560279342e+02 2.118259953959041286e-05
8.491245622811405838e+02 2.116120810528065760e-05
8.500250125062531197e+02 2.101126325539784048e-05
8.509254627313656556e+02 2.087457350974092211e-05
8.518259129564781915e+02 2.086596956506087480e-05
8.527263631815907274e+02 2.096526336089868153e-05
8.536268134067032634e+02 2.108568805638602877e-05
8.545272636318159130e+02 2.118507039967328841e-05
8.554277138569284489e+02 2.125278110891863742e-05
8.563281640820409848e+02 2.128050862471695553e-05
8.572286143071535207e+02 2.124676773356900557e-05
8.581290645322660566e+02 2.113133622727473242e-05
8.590295147573785925e+02 2.093638960803665999e-05
8.599299649824912422e+02 2.073821097674962070e-05
8.608304152076037781e+02 2.068489409912373862e-05
8.617308654327163140e+02 2.089449947512513590e-05
8.626313156578288499e+02 2.137665931645604174e-05
8.635317658829413858e+02 2.202029487125607715e-05
8.644322161080540354e+02 2.264109331471845255e-05
8.653326663331665713e+02 2.306510263494887983e-05
8.662331165582791073e+02 2.324326734789143538e-05
8.671335667833916432e+02 2.330045072108311024e-05
8.680340170085041791e+02 2.334015657981058670e-05
8.689344672336167150e+02 2.331844847045286455e-05
8.698349174587293646e+02 2.317565307487734372e-05
8.707353676838419005e+02 2.294623731508400337e-05
8.716358179089544365e+02 2.272310004459195736e-05
8.725362681340669724e+02 2.257912718148123306e-05
8.734367183591795083e+02 2.252811597891125041e-05
8.743371685842921579e+02 2.257124147456433770e-05
8.752376188094046938e+02 2.271355821681454981e-05
8.761380690345172297e+02 2.294193309567444658e-05
8.770385192596297657e+02 2.323527802156822772e-05
8.779389694847423016e+02 2.355709895406799765e-05
8.788394197098548375e+02 2.382903187284412470e-05
8.797398699349674871e+02 2.397506784557099205e-05
8.806403201600800230e+02 2.403990231323221009e-05
8.815407703851925589e+02 2.413670430200150286e-05
8.824412206103050949e+02 2.429443711937598896e-05
8.833416708354176308e+02 2.447581901743225890e-05
8.842421210605301667e+02 2.469654368606629649e-05
8.851425712856428163e+02 2.496779565495432635e-05
8.860430215107553522e+02 2.520445428454975786e-05
8.869434717358678881e+02 2.530460859572418087e-05
8.878439219609804240e+02 2.528042976272208838e-05
8.887443721860929600e+02 2.528089745542821522e-05
8.896448224112056096e+02 2.546609045252643997e-05
8.905452726363181455e+02 2.587891283330620915e-05
8.914457228614306814e+02 2.643728971283322977e-05
8.923461730865432173e+02 2.705762660849446723e-05
8.932466233116557532e+02 2.772717777791847214e-05
8.941470735367682892e+02 2.842896395737287371e-05
8.950475237618809388e+02 2.909454024311815796e-05
8.959479739869934747e+02 2.957180410889239877e-05
8.968484242121060106e+02 2.974045265734485486e-05
8.977488744372185465e+02 2.969281997929735882e-05
8.986493246623310824e+02 2.958925542137001930e-05
8.995497748874437320e+02 2.945637061014957803e-05
9.004502251125562680e+02 2.923687727949307802e-05
9.013506753376688039e+02 2.896932753610004531e-05
9.022511255627813398e+02 2.881419768496158636e-05
9.031515757878938757e+02 2.890222725601271968e-05
9.040520260130064116e+02 2.920076766520219008e-05
9.049524762381190612e+02 2.954045225391516979e-05
9.058529264632315972e+02 2.977807918707451218e-05
9.067533766883441331e+02 2.993493303115962883e-05
9.076538269134566690e+02 3.010688019466164586e-05
9.085542771385692049e+02 3.034404528962431812e-05
9.094547273636817408e+02 3.067713535684641598e-05
9.103551775887943904e+02 3.114287973428719582e-05
9.112556278139069263e+02 3.174963556735836950e-05
9.121560780390194623e+02 3.249850922765148726e-05
9.130565282641319982e+02 3.338747970762638199e-05
9.139569784892445341e+02 3.432855059454413354e-05
9.148574287143571837e+02 3.518549969901026809e-05
9.157578789394697196e+02 3.584148970022723197e-05
9.166583291645822555e+02 3.620051751615045645e-05
9.175587793896947915e+02 3.624716337678481173e-05
9.184592296148073274e+02 3.611276066900849025e-05
9.193596798399198633e+02 3.602425275072142040e-05
9.202601300650325129e+02 3.615204517171416324e-05
9.211605802901450488e+02 3.659317421488915802e-05
9.220610305152575847e+02 3.741242509037718509e-05
9.229614807403701207e+02 3.850524670206079624e-05
9.238619309654826566e+02 3.959792967268825918e-05
9.247623811905953062e+02 4.043621741334786076e-05
9.256628314157078421e+02 4.082949910158789695e-05
9.265632816408203780e+02 4.077315398252282907e-05
9.274637318659329139e+02 4.049204660531685297e-05
9.283641820910454499e+02 4.024636226869974631e-05
9.292646323161579858e+02 4.021486006080342399e-05
9.301650825412706354e+02 4.035353957347986137e-05
9.310655327663831713e+02 4.044295811959423251e-05
9.319659829914957072e+02 4.030966041376006547e-05
9.328664332166082431e+02 3.994542669519467144e-05
9.337668834417207790e+02 3.951680264318693970e-05
9.346673336668334287e+02 3.927330068860853524e-05
9.355677838919459646e+02 3.940886550244355151e-05
9.364682341170585005e+02 4.001583796468900019e-05
9.373686843421710364e+02 4.104842165362174459e-05
9.382691345672835723e+02 4.226995607120630563e-05
9.391695847923961082e+02 4.342184243277111473e-05
9.400700350175087578e+02 4.445123626960901912e-05
9.409704852426212938e+02 4.547292447892680280e-05
9.418709354677338297e+02 4.651467126773260432e-05
9.427713856928463656e+02 4.749249034272373931e-05
9.436718359179589015e+02 4.850438590100183609e-05
9.445722861430714374e+02 4.972662231393500072e-05
9.454727363681840870e+02 5.115708666613860581e-05
9.463731865932966230e+02 5.263964594984134055e-05
9.472736368184091589e+02 5.391823336592788785e-05
9.481740870435216948e+02 5.479199040221139868e-05
9.490745372686342307e+02 5.524752300060681992e-05
9.499749874937468803e+02 5.540220322253641710e-05
9.508754377188594162e+02 5.541108730661269951e-05
9.517758879439719522e+02 5.535797054972230126e-05
9.526763381690844881e+02 5.535139642895982824e-05
9.535767883941970240e+02 5.566654409226681115e-05
9.544772386193095599e+02 5.653048717344027693e-05
9.553776888444222095e+02 5.794218643455549219e-05
9.562781390695347454e+02 5.955623887456916308e-05
9.571785892946472813e+02 6.082663643383947742e-05
9.580790395197598173e+02 6.157556021126206968e-05
9.589794897448723532e+02 6.202689697236411944e-05
9.598799399699850028e+02 6.222586773987277592e-05
9.607803901950975387e+02 6.207996336335020620e-05
9.616808404202100746e+02 6.176387087099429428e-05
9.625812906453226105e+02 6.167717703456573072e-05
9.634817408704351465e+02 6.203964746153954883e-05
9.643821910955476824e+02 6.279924425830755628e-05
9.652826413206603320e+02 6.382081875673560958e-05
9.661830915457728679e+02 6.490856251901247237e-05
9.670835417708854038e+02 6.579755771333769111e-05
9.679839919959979397e+02 6.619409739492109076e-05
9.688844422211104757e+02 6.596030543783462337e-05
9.697848924462230116e+02 6.534642960181200402e-05
9.706853426713356612e+02 6.493261165470899958e-05
9.715857928964481971e+02 6.531363014525103225e-05
9.724862431215607330e+02 6.680094490371111312e-05
9.733866933466732689e+02 6.922178994329821302e-05
9.742871435717858049e+02 7.199612759892183231e-05
9.751875937968984545e+02 7.449061813955092494e-05
9.760880440220109904e+02 7.648939240395024089e-05
9.769884942471235263e+02 7.818077902161379175e-05
9.778889444722360622e+02 7.963790590053273979e-05
9.787893946973485981e+02 8.072771795347312277e-05
9.796898449224611340e+02 8.169734320001766786e-05
9.805902951475737837e+02 8.300372663463216204e-05
9.814907453726863196e+02 8.460400747806130686e-05
9.823911955977988555e+02 8.608523505216334783e-05
9.832916458229113914e+02 8.717999853772373856e-05
9.841920960480239273e+02 8.778624275377578333e-05
9.850925462731365769e+02 8.796183203044721885e-05
9.859929964982491128e+02 8.790922956461087962e-05
9.868934467233616488e+02 8.781530244452868928e-05
9.877938969484741847e+02 8.786297880355863771e-05
9.886943471735867206e+02 8.821966393936301861e-05
9.895947973986992565e+02 8.893765827964230904e-05
9.904952476238119061e+02 9.010725746451286769e-05
9.913956978489244420e+02 9.179067708954881681e-05
9.922961480740369780e+02 9.381162659376569748e-05
9.931965982991495139e+02 9.590435631655649625e-05
9.940970485242620498e+02 9.791347893329437274e-05
9.949974987493745857e+02 9.982035698979467564e-05
9.958979489744872353e+02 1.016415313993124096e-04
9.967983991995997712e+02 1.034997684072813326e-04
9.976988494247123072e+02 1.056708723111828506e-04
9.985992996498248431e+02 1.082234114857610706e-04
9.994997498749373790e+02 1.107612690438721610e-04
1.000400200100050029e+03 1.129916024996235321e-04
1.001300650325162565e+03 1.150647731563507719e-04
1.002201100550275100e+03 1.173527815965033768e-04
1.003101550775387636e+03 1.201669115190056621e-04
1.004002001000500172e+03 1.232600249721495472e-04
1.004902451225612708e+03 1.257263136314113372e-04
1.005802901450725358e+03 1.269438438808707210e-04
1.006703351675837894e+03 1.274613540662722507e-04
1.007603801900950430e+03 1.282155173852491639e-04
1.008504252126062966e+03 1.295075991720690076e-04
1.009404702351175501e+03 1.311930927790513305e-04
1.010305152576288151e+03 1.331182507224323397e-04
1.011205602801400687e+03 1.352923803662857145e-04
1.012106053026513223e+03 1.376493607195699057e-04
1.013006503251625759e+03 1.397901889218863152e-04
1.013906953476738295e+03 1.415358283301429811e-04
1.014807403701850831e+03 1.435652317666254619e-04
1.015707853926963480e+03 1.468002148159432087e-04
1.016608304152076016e+03 1.512123907690071471e-04
1.017508754377188552e+03 1.557852973429062107e-04
1.018409204602301088e+03 1.593561349479364893e-04
1.019309654827413624e+03 1.613572093185725053e-04
1.020210105052526160e+03 1.622438136957271018e-04
1.021110555277638809e+03 1.631569702020760620e-04
1.022011005502751345e+03 1.646190444867716787e-04
1.022911455727863881e+03 1.664596249607233223e-04
1.023811905952976417e+03 1.684181859525300795e-04
1.024712356178089067e+03 1.703614517956021277e-04
1.025612806403201603e+03 1.726687002591400697e-04
1.026513256628314139e+03 1.761960040560760774e-04
1.027413706853426675e+03 1.814200369740648767e-04
1.028314157078539210e+03 1.880400396194314831e-04
1.029214607303651746e+03 1.952610774542819607e-04
1.030115057528764282e+03 2.018442012227294384e-04
1.031015507753876818e+03 2.070643639558021230e-04
1.031915957978989354e+03 2.113663478343153824e-04
1.032816408204101890e+03 2.150141051522127817e-04
1.033716858429214653e+03 2.181336318820902107e-04
1.034617308654327189e+03 2.215019304687835167e-04
1.035517758879439725e+03 2.258322971210551921e-04
1.036418209104552261e+03 2.311780436992656837e-04
1.037318659329664797e+03 2.369649933106825570e-04
1.038219109554777333e+03 2.427372919039321277e-04
1.039119559779889869e+03 2.490775180937580000e-04
1.040020010005002405e+03 2.571334185210502740e-04
1.040920460230114941e+03 2.674631445472048911e-04
1.041820910455227477e+03 2.794432928388561246e-04
1.042721360680340013e+03 2.915444345590526682e-04
1.043621810905452776e+03 3.025177373980877720e-04
1.044522261130565312e+03 3.116259548060879253e-04
1.045422711355677848e+03 3.182151898787610451e-04
1.046323161580790384e+03 3.224577948907914331e-04
1.047223611805902920e+03 3.255249775244682133e-04
1.048124062031015455e+03 3.284381590308654234e-04
1.049024512256127991e+03 3.320590966117289793e-04
1.049924962481240527e+03 3.373232205615208658e-04
1.050825412706353063e+03 3.449724895608748338e-04
1.051725862931465599e+03 3.546586998990656700e-04
1.052626313156578135e+03 3.637004586828527174e-04
1.053526763381690898e+03 3.690388183129904211e-04
1.054427213606803434e+03 3.706030018937180406e-04
1.055327663831915970e+03 3.706941080665722096e-04
1.056228114057028506e+03 3.713675708421206403e-04
1.057128564282141042e+03 3.737820555654809479e-04
1.058029014507253578e+03 3.789120729804024493e-04
1.058929464732366114e+03 3.876384743080796736e-04
1.059829914957478650e+03 3.997825120292176383e-04
1.060730365182591186e+03 4.136225152682767138e-04
1.061630815407703722e+03 4.275947902943228753e-04
1.062531265632816257e+03 4.413226871731221841e-04
1.063431715857929021e+03 4.549134832480111463e-04
1.064332166083041557e+03 4.687945876217971663e-04
1.065232616308154093e+03 4.830483143295494501e-04
1.066133066533266629e+03 4.968460632717584986e-04
1.067033516758379164e+03 5.094347746678288148e-04
1.067933966983491700e+03 5.202191073633380966e-04
1.068834417208604236e+03 5.288902502646311348e-04
1.069734867433716772e+03 5.348892654504603132e-04
1.070635317658829308e+03 5.369671202595509719e-04
1.071535767883941844e+03 5.349215569945153402e-04
1.072436218109054380e+03 5.296357138638594980e-04
1.073336668334167143e+03 5.225602528459840973e-04
1.074237118559279679e+03 5.160372322856453687e-04
1.075137568784392215e+03 5.119353923311168505e-04
1.076038019009504751e+03 5.109878683680701235e-04
1.076938469234617287e+03 5.119016659417969769e-04
1.077838919459729823e+03 5.117457515172802373e-04
1.078739369684842359e+03 5.097682511170451968e-04
1.079639819909954895e+03 5.078964965206114951e-04
1.080540270135067431e+03 5.082384536285683516e-04
1.081440720360179967e+03 5.122382119233240879e-04
1.082341170585292502e+03 5.194747405547036267e-04
1.083241620810405038e+03 5.279151240182910826e-04
1.084142071035517802e+03 5.365302959800414889e-04
1.085042521260630338e+03 5.461277323097969878e-04
1.085942971485742873e+03 5.580478901231109533e-04
1.086843421710855409e+03 5.728319869520983806e-04
1.087743871935967945e+03 5.897060418629857968e-04
1.088644322161080481e+03 6.072181425751720183e-04
1.089544772386193017e+03 6.236047361055270521e-04
1.090445222611305553e+03 6.364957231382724042e-04
1.091345672836418089e+03 6.437961265018057487e-04
1.092246123061530625e+03 6.468352241695976080e-04
1.093146573286643161e+03 6.497765817258803782e-04
1.094047023511755924e+03 6.545832201642398434e-04
1.094947473736868460e+03 6.603151963501436867e-04
1.095847923961980996e+03 6.645476231132988387e-04
1.096748374187093532e+03 6.637816252050177546e-04
1.097648824412206068e+03 6.568701088741478065e-04
1.098549274637318604e+03 6.465978616413633508e-04
1.099449724862431140e+03 6.356352580457826128e-04
1.100350175087543676e+03 6.242501172381572467e-04
1.101250625312656211e+03 6.126578120084356016e-04
1.102151075537768747e+03 6.012944665067212124e-04
1.103051525762881283e+03 5.895819436763393741e-04
1.103951975987994047e+03 5.759108027029172716e-04
1.104852426213106583e+03 5.581091969618243382e-04
1.105752876438219118e+03 5.365626702505598908e-04
1.106653326663331654e+03 5.136401255295524595e-04
1.107553776888444190e+03 4.918330537966725258e-04
1.108454227113556726e+03 4.730235028272771446e-04
1.109354677338669262e+03 4.570790514325948832e-04
1.110255127563781798e+03 4.429043113447468996e-04
1.111155577788894334e+03 4.293657306220231883e-04
1.112056028014006870e+03 4.157507416120576212e-04
1.112956478239119406e+03 4.026384804917086256e-04
1.113856928464232169e+03 3.904784258093896309e-04
1.114757378689344705e+03 3.787605682965405353e-04
1.115657828914457241e+03 3.670376502799081167e-04
1.116558279139569777e+03 3.558924363685390274e-04
1.117458729364682313e+03 3.467342410363024262e-04
1.118359179589794849e+03 3.405599189088336174e-04
1.119259629814907385e+03 3.369380149732670976e-04
1.120160080040019920e+03 3.335214469431011072e-04
1.121060530265132456e+03 3.285686573167418377e-04
1.121960980490244992e+03 3.226482009617661945e-04
1.122861430715357528e+03 3.170671001318610600e-04
1.123761880940470292e+03 3.131292071539579854e-04
1.124662331165582827e+03 3.109969602297286452e-04
1.125562781390695363e+03 3.090867238365159280e-04
1.126463231615807899e+03 3.049370784437959716e-04
1.127363681840920435e+03 2.965311128451210486e-04
1.128264132066032971e+03 2.845177395728999649e-04
1.129164582291145507e+03 2.716530804963666348e-04
1.130065032516258043e+03 2.592455723206280797e-04
1.130965482741370579e+03 2.467131661780159221e-04
1.131865932966483115e+03 2.333395059002433246e-04
1.132766383191595651e+03 2.195129873869736917e-04
1.133666833416708187e+03 2.069952617221745513e-04
1.134567283641820950e+03 1.968293447262681563e-04
1.135467733866933486e+03 1.887973248843145076e-04
1.136368184092046022e+03 1.825219888037471841e-04
1.137268634317158558e+03 1.775942123350060444e-04
1.138169084542271094e+03 1.737665565061890887e-04
1.139069534767383630e+03 1.709541251384048095e-04
1.139969984992496165e+03 1.680434055740772693e-04
1.140870435217608701e+03 1.634742962692823959e-04
1.141770885442721237e+03 1.571105918045678535e-04
1.142671335667833773e+03 1.496765591918811490e-04
1.143571785892946309e+03 1.415488971655760365e-04
1.144472236118059072e+03 1.328925500881503110e-04
1.145372686343171608e+03 1.244511778102533155e-04
1.146273136568284144e+03 1.172792394195335555e-04
1.147173586793396680e+03 1.118482771413640203e-04
1.148074037018509216e+03 1.078152868865557546e-04
1.148974487243621752e+03 1.045898142443887761e-04
1.149874937468734288e+03 1.018847633746321180e-04
1.150775387693846824e+03 9.942208718025315379e-05
1.151675837918959360e+03 9.673959269941658802e-05
1.152576288144071896e+03 9.359699020845025925e-05
1.153476738369184432e+03 9.018054380331481815e-05
1.154377188594297195e+03 8.694899972200677892e-05
1.155277638819409731e+03 8.435232519443586804e-05
1.156178089044522267e+03 8.254822217425482008e-05
1.157078539269634803e+03 8.141977622815945467e-05
1.157978989494747339e+03 8.068397384776906781e-05
1.158879439719859874e+03 7.989610168516077520e-05
1.159779889944972410e+03 7.862980748279995357e-05
1.160680340170084946e+03 7.693099837342586608e-05
1.161580790395197482e+03 7.524009376475703111e-05
1.162481240620310018e+03 7.400825605144503445e-05
1.163381690845422554e+03 7.339349532792879968e-05
1.164282141070535317e+03 7.310184100012318313e-05
1.165182591295647853e+03 7.296805119246324253e-05
1.166083041520760389e+03 7.328763437068744118e-05
1.166983491745872925e+03 7.422932198130969400e-05
1.167883941970985461e+03 7.552396158817204570e-05
1.168784392196097997e+03 7.684499083401879387e-05
1.169684842421210533e+03 7.821094969236198088e-05
1.170585292646323069e+03 7.963875696408466084e-05
1.171485742871435605e+03 8.086468247261316216e-05
1.172386193096548141e+03 8.178111723546902195e-05
1.173286643321660677e+03 8.251426920848879698e-05
1.174187093546773440e+03 8.304050713464915289e-05
1.175087543771885976e+03 8.332094741754867827e-05
1.175987993996998512e+03 8.361008580007637473e-05
1.176888444222111048e+03 8.419382682216288555e-05
1.177788894447223583e+03 8.534365134206356289e-05
1.178689344672336119e+03 8.735238141342596197e-05
1.179589794897448655e+03 9.014748882853783135e-05
1.180490245122561191e+03 9.306616018248784514e-05
1.181390695347673727e+03 9.541827168486847750e-05
1.182291145572786263e+03 9.723131938297111107e-05
1.183191595797898799e+03 9.915277175117304727e-05
1.184092046023011562e+03 1.018362516277917422e-04
1.184992496248124098e+03 1.055167741507374358e-04
1.185892946473236634e+03 1.099041831881522119e-04
1.186793396698349170e+03 1.144729966063013884e-04
1.187693846923461706e+03 1.189392240150060427e-04
1.188594297148574242e+03 1.232791880659113242e-04
1.189494747373686778e+03 1.274748334902391816e-04
1.190395197598799314e+03 1.313174720954884782e-04
1.191295647823911850e+03 1.343010938221299430e-04
1.192196098049024386e+03 1.361473143544261798e-04
1.193096548274136921e+03 1.369902405459548739e-04
1.193996998499249457e+03 1.370766085250343447e-04
1.194897448724362221e+03 1.368252179444176726e-04
1.195797898949474757e+03 1.368547172549764693e-04
1.196698349174587293e+03 1.375925529702290884e-04
1.197598799399699828e+03 1.392866985916345400e-04
1.198499249624812364e+03 1.421358942757636776e-04
1.199399699849924900e+03 1.459305716560490565e-04
1.200300150075037436e+03 1.499993057533996206e-04
1.201200600300149972e+03 1.540331467594579194e-04
1.202101050525262508e+03 1.584528510846832316e-04
1.203001500750375044e+03 1.637655102709587214e-04
1.203901950975487580e+03 1.700797031283927583e-04
1.204802401200600343e+03 1.768098221928727522e-04
1.205702851425712879e+03 1.827422259675430506e-04
1.206603301650825415e+03 1.869880041916481604e-04
1.207503751875937951e+03 1.895901626550018594e-04
1.208404202101050487e+03 1.908315556604579159e-04
1.209304652326163023e+03 1.910810646388443892e-04
1.210205102551275559e+03 1.911751208826675894e-04
1.211105552776388095e+03 1.918494116939531923e-04
1.212006003001500630e+03 1.931883735845716244e-04
1.212906453226613166e+03 1.945634121830583016e-04
1.213806903451725702e+03 1.954922008079640794e-04
1.214707353676838466e+03 1.959562744638525028e-04
1.215607803901951002e+03 1.959440135256960861e-04
1.216508254127063537e+03 1.962265590019421216e-04
1.217408704352176073e+03 1.984488127778659741e-04
1.218309154577288609e+03 2.034408767880414393e-04
1.219209604802401145e+03 2.105810193632613151e-04
1.220110055027513681e+03 2.193093110751826997e-04
1.221010505252626217e+03 2.300369095180824618e-04
1.221910955477738753e+03 2.421213855727137934e-04
1.222811405702851289e+03 2.528444002463939235e-04
1.223711855927963825e+03 2.601198626256148814e-04
1.224612306153076588e+03 2.653128345107591307e-04
1.225512756378189124e+03 2.719512990046898081e-04
1.226413206603301660e+03 2.825218130814297003e-04
1.227313656828414196e+03 2.970902583186139662e-04
1.228214107053526732e+03 3.133266679505328852e-04
1.229114557278639268e+03 3.283807720281992602e-04
1.230015007503751804e+03 3.416373180259687820e-04
1.230915457728864340e+03 3.536821786823152202e-04
1.231815907953976875e+03 3.643193110809673477e-04
1.232716358179089411e+03 3.739283870057165241e-04
1.233616808404201947e+03 3.841206816182136962e-04
1.234517258629314711e+03 3.962783079387105175e-04
1.235417708854427246e+03 4.106929644194871323e-04
1.236318159079539782e+03 4.273052869915837664e-04
1.237218609304652318e+03 4.456453236237929586e-04
1.238119059529764854e+03 4.641716283847478666e-04
1.239019509754877390e+03 4.810594573424466724e-04
1.239919959979989926e+03 4.957780114284097549e-04
1.240820410205102462e+03 5.092740393783219905e-04
1.241720860430214998e+03 5.228698420541634008e-04
1.242621310655327534e+03 5.370363250939382731e-04
1.243521760880440070e+03 5.513515524433895915e-04
1.244422211105552606e+03 5.650653471763727315e-04
1.245322661330665369e+03 5.771610322488282541e-04
1.246223111555777905e+03 5.872033697103359222e-04
1.247123561780890441e+03 5.960191585047017009e-04
1.248024012006002977e+03 6.047452939215796318e-04
1.248924462231115513e+03 6.132889016587549568e-04
1.249824912456228049e+03 6.198544915083703316e-04
1.250725362681340584e+03 6.226575372367881356e-04
1.251625812906453120e+03 6.216227179045340570e-04
1.252526263131565656e+03 6.186179328894871390e-04
1.253426713356678192e+03 6.157423591176824917e-04
1.254327163581790728e+03 6.141874677280911550e-04
1.255227613806903491e+03 6.148594426151177779e-04
1.256128064032016027e+03 6.186737400460161438e-04
1.257028514257128563e+03 6.266135094377869169e-04
1.257928964482241099e+03 6.387513010817974166e-04
1.258829414707353635e+03 6.528719162996771564e-04
1.259729864932466171e+03 6.665032879501817499e-04
1.260630315157578707e+03 6.791936323235939037e-04
1.261530765382691243e+03 6.912925264335436021e-04
1.262431215607803779e+03 7.015877395515562149e-04
1.263331665832916315e+03 7.087971323342128665e-04
1.264232116058028851e+03 7.144071400563154145e-04
1.265132566283141614e+03 7.207279275573184960e-04
1.266033016508254150e+03 7.288660978954254873e-04
1.266933466733366686e+03 7.393855659025311711e-04
1.267833916958479222e+03 7.519625280953677908e-04
1.268734367183591758e+03 7.647883692271561975e-04
1.269634817408704293e+03 7.768440504077888959e-04
1.270535267633816829e+03 7.880082319503984309e-04
1.271435717858929365e+03 7.975005131293975112e-04
1.272336168084041901e+03 8.044367248908982368e-04
1.273236618309154437e+03 8.091339525093651846e-04
1.274137068534266973e+03 8.126942531771476309e-04
1.275037518759379736e+03 8.168573835360768559e-04
1.275937968984492272e+03 8.235009752191385299e-04
1.276838419209604808e+03 8.340239639840504957e-04
1.277738869434717344e+03 8.490400711398945555e-04
1.278639319659829880e+03 8.671164813600141553e-04
1.279539769884942416e+03 8.864708702156275186e-04
1.280440220110054952e+03 9.067151209711888987e-04
1.281340670335167488e+03 9.267375768516132031e-04
1.282241120560280024e+03 9.448169011540038641e-04
1.283141570785392560e+03 9.610303412476255136e-04
1.284042021010505096e+03 9.773598757400251118e-04
1.284942471235617859e+03 9.963040373321416579e-04
1.285842921460730395e+03 1.018889075069011807e-03
1.286743371685842931e+03 1.043815717268406149e-03
1.287643821910955467e+03 1.068390272655091655e-03
1.288544272136068003e+03 1.089558137463952350e-03
1.289444722361180538e+03 1.105274661916032025e-03
1.290345172586293074e+03 1.115553044378173476e-03
1.291245622811405610e+03 1.120984893693590268e-03
1.292146073036518146e+03 1.122535636520214600e-03
1.293046523261630682e+03 1.122809011308802205e-03
1.293946973486743218e+03 1.123632968437267721e-03
1.294847423711855754e+03 1.125092498462563605e-03
1.295747873936968517e+03 1.127656139861065322e-03
1.296648324162081053e+03 1.132595902972635595e-03
1.297548774387193589e+03 1.140315134563622866e-03
1.298449224612306125e+03 1.150140544811394149e-03
1.299349674837418661e+03 1.162498992207928756e-03
1.300250125062531197e+03 1.177873630495943503e-03
1.301150575287643733e+03 1.194940130419933338e-03
1.302051025512756269e+03 1.210845496535454570e-03
1.302951475737868805e+03 1.222725021856460896e-03
1.303851925962981340e+03 1.230833646107062787e-03
1.304752376188093876e+03 1.238059015730555868e-03
1.305652826413206640e+03 1.247948729641560305e-03
1.306553276638319176e+03 1.264047610697686778e-03
1.307453726863431712e+03 1.288188935258026413e-03
1.308354177088544247e+03 1.320188435585500312e-03
1.309254627313656783e+03 1.357660664219278003e-03
1.310155077538769319e+03 1.396436741931154349e-03
1.311055527763881855e+03 1.433801848341172006e-03
1.311955977988994391e+03 1.469084879977987671e-03
1.312856428214106927e+03 1.502391341558696313e-03
1.313756878439219463e+03 1.535417254118633329e-03
1.314657328664331999e+03 1.571589782353104365e-03
1.315557778889444762e+03 1.613189628993926938e-03
1.316458229114557298e+03 1.657934345245231722e-03
1.317358679339669834e+03 1.700467236774028329e-03
1.318259129564782370e+03 1.739584573968716488e-03
1.319159579789894906e+03 1.779540370361914993e-03
1.320060030015007442e+03 1.823643997631217879e-03
1.320960480240119978e+03 1.872651499781261865e-03
1.321860930465232514e+03 1.926848810938725128e-03
1.322761380690345050e+03 1.986707159976490271e-03
1.323661830915457585e+03 2.053874686267175270e-03
1.324562281140570121e+03 2.128813929491211662e-03
1.325462731365682885e+03 2.206931609572146749e-03
1.326363181590795421e+03 2.281388855769500915e-03
1.327263631815907956e+03 2.348994330306546953e-03
1.328164082041020492e+03 2.410788721061774172e-03
1.329064532266133028e+03 2.469197408296364832e-03
1.329964982491245564e+03 2.527741898446116998e-03
1.330865432716358100e+03 2.590070509345002246e-03
1.331765882941470636e+03 2.661074547131533474e-03
1.332666333166583172e+03 2.743629019763867659e-03
1.333566783391695708e+03 2.832848804180884434e-03
1.334467233616808244e+03 2.920707604502742385e-03
1.335367683841921007e+03 3.005291538018009696e-03
1.336268134067033543e+03 3.092027800470608864e-03
1.337168584292146079e+03 3.185007661571142602e-03
1.338069034517258615e+03 3.278691245207821740e-03
1.338969484742371151e+03 3.367727655359678031e-03
1.339869934967483687e+03 3.458988240275012640e-03
1.340770385192596223e+03 3.565755187257066937e-03
1.341670835417708759e+03 3.697750893257596011e-03
1.342571285642821294e+03 3.852331677369362061e-03
1.343471735867933830e+03 4.017380749330732095e-03
1.344372186093046366e+03 4.180534101137571047e-03
1.345272636318158902e+03 4.332300949141974084e-03
1.346173086543271666e+03 4.470011810579359139e-03
1.347073536768384201e+03 4.598011741058023044e-03
1.347973986993496737e+03 4.722839751464679922e-03
1.348874437218609273e+03 4.855009515320760430e-03
1.349774887443721809e+03 5.012788588298871216e-03
1.350675337668834345e+03 5.215093223740434672e-03
1.351575787893946881e+03 5.462147589749086034e-03
1.352476238119059417e+03 5.730977129777384098e-03
1.353376688344171953e+03 5.995247579659581175e-03
1.354277138569284489e+03 6.234519115633301543e-03
1.355177588794397025e+03 6.435999141801308950e-03
1.356078039019509788e+03 6.613195304999496676e-03
1.356978489244622324e+03 6.798967222221025813e-03
1.357878939469734860e+03 7.014678708665508106e-03
1.358779389694847396e+03 7.264056216261950694e-03
1.359679839919959932e+03 7.544591286289710486e-03
1.360580290145072468e+03 7.856053896242136056e-03
1.361480740370185003e+03 8.195575315087209878e-03
1.362381190595297539e+03 8.557171508243794841e-03
1.363281640820410075e+03 8.933870058112398579e-03
1.364182091045522611e+03 9.320652240343620457e-03
1.365082541270635147e+03 9.718452694708305459e-03
1.365982991495747910e+03 1.012477560036033168e-02
1.366883441720860446e+03 1.052684741765726011e-02
1.367783891945972982e+03 1.091282475526654007e-02
1.368684342171085518e+03 1.128638658628164024e-02
1.369584792396198054e+03 1.167928034444650973e-02
1.370485242621310590e+03 1.212158345228494215e-02
1.371385692846423126e+03 1.259167184614550308e-02
1.372286143071535662e+03 1.305238967078833738e-02
1.373186593296648198e+03 1.351810228712730516e-02
1.374087043521760734e+03 1.401351474178470259e-02
1.374987493746873270e+03 1.453882137911206851e-02
1.375887943971986033e+03 1.508827414731806794e-02
1.376788394197098569e+03 1.565843075120194189e-02
1.377688844422211105e+03 1.626777844584543012e-02
1.378589294647323641e+03 1.692739246491332256e-02
1.379489744872436177e+03 1.763287245891627733e-02
1.380390195097548713e+03 1.843878532696732048e-02
1.381290645322661248e+03 1.944124065457828593e-02
1.382191095547773784e+03 2.067598945513987596e-02
1.383091545772886320e+03 2.209580268195668676e-02
1.383991995997998856e+03 2.361611988662734238e-02
1.384892446223111392e+03 2.513814794253805066e-02
1.385792896448224155e+03 2.659653075209665943e-02
1.386693346673336691e+03 2.798117814873282705e-02
1.387593796898449227e+03 2.934027518025271453e-02
1.388494247123561763e+03 3.073560589297224394e-02
1.389394697348674299e+03 3.214290777511963348e-02
1.390295147573786835e+03 3.356632447634577687e-02
1.391195597798899371e+03 3.506562154202100962e-02
1.392096048024011907e+03 3.658638502173419682e-02
1.392996498249124443e+03 3.807654091883603403e-02
1.393896948474236979e+03 3.964723006181246345e-02
1.394797398699349515e+03 4.144029987756645689e-02
1.395697848924462278e+03 4.342468711977854473e-02
1.396598299149574814e+03 4.538014606592728067e-02
1.397498749374687350e+03 4.705800838703301514e-02
1.398399199599799886e+03 4.825413449255260001e-02
1.399299649824912422e+03 4.874126143271525352e-02
1.400200100050024957e+03 4.825451091262958347e-02
1.401100550275137493e+03 4.678022445562168841e-02
1.402001000500250029e+03 4.467986452408648917e-02
1.402901450725362565e+03 4.230951415197721499e-02
1.403801900950475101e+03 3.981624447561740721e-02
1.404702351175587637e+03 3.726962654517919360e-02
1.405602801400700173e+03 3.463683328365416841e-02
1.406503251625812936e+03 3.183997691169644650e-02
1.407403701850925472e+03 2.897016572815722807e-02
1.408304152076038008e+03 2.616226159961045766e-02
1.409204602301150544e+03 2.343637386641386766e-02
1.410105052526263080e+03 2.083601833552246180e-02
1.411005502751375616e+03 1.847731147575428293e-02
1.411905952976488152e+03 1.644047103888092443e-02
1.412806403201600688e+03 1.473070961929101932e-02
1.413706853426713224e+03 1.331067696405744717e-02
1.414607303651825760e+03 1.212854693873139690e-02
1.415507753876938295e+03 1.112824322266369077e-02
1.416408204102051059e+03 1.025849850462157847e-02
1.417308654327163595e+03 9.494920779890917914e-03
1.418209104552276131e+03 8.820036888841597394e-03
1.419109554777388666e+03 8.205045287241734958e-03
1.420010005002501202e+03 7.628968485552975291e-03
1.420910455227613738e+03 7.091636550811277785e-03
1.421810905452726274e+03 6.611633757597099210e-03
1.422711355677838810e+03 6.199920793889879440e-03
1.423611805902951346e+03 5.844642854336772921e-03
1.424512256128063882e+03 5.520075154665596458e-03
1.425412706353176418e+03 5.209050258469319523e-03
1.426313156578289181e+03 4.914529695955210942e-03
1.427213606803401717e+03 4.638094604346587255e-03
1.428114057028514253e+03 4.380084386872029438e-03
1.429014507253626789e+03 4.150844194325766304e-03
1.429914957478739325e+03 3.955122322881287830e-03
1.430815407703851861e+03 3.786144346319646539e-03
1.431715857928964397e+03 3.635920271553522241e-03
1.432616308154076933e+03 3.499031799511885185e-03
1.433516758379189469e+03 3.370687926395660519e-03
1.434417208604302004e+03 3.246340108696939807e-03
1.435317658829414540e+03 3.127190778831315590e-03
1.436218109054527304e+03 3.022241969879952989e-03
1.437118559279639840e+03 2.934383153940348359e-03
1.438019009504752376e+03 2.855543001906634022e-03
1.438919459729864911e+03 2.774498539911525886e-03
1.439819909954977447e+03 2.688039763950470732e-03
1.440720360180089983e+03 2.602463926281292292e-03
1.441620810405202519e+03 2.518350891715114004e-03
1.442521260630315055e+03 2.432556014263583585e-03
1.443421710855427591e+03 2.348665299059619731e-03
1.444322161080540127e+03 2.271045573406673453e-03
1.445222611305652663e+03 2.197579057905731277e-03
1.446123061530765426e+03 2.125207947182615811e-03
1.447023511755877962e+03 2.057932042811429912e-03
1.447923961980990498e+03 2.002423765977566668e-03
1.448824412206103034e+03 1.959295239490503170e-03
1.449724862431215570e+03 1.923405962564260496e-03
1.450625312656328106e+03 1.888639362701348022e-03
1.451525762881440642e+03 1.851220004300328098e-03
1.452426213106553178e+03 1.811979314831519165e-03
1.453326663331665713e+03 1.776062146516340420e-03
1.454227113556778249e+03 1.747749753615040645e-03
1.455127563781890785e+03 1.727188162928168947e-03
1.456028014007003321e+03 1.708781316854200791e-03
1.456928464232116085e+03 1.684222624203794748e-03
1.457828914457228620e+03 1.649357526138601386e-03
1.458729364682341156e+03 1.606371394563513256e-03
1.459629814907453692e+03 1.561057653470307623e-03
1.460530265132566228e+03 1.520351874320492822e-03
1.461430715357678764e+03 1.486486841752208054e-03
1.462331165582791300e+03 1.452199113330719313e-03
1.463231615807903836e+03 1.410759543327148391e-03
1.464132066033016372e+03 1.363093672582751329e-03
1.465032516258128908e+03 1.313296307193832042e-03
1.465932966483241444e+03 1.264821926087808393e-03
1.466833416708354207e+03 1.221524652302059897e-03
1.467733866933466743e+03 1.186599436624272098e-03
1.468634317158579279e+03 1.158742441738065763e-03
1.469534767383691815e+03 1.134821929511054114e-03
1.470435217608804351e+03 1.114300923775782140e-03
1.471335667833916887e+03 1.099122293785115279e-03
1.472236118059029423e+03 1.089329700810079014e-03
1.473136568284141958e+03 1.080035187918274497e-03
1.474037018509254494e+03 1.067272878972504776e-03
1.474937468734367030e+03 1.052788943147117511e-03
1.475837918959479566e+03 1.038200858157880017e-03
1.476738369184592329e+03 1.021781325963913231e-03
1.477638819409704865e+03 1.004783564506279590e-03
1.478539269634817401e+03 9.911538969514708218e-04
1.479439719859929937e+03 9.812094387241334422e-04
1.480340170085042473e+03 9.716250694152369543e-04
1.481240620310155009e+03 9.583302875485112280e-04
1.482141070535267545e+03 9.391247743847935424e-04
1.483041520760380081e+03 9.159480345502950044e-04
1.483941970985492617e+03 8.937681194432835772e-04
1.484842421210605153e+03 8.772269051323023812e-04
1.485742871435717689e+03 8.656650658465134089e-04
1.486643321660830452e+03 8.537794814955336964e-04
1.487543771885942988e+03 8.402385789267214364e-04
1.488444222111055524e+03 8.285011043629670951e-04
1.489344672336168060e+03 8.194470998166251833e-04
1.490245122561280596e+03 8.103458546066203555e-04
1.491145572786393132e+03 7.989511597896763921e-04
1.492046023011505667e+03 7.855800143187496604e-04
1.492946473236618203e+03 7.708436373924662868e-04
1.493846923461730739e+03 7.549637369179248905e-04
1.494747373686843275e+03 7.395945909494559215e-04
1.495647823911955811e+03 7.278023946278095379e-04
1.496548274137068574e+03 7.216293339618599012e-04
1.497448724362181110e+03 7.192835662023461078e-04
1.498349174587293646e+03 7.169516789327687973e-04
1.499249624812406182e+03 7.121176383814640772e-04
1.500150075037518718e+03 7.032773150360447593e-04
1.501050525262631254e+03 6.910311126908965903e-04
1.501950975487743790e+03 6.785472002341996029e-04
1.502851425712856326e+03 6.687263039652531623e-04
1.503751875937968862e+03 6.624547691931377156e-04
1.504652326163081398e+03 6.582523955607933342e-04
1.505552776388193934e+03 6.536695186002968805e-04
1.506453226613306470e+03 6.469956746071444872e-04
1.507353676838419233e+03 6.374282590413053295e-04
1.508254127063531769e+03 6.251311672460827754e-04
1.509154577288644305e+03 6.114572629163373936e-04
1.510055027513756841e+03 5.973562347897060738e-04
1.510955477738869376e+03 5.831999814289771066e-04
1.511855927963981912e+03 5.701321283037009925e-04
1.512756378189094448e+03 5.591241721543270711e-04
1.513656828414206984e+03 5.502035402454155460e-04
1.514557278639319520e+03 5.428132349112516465e-04
1.515457728864432056e+03 5.353456758374389689e-04
1.516358179089544592e+03 5.266328288163456012e-04
1.517258629314657355e+03 5.174609671678716922e-04
1.518159079539769891e+03 5.097964928921376636e-04
1.519059529764882427e+03 5.044722548974679916e-04
1.519959979989994963e+03 5.007536053717347776e-04
1.520860430215107499e+03 4.979766930950715875e-04
1.521760880440220035e+03 4.954669288979077733e-04
1.522661330665332571e+03 4.921772318932613214e-04
1.523561780890445107e+03 4.867085955405796630e-04
1.524462231115557643e+03 4.785330605448317423e-04
1.525362681340670179e+03 4.692228156382014436e-04
1.526263131565782714e+03 4.608944982232258004e-04
1.527163581790895478e+03 4.545070813725409658e-04
1.528064032016008014e+03 4.494601844568920854e-04
1.528964482241120550e+03 4.445040541670510783e-04
1.529864932466233086e+03 4.391902994978441155e-04
1.530765382691345621e+03 4.341304269394474107e-04
1.531665832916458157e+03 4.298401928597768320e-04
1.532566283141570693e+03 4.260718736139477102e-04
1.533466733366683229e+03 4.234346408779451529e-04
1.534367183591795765e+03 4.229255629285415025e-04
1.535267633816908301e+03 4.245975464560001610e-04
1.536168084042020837e+03 4.275059842022311141e-04
1.537068534267133600e+03 4.302207951302396290e-04
1.537968984492246136e+03 4.320757861307776885e-04
1.538869434717358672e+03 4.322505198264816272e-04
1.539769884942471208e+03 4.295182752011671287e-04
1.540670335167583744e+03 4.241139841233641230e-04
1.541570785392696280e+03 4.174193785336348665e-04
1.542471235617808816e+03 4.109575883173458379e-04
1.543371685842921352e+03 4.056488568607228271e-04
1.544272136068033888e+03 4.009933740538260409e-04
1.545172586293146423e+03 3.956753667159258097e-04
1.546073036518258959e+03 3.888713282188348123e-04
1.546973486743371723e+03 3.811778807941930197e-04
1.547873936968484259e+03 3.746482281988519538e-04
1.548774387193596795e+03 3.710876909669199447e-04
1.549674837418709330e+03 3.706823504001745327e-04
1.550575287643821866e+03 3.723629472773072645e-04
1.551475737868934402e+03 3.745010827280597114e-04
1.552376188094046938e+03 3.757354698974905809e-04
1.553276638319159474e+03 3.748804868645133474e-04
1.554177088544272010e+03 3.715685991578224407e-04
1.555077538769384546e+03 3.673556005297724846e-04
1.555977988994497082e+03 3.643730643295998366e-04
1.556878439219609618e+03 3.634155255550049679e-04
1.557778889444722381e+03 3.642750491304174039e-04
1.558679339669834917e+03 3.669551362483946459e-04
1.559579789894947453e+03 3.715778277413876360e-04
1.560480240120059989e+03 3.778939780847115522e-04
1.561380690345172525e+03 3.855153033409571277e-04
1.562281140570285061e+03 3.941229695252712151e-04
1.563181590795397597e+03 4.030236976759960974e-04
1.564082041020510133e+03 4.112123849271219077e-04
1.564982491245622668e+03 4.178325739521765642e-04
1.565882941470735204e+03 4.210959393109508717e-04
1.566783391695847740e+03 4.179296132642357697e-04
1.567683841920960504e+03 4.066458951327103799e-04
1.568584292146073039e+03 3.882848414661375707e-04
1.569484742371185575e+03 3.664180208217313571e-04
1.570385192596298111e+03 3.447511151359452315e-04
1.571285642821410647e+03 3.235951999278885156e-04
1.572186093046523183e+03 3.007290561450749310e-04
1.573086543271635719e+03 2.745247397024747852e-04
1.573986993496748255e+03 2.451528385879342279e-04
1.574887443721860791e+03 2.150467689361318499e-04
1.575787893946973327e+03 1.872462451162900201e-04
1.576688344172085863e+03 1.632962498761867753e-04
1.577588794397198626e+03 1.434820650976253488e-04
1.578489244622311162e+03 1.275974738840583689e-04
1.579389694847423698e+03 1.151481724144379134e-04
1.580290145072536234e+03 1.054508382954016975e-04
1.581190595297648770e+03 9.782022282148344103e-05
1.582091045522761306e+03 9.170181410052944304e-05
1.582991495747873842e+03 8.669246912622288368e-05
1.583891945972986377e+03 8.250940593175758739e-05
1.584792396198098913e+03 7.895433717153979634e-05
1.585692846423211449e+03 7.588622328150493703e-05
1.586593296648323985e+03 7.320280735779733771e-05
1.587493746873436749e+03 7.082846755100783180e-05
1.588394197098549284e+03 6.870621469101912901e-05
1.589294647323661820e+03 6.679234935894558830e-05
1.590195097548774356e+03 6.505283056277280033e-05
1.591095547773886892e+03 6.346076079271682183e-05
1.591995997998999428e+03 6.199461185196766745e-05
1.592896448224111964e+03 6.063695126688437595e-05
1.593796898449224500e+03 5.937351309564786728e-05
1.594697348674337036e+03 5.819250977962749533e-05
1.595597798899449572e+03 5.708411543639422609e-05
1.596498249124562108e+03 5.604007293202615332e-05
1.597398699349674871e+03 5.505339157237027533e-05
1.598299149574787407e+03 5.411811199691486099e-05
1.599199599799899943e+03 5.322912150845371116e-05
1.600100050025012479e+03 5.238200767655747683e-05
1.601000500250125015e+03 5.157294128590559111e-05
1.601900950475237551e+03 5.079858199996782213e-05
1.602801400700350086e+03 5.005600176584135548e-05
1.603701850925462622e+03 4.934262219123615760e-05
1.604602301150575158e+03 4.865616301143171478e-05
1.605502751375687694e+03 4.799459942315403176e-05
1.606403201600800230e+03 4.735612655677975719e-05
1.607303651825912766e+03 4.673912973250096762e-05
1.608204102051025529e+03 4.614215943167534703e-05
1.609104552276138065e+03 4.556391013423784241e-05
1.610005002501250601e+03 4.500320234322657478e-05
1.610905452726363137e+03 4.445896725029059782e-05
1.611805902951475673e+03 4.393023360031599907e-05
1.612706353176588209e+03 4.341611639576828044e-05
1.613606803401700745e+03 4.291580714687238154e-05
1.614507253626813281e+03 4.242856542616624331e-05
1.615407703851925817e+03 4.195371152810074421e-05
1.616308154077038353e+03 4.149062006839581682e-05
1.617208604302150889e+03 4.103871438551275709e-05
1.618109054527263652e+03 4.059746162916536553e-05
1.619009504752376188e+03 4.016636843925747098e-05
1.619909954977488724e+03 3.974497713386801793e-05
1.620810405202601260e+03 3.933286233746216152e-05
1.621710855427713796e+03 3.892962799094166435e-05
1.622611305652826331e+03 3.853490469383426574e-05
1.623511755877938867e+03 3.814834733618017754e-05
1.624412206103051403e+03 3.776963298376302414e-05
1.625312656328163939e+03 3.739845898545675497e-05
1.626213106553276475e+03 3.703454127578656663e-05
1.627113556778389011e+03 3.667761284946459806e-05
1.628014007003501774e+03 3.632742238777371006e-05
1.628914457228614310e+03 3.598373301932350764e-05
1.629814907453726846e+03 3.564632119996785870e-05
1.630715357678839382e+03 3.531497569861202069e-05
1.631615807903951918e+03 3.498949667730476656e-05
1.632516258129064454e+03 3.466969485544511744e-05
1.633416708354176990e+03 3.435539074916654274e-05
1.634317158579289526e+03 3.404641397804539200e-05
1.635217608804402062e+03 3.374260263218870846e-05
1.636118059029514598e+03 3.344380269358382700e-05
1.637018509254627133e+03 3.314986750628140690e-05
1.637918959479739897e+03 3.286065729060338834e-05
1.638819409704852433e+03 3.257603869710112767e-05
1.639719859929964969e+03 3.229588439645745705e-05
1.640620310155077505e+03 3.202007270194583111e-05
1.641520760380190040e+03 3.174848722141140423e-05
1.642421210605302576e+03 3.148101653607103436e-05
1.643321660830415112e+03 3.121755390369911483e-05
1.644222111055527648e+03 3.095799698402746161e-05
1.645122561280640184e+03 3.070224758439776537e-05
1.646023011505752720e+03 3.045021142390826570e-05
1.646923461730865256e+03 3.020179791446893448e-05
1.647823911955978019e+03 2.995691995732984367e-05
1.648724362181090555e+03 2.971549375379433652e-05
1.649624812406203091e+03 2.947743862894292637e-05
1.650525262631315627e+03 2.924267686730745816e-05
1.651425712856428163e+03 2.901113355953858868e-05
1.652326163081540699e+03 2.878273645918695537e-05
1.653226613306653235e+03 2.855741584880908360e-05
1.654127063531765771e+03 2.833510441467316176e-05
1.655027513756878307e+03 2.811573712940696325e-05
1.655927963981990843e+03 2.789925114198541056e-05
1.656828414207103378e+03 2.768558567451191285e-05
1.657728864432216142e+03 2.747468192528835045e-05
1.658629314657328678e+03 2.726648297771844332e-05
1.659529764882441214e+03 2.706093371461996001e-05
1.660430215107553749e+03 2.685798073756226817e-05
1.661330665332666285e+03 2.665757229087484148e-05
1.662231115557778821e+03 2.645965819000068638e-05
1.663131565782891357e+03 2.626418975389532360e-05
1.664032016008003893e+03 2.607111974119677387e-05
1.664932466233116429e+03 2.588040228991053728e-05
1.665832916458228965e+03 2.569199286037935278e-05
1.666733366683341501e+03 2.550584818131604916e-05
1.667633816908454037e+03 2.532192619870451047e-05
1.668534267133566800e+03 2.514018602738198529e-05
1.669434717358679336e+03 2.496058790513274022e-05
1.670335167583791872e+03 2.478309314913273469e-05
1.671235617808904408e+03 2.460766411460166693e-05
1.672136068034016944e+03 2.443426415552469761e-05
1.673036518259129480e+03 2.426285758731644369e-05
1.673936968484242016e+03 2.409340965131280161e-05
1.674837418709354552e+03 2.392588648097797153e-05
1.675737868934467087e+03 2.376025506972908756e-05
1.676638319159579623e+03 2.359648324027874110e-05
1.677538769384692159e+03 2.343453961541375026e-05
1.678439219609804923e+03 2.327439359012209739e-05
1.679339669834917459e+03 2.311601530499515940e-05
1.680240120060029994e+03 2.295937562083211501e-05
1.681140570285142530e+03 2.280444609437967432e-05
1.682041020510255066e+03 2.265119895514633065e-05
1.682941470735367602e+03 2.249960708322915214e-05
1.683841920960480138e+03 2.234964398810234209e-05
1.684742371185592674e+03 2.220128378831402180e-05
1.685642821410705210e+03 2.205450119204301954e-05
1.686543271635817746e+03 2.190927147847181313e-05
1.687443721860930282e+03 2.176557047993284732e-05
1.688344172086043045e+03 2.162337456478778214e-05
1.689244622311155581e+03 2.148266062100413049e-05
1.690145072536268117e+03 2.134340604039124321e-05
1.691045522761380653e+03 2.120558870346601898e-05
1.691945972986493189e+03 2.106918696491505091e-05
1.692846423211605725e+03 2.093417963962566742e-05
1.693746873436718261e+03 2.080054598925529997e-05
1.694647323661830796e+03 2.066826570931679877e-05
1.695547773886943332e+03 2.053731891675341154e-05
1.696448224112055868e+03 2.040768613798095169e-05
1.697348674337168404e+03 2.027934829737280221e-05
1.698249124562281168e+03 2.015228670617244067e-05
1.699149574787393703e+03 2.002648305180836257e-05
1.700050025012506239e+03 1.990191938759676278e-05
1.700950475237618775e+03 1.977857812281265260e-05
1.701850925462731311e+03 1.965644201311349840e-05
1.702751375687843847e+03 1.953549415130109400e-05
1.703651825912956383e+03 1.941571795840333720e-05
1.704552276138068919e+03 1.929709717506657583e-05
1.705452726363181455e+03 1.917961585324054968e-05
1.706353176588293991e+03 1.906325834814746100e-05
1.707253626813406527e+03 1.894800931052112325e-05
1.708154077038519290e+03 1.883385367910306909e-05
1.709054527263631826e+03 1.872077667338962071e-05
1.709954977488744362e+03 1.860876378661524848e-05
1.710855427713856898e+03 1.849780077896368656e-05
1.711755877938969434e+03 1.838787367099989714e-05
1.712656328164081970e+03 1.827896873730994399e-05
1.713556778389194506e+03 1.817107250034343221e-05
1.714457228614307041e+03 1.806417172445095538e-05
1.715357678839419577e+03 1.795825341010483033e-05
1.716258129064532113e+03 1.785330478830144614e-05
1.717158579289644649e+03 1.774931331513322278e-05
1.718059029514757185e+03 1.764626666652848580e-05
1.718959479739869948e+03 1.754415273314738124e-05
1.719859929964982484e+03 1.744295961543367859e-05
1.720760380190095020e+03 1.734267561881096232e-05
1.721660830415207556e+03 1.724328924902426580e-05
1.722561280640320092e+03 1.714478920761441152e-05
1.723461730865432628e+03 1.704716438752736834e-05
1.724362181090545164e+03 1.695040386884776013e-05
1.725262631315657700e+03 1.685449691465639016e-05
1.726163081540770236e+03 1.675943296700510999e-05
1.727063531765882772e+03 1.666520164300497404e-05
1.727963981990995308e+03 1.657179273102482006e-05
1.728864432216108071e+03 1.647919618699539336e-05
1.729764882441220607e+03 1.638740213081524370e-05
1.730665332666333143e+03 1.629640084285551496e-05
1.731565782891445679e+03 1.620618276056215044e-05
1.732466233116558215e+03 1.611673847514503080e-05
1.733366683341670750e+03 1.602805872836212534e-05
1.734267133566783286e+03 1.594013440938500258e-05
1.735167583791895822e+03 1.585295655175040272e-05
1.736068034017008358e+03 1.576651633039030293e-05
1.736968484242120894e+03 1.568080505874082115e-05
1.737868934467233430e+03 1.559581418592583151e-05
1.738769384692346193e+03 1.551153529401362788e-05
1.739669834917458729e+03 1.542796009534401323e-05
1.740570285142571265e+03 1.534508042992364612e-05
1.741470735367683801e+03 1.526288826288721534e-05
1.742371185592796337e+03 1.518137568202227582e-05
1.743271635817908873e+03 1.510053489535765939e-05
1.744172086043021409e+03 1.502035822880951774e-05
1.745072536268133945e+03 1.494083812388760632e-05
1.745972986493246481e+03 1.486196713545719627e-05
1.746873436718359017e+03 1.478373792955532016e-05
1.747773886943471553e+03 1.470614328126081276e-05
1.748674337168584316e+03 1.462917607261520264e-05
1.749574787393696852e+03 1.455282929059428507e-05
1.750475237618809388e+03 1.447709602512710506e-05
1.751375687843921924e+03 1.440196946716265216e-05
1.752276138069034459e+03 1.432744290678220002e-05
1.753176588294146995e+03 1.425350973135548345e-05
1.754077038519259531e+03 1.418016342374064494e-05
1.754977488744372067e+03 1.410739756052494387e-05
1.755877938969484603e+03 1.403520581030735480e-05
1.756778389194597139e+03 1.396358193201931798e-05
1.757678839419709675e+03 1.389251977328437863e-05
1.758579289644822438e+03 1.382201326881570059e-05
1.759479739869934974e+03 1.375205643884878097e-05
1.760380190095047510e+03 1.368264338760946395e-05
1.761280640320160046e+03 1.361376830181716412e-05
1.762181090545272582e+03 1.354542544922043295e-05
1.763081540770385118e+03 1.347760917716505631e-05
1.763981990995497654e+03 1.341031391119415808e-05
1.764882441220610190e+03 1.334353415367819041e-05
1.765782891445722726e+03 1.327726448247566113e-05
1.766683341670835262e+03 1.321149954962202331e-05
1.767583791895947797e+03 1.314623408004763160e-05
1.768484242121060333e+03 1.308146287032263084e-05
1.769384692346173097e+03 1.301718078742882265e-05
1.770285142571285633e+03 1.295338276755782053e-05
1.771185592796398169e+03 1.289006381493432972e-05
1.772086043021510704e+03 1.282721900066464481e-05
1.772986493246623240e+03 1.276484346160870176e-05
1.773886943471735776e+03 1.270293239927598394e-05
1.774787393696848312e+03 1.264148107874461161e-05
1.775687843921960848e+03 1.258048482760195264e-05
1.776588294147073384e+03 1.251993903490815412e-05
1.777488744372185920e+03 1.245983915017959094e-05
1.778389194597298456e+03 1.240018068239433058e-05
1.779289644822411219e+03 1.234095919901679666e-05
1.780190095047523755e+03 1.228217032504279522e-05
1.781090545272636291e+03 1.222380974206318754e-05
1.781990995497748827e+03 1.216587318734654330e-05
1.782891445722861363e+03 1.210835645294057077e-05
1.783791895947973899e+03 1.205125538479033348e-05
1.784692346173086435e+03 1.199456588187505249e-05
1.785592796398198971e+03 1.193828389536095487e-05
1.786493246623311506e+03 1.188240542777126610e-05
1.787393696848424042e+03 1.182692653217206914e-05
1.788294147073536578e+03 1.177184331137465006e-05
1.789194597298649342e+03 1.171715191715201296e-05
1.790095047523761878e+03 1.166284854947226088e-05
1.790995497748874413e+03 1.160892945574466367e-05
1.791895947973986949e+03 1.155539093008184823e-05
1.792796398199099485e+03 1.150222931257523806e-05
1.793696848424212021e+03 1.144944098858419613e-05
1.794597298649324557e+03 1.139702238803907427e-05
1.795497748874437093e+03 1.134496998475660051e-05
1.796398199099549629e+03 1.129328029576906794e-05
1.797298649324662165e+03 1.124194988066525839e-05
1.798199099549774701e+03 1.119097534094375818e-05
1.799099549774887464e+03 1.114035331937863036e-05
1.800000000000000000e+03 1.109008049939666427e-05
