0.000000000000000000e+00 1.387396815916422258e-03
9.004502251125562351e-01 1.844323414107175560e-03
1.800900450225112470e+00 2.478322918403775589e-03
2.701350675337668594e+00 3.281231991900602791e-03
3.601800900450224940e+00 4.075056958007966003e-03
4.502251125562780842e+00 4.473568048563425666e-03
5.402701350675337189e+00 4.217217821376038032e-03
6.303151575787893535e+00 3.491356453363334000e-03
7.203601800900449881e+00 2.677875634149810922e-03
8.104052026013006227e+00 2.004466645586938395e-03
9.004502251125561685e+00 1.510690754652962162e-03
9.904952476238118919e+00 1.159476937991842397e-03
1.080540270135067438e+01 9.071306317315530523e-04
1.170585292646323161e+01 7.228660466536698196e-04
1.260630315157578707e+01 5.864724396544492317e-04
1.350675337668834430e+01 4.839415318612472574e-04
1.440720360180089976e+01 4.055039062027734485e-04
1.530765382691345522e+01 3.444370557529394380e-04
1.620810405202601245e+01 2.961243521600491002e-04
1.710855427713856969e+01 2.573714709506495172e-04
1.800900450225112337e+01 2.259372429008519407e-04
1.890945472736368060e+01 2.002149975042144460e-04
1.980990495247623784e+01 1.789799987879298396e-04
2.071035517758879507e+01 1.611362945681754720e-04
2.161080540270134875e+01 1.456170938393109269e-04
2.251125562781390599e+01 1.317398449492185233e-04
2.341170585292646322e+01 1.194068867006343868e-04
2.431215607803901690e+01 1.086418087068677943e-04
2.521260630315157414e+01 9.931331166281698970e-05
2.611305652826413137e+01 9.121273316914939495e-05
2.701350675337668861e+01 8.414307252651793739e-05
2.791395697848924229e+01 7.794551423592636973e-05
2.881440720360179952e+01 7.249730061574996532e-05
2.971485742871435676e+01 6.769841627328270460e-05
3.061530765382691044e+01 6.344422876455333229e-05
3.151575787893946767e+01 5.959297790527699328e-05
3.241620810405202491e+01 5.600428293722450646e-05
3.331665832916458214e+01 5.265229252705985004e-05
3.421710855427713938e+01 4.959827819399304443e-05
3.511755877938969661e+01 4.686499095990289153e-05
3.601800900450224674e+01 4.439586414312615334e-05
3.691845922961480397e+01 4.208910280941458986e-05
3.781890945472736121e+01 3.989674232374067003e-05
3.871935967983991844e+01 3.786114014512240405e-05
3.961980990495247568e+01 3.602883634858588743e-05
4.052026013006503291e+01 3.439987779925300404e-05
4.142071035517759015e+01 3.292178846298954488e-05
4.232116058029014027e+01 3.149623545542328402e-05
4.322161080540269751e+01 3.005975062324739449e-05
4.412206103051525474e+01 2.865265419664127889e-05
4.502251125562781198e+01 2.734052612457394668e-05
4.592296148074036921e+01 2.614680703413769876e-05
4.682341170585292645e+01 2.506597297334805719e-05
4.772386193096548368e+01 2.408627071540887706e-05
4.862431215607803381e+01 2.319884255482452783e-05
4.952476238119059104e+01 2.239994424436808285e-05
5.042521260630314828e+01 2.169158105047020626e-05
5.132566283141570551e+01 2.108196853341351472e-05
5.222611305652826275e+01 2.058407870276386111e-05
5.312656328164081998e+01 2.020499833882803082e-05
5.402701350675337721e+01 1.991281071622057804e-05
5.492746373186592734e+01 1.959384867203224387e-05
5.582791395697848458e+01 1.909401996438656260e-05
5.672836418209104181e+01 1.837854140349797050e-05
5.762881440720359905e+01 1.758266075002098391e-05
5.852926463231615628e+01 1.685250452497769785e-05
5.942971485742871351e+01 1.624767413653522199e-05
6.033016508254127075e+01 1.577355484920948148e-05
6.123061530765382088e+01 1.541646628480919831e-05
6.213106553276637811e+01 1.513688685752810127e-05
6.303151575787893535e+01 1.484618471402046990e-05
6.393196598299149258e+01 1.445105125144903407e-05
6.483241620810404982e+01 1.395252005105861619e-05
6.573286643321659994e+01 1.342771637336661639e-05
6.663331665832916428e+01 1.294469033200920640e-05
6.753376688344171441e+01 1.252998323305395340e-05
6.843421710855427875e+01 1.218393998731954724e-05
6.933466733366682888e+01 1.190132064221592903e-05
7.023511755877939322e+01 1.167939055407548395e-05
7.113556778389194335e+01 1.151546841643198416e-05
7.203601800900449348e+01 1.139589753651281236e-05
7.293646823411705782e+01 1.129078124531253230e-05
7.383691845922960795e+01 1.118217071170517908e-05
7.473736868434217229e+01 1.107137789445287131e-05
7.563781890945472242e+01 1.091830961705093694e-05
7.653826913456728676e+01 1.066459195574238379e-05
7.743871935967983688e+01 1.034329763844605077e-05
7.833916958479238701e+01 1.004351929039143928e-05
7.923961980990495135e+01 9.817564369691318281e-06
8.014007003501750148e+01 9.680326744918343713e-06
8.104052026013006582e+01 9.634114312245875076e-06
8.194097048524261595e+01 9.669730488007563570e-06
8.284142071035518029e+01 9.746024391281804913e-06
8.374187093546773042e+01 9.778483177284315840e-06
8.464232116058028055e+01 9.686017199960666988e-06
8.554277138569284489e+01 9.478037161836030147e-06
8.644322161080539502e+01 9.254247861210517469e-06
8.734367183591795936e+01 9.115267423391855108e-06
8.824412206103050949e+01 9.118065788749271774e-06
8.914457228614307382e+01 9.284568263671544425e-06
9.004502251125562395e+01 9.589495536737283895e-06
9.094547273636817408e+01 9.899225388610334038e-06
9.184592296148073842e+01 9.980884844602049940e-06
9.274637318659328855e+01 9.739971131259366906e-06
9.364682341170585289e+01 9.351162102581130135e-06
9.454727363681840302e+01 8.994956688201827486e-06
9.544772386193096736e+01 8.672381612593499015e-06
9.634817408704351749e+01 8.309600576007897312e-06
9.724862431215606762e+01 7.908960101045689809e-06
9.814907453726863196e+01 7.538408855692574946e-06
9.904952476238118209e+01 7.243907694187997658e-06
9.994997498749374643e+01 7.032024287223154515e-06
1.008504252126062966e+02 6.894348302764346742e-06
1.017508754377188609e+02 6.823382343599055344e-06
1.026513256628314110e+02 6.814371654128096174e-06
1.035517758879439612e+02 6.857034046928863739e-06
1.044522261130565255e+02 6.927455913990110165e-06
1.053526763381690756e+02 7.011476679058825927e-06
1.062531265632816400e+02 7.141342884685693342e-06
1.071535767883941901e+02 7.362154183358228793e-06
1.080540270135067544e+02 7.664806358433837841e-06
1.089544772386193046e+02 7.971205058769698356e-06
1.098549274637318547e+02 8.192520517943951844e-06
1.107553776888444190e+02 8.257752553049481223e-06
1.116558279139569692e+02 8.128600394241082447e-06
1.125562781390695335e+02 7.881672056796477495e-06
1.134567283641820836e+02 7.634229680132855199e-06
1.143571785892946480e+02 7.421823388173282993e-06
1.152576288144071981e+02 7.222752516643811772e-06
1.161580790395197482e+02 7.006938986850317274e-06
1.170585292646323126e+02 6.745334231263390619e-06
1.179589794897448627e+02 6.452856470823393468e-06
1.188594297148574270e+02 6.194698836601096689e-06
1.197598799399699772e+02 6.020382872109815820e-06
1.206603301650825415e+02 5.944646108174847698e-06
1.215607803901950916e+02 5.967097662304070639e-06
1.224612306153076418e+02 6.079551653687579897e-06
1.233616808404202061e+02 6.258474093211738995e-06
1.242621310655327562e+02 6.472126825755921474e-06
1.251625812906453206e+02 6.695216191470779900e-06
1.260630315157578707e+02 6.888968187562357383e-06
1.269634817408704350e+02 6.984859445793414052e-06
1.278639319659829852e+02 6.924533650724021985e-06
1.287643821910955353e+02 6.753233687174011804e-06
1.296648324162080996e+02 6.574261735397978108e-06
1.305652826413206640e+02 6.430820148960740493e-06
1.314657328664331999e+02 6.338655901361513652e-06
1.323661830915457642e+02 6.341528092567074180e-06
1.332666333166583286e+02 6.482306537149276071e-06
1.341670835417708929e+02 6.763281794650809221e-06
1.350675337668834288e+02 7.108739826930151084e-06
1.359679839919959932e+02 7.368049236019784889e-06
1.368684342171085575e+02 7.410330446623523531e-06
1.377688844422210934e+02 7.222523841768524290e-06
1.386693346673336578e+02 6.902064881295054116e-06
1.395697848924462221e+02 6.589378662106604878e-06
1.404702351175587864e+02 6.398082019113188047e-06
1.413706853426713224e+02 6.374159090427180246e-06
1.422711355677838867e+02 6.496656393796081043e-06
1.431715857928964510e+02 6.695380174678964418e-06
1.440720360180089870e+02 6.887743726284927209e-06
1.449724862431215513e+02 7.009385559262807210e-06
1.458729364682341156e+02 7.028522624058377971e-06
1.467733866933466800e+02 6.960491358037398082e-06
1.476738369184592159e+02 6.865776965534618989e-06
1.485742871435717802e+02 6.808101361818378084e-06
1.494747373686843446e+02 6.801363730413336138e-06
1.503751875937968805e+02 6.796780331965565674e-06
1.512756378189094448e+02 6.769173573237516597e-06
1.521760880440220092e+02 6.776595566063674704e-06
1.530765382691345735e+02 6.861177449764879529e-06
1.539769884942471094e+02 7.006724807941334890e-06
1.548774387193596738e+02 7.183625417650562288e-06
1.557778889444722381e+02 7.327004128403393561e-06
1.566783391695847740e+02 7.358532789152906574e-06
1.575787893946973384e+02 7.268904612992692314e-06
1.584792396198099027e+02 7.147248474095371062e-06
1.593796898449224670e+02 7.124113588004694108e-06
1.602801400700350030e+02 7.286300605055824965e-06
1.611805902951475673e+02 7.640016075878910701e-06
1.620810405202601316e+02 8.128209043606568168e-06
1.629814907453726676e+02 8.651453529651690605e-06
1.638819409704852319e+02 9.103118073576222909e-06
1.647823911955977962e+02 9.386388552356465781e-06
1.656828414207103606e+02 9.406185450956231788e-06
1.665832916458228965e+02 9.129553850795577282e-06
1.674837418709354608e+02 8.687141473328069627e-06
1.683841920960480252e+02 8.275601937295822604e-06
1.692846423211605611e+02 7.965734909509308338e-06
1.701850925462731254e+02 7.698221836974676000e-06
1.710855427713856898e+02 7.406591719859063018e-06
1.719859929964982541e+02 7.096667439432465701e-06
1.728864432216107900e+02 6.848339975836830429e-06
1.737868934467233544e+02 6.745045119367384116e-06
1.746873436718359187e+02 6.806812214313450723e-06
1.755877938969484546e+02 6.989271920588421864e-06
1.764882441220610190e+02 7.220113154678859410e-06
1.773886943471735833e+02 7.438851121564792338e-06
1.782891445722861476e+02 7.647221065752763151e-06
1.791895947973986836e+02 7.884322843749608922e-06
1.800900450225112479e+02 8.128946016796165504e-06
1.809904952476238122e+02 8.303252649893693718e-06
1.818909454727363482e+02 8.367556013869931360e-06
1.827913956978489125e+02 8.361115867386008523e-06
1.836918459229614768e+02 8.322470142590962866e-06
1.845922961480740412e+02 8.254107318556372702e-06
1.854927463731865771e+02 8.189813717849204339e-06
1.863931965982991414e+02 8.193034738946852993e-06
1.872936468234117058e+02 8.303923181646415250e-06
1.881940970485242417e+02 8.470901258334945395e-06
1.890945472736368060e+02 8.520617742776739783e-06
1.899949974987493704e+02 8.327748344275998847e-06
1.908954477238619347e+02 7.981679031944581516e-06
1.917958979489744706e+02 7.690235847956389760e-06
1.926963481740870350e+02 7.602011543213263694e-06
1.935967983991995993e+02 7.759448603998003868e-06
1.944972486243121352e+02 8.143457786747271114e-06
1.953976988494246996e+02 8.704310962117067142e-06
1.962981490745372639e+02 9.363101118169342438e-06
1.971985992996498283e+02 1.001677116113891198e-05
1.980990495247623642e+02 1.054564171212586231e-05
1.989994997498749285e+02 1.085782474361083115e-05
1.998999499749874929e+02 1.095389313718065291e-05
2.008004002001000288e+02 1.093824148858270222e-05
2.017008504252125931e+02 1.092233142612810345e-05
2.026013006503251574e+02 1.094340610909369894e-05
2.035017508754377218e+02 1.096863469826958748e-05
2.044022011005502577e+02 1.090795736639158602e-05
2.053026513256628220e+02 1.068416234916117663e-05
2.062031015507753864e+02 1.032653246805731425e-05
2.071035517758879223e+02 9.976555589105057557e-06
2.080040020010004866e+02 9.759006736638705141e-06
2.089044522261130510e+02 9.643616820635008647e-06
2.098049024512256153e+02 9.484076829421816563e-06
2.107053526763381512e+02 9.220063360425611294e-06
2.116058029014507156e+02 8.949181427759821036e-06
2.125062531265632799e+02 8.777284233692159425e-06
2.134067033516758158e+02 8.735461735008507862e-06
2.143071535767883802e+02 8.803105467414515980e-06
2.152076038019009445e+02 8.909743465144412365e-06
2.161080540270135089e+02 8.979150351420436173e-06
2.170085042521260448e+02 9.005935190672673330e-06
2.179089544772386091e+02 9.029133369268326384e-06
2.188094047023511735e+02 9.035982663170207747e-06
2.197098549274637094e+02 8.986111856599956029e-06
2.206103051525762737e+02 8.912044489735426503e-06
2.215107553776888381e+02 8.883898743416097281e-06
2.224112056028014024e+02 8.919337767608401512e-06
2.233116558279139383e+02 9.012427497626597283e-06
2.242121060530265027e+02 9.183562200286882158e-06
2.251125562781390670e+02 9.432338356794548351e-06
2.260130065032516029e+02 9.687335908978687922e-06
2.269134567283641672e+02 9.844915071920892210e-06
2.278139069534767316e+02 9.849382382388944745e-06
2.287143571785892959e+02 9.738784013483223155e-06
2.296148074037018318e+02 9.625051741510646234e-06
2.305152576288143962e+02 9.620616855624362912e-06
2.314157078539269605e+02 9.770759815201245004e-06
2.323161580790394964e+02 1.002180132127368857e-05
2.332166083041520608e+02 1.024367445624186978e-05
2.341170585292646251e+02 1.033649148775130402e-05
2.350175087543771895e+02 1.030296511367823564e-05
2.359179589794897254e+02 1.020435742930446909e-05
2.368184092046022897e+02 1.011251522003764289e-05
2.377188594297148541e+02 1.012689861602647532e-05
2.386193096548273900e+02 1.034153973359452145e-05
2.395197598799399543e+02 1.074327277911818540e-05
2.404202101050525187e+02 1.121803182429641095e-05
2.413206603301650830e+02 1.164771840398424068e-05
2.422211105552776189e+02 1.197063753359505578e-05
2.431215607803901833e+02 1.217233537051903775e-05
2.440220110055027476e+02 1.221839771676864975e-05
2.449224612306152835e+02 1.206841500463436346e-05
2.458229114557278479e+02 1.177328291478149723e-05
2.467233616808404122e+02 1.145807983546604203e-05
2.476238119059529765e+02 1.119082132623120117e-05
2.485242621310655124e+02 1.094467941559775537e-05
2.494247123561780768e+02 1.073246094218917394e-05
2.503251625812906411e+02 1.062511904117905352e-05
2.512256128064031770e+02 1.062926905074169020e-05
2.521260630315157414e+02 1.064590499805472397e-05
2.530265132566283057e+02 1.057149387357520698e-05
2.539269634817408701e+02 1.041176884402547372e-05
2.548274137068534060e+02 1.024342738184063123e-05
2.557278639319659703e+02 1.010506586063540713e-05
2.566283141570785347e+02 9.971725416722964264e-06
2.575287643821910706e+02 9.839602486661165658e-06
2.584292146073036633e+02 9.752615396266696757e-06
2.593296648324161993e+02 9.736267131213684125e-06
2.602301150575287352e+02 9.753359135415184389e-06
2.611305652826413279e+02 9.770921741739053084e-06
2.620310155077538639e+02 9.805271744673365729e-06
2.629314657328663998e+02 9.872159675755327705e-06
2.638319159579789925e+02 9.970781132987397379e-06
2.647323661830915285e+02 1.006976831938419518e-05
2.656328164082040644e+02 1.013133998073129147e-05
2.665332666333166571e+02 1.014060854770579415e-05
2.674337168584291931e+02 1.009669334579524804e-05
2.683341670835417858e+02 1.001886266574931192e-05
2.692346173086543217e+02 9.936079562254091055e-06
2.701350675337668577e+02 9.862294745519625382e-06
2.710355177588794504e+02 9.799750948920845210e-06
2.719359679839919863e+02 9.725959142498188302e-06
2.728364182091045222e+02 9.587421339426093470e-06
2.737368684342171150e+02 9.365071559520839057e-06
2.746373186593296509e+02 9.109579239042974813e-06
2.755377688844421868e+02 8.878325080901183452e-06
2.764382191095547796e+02 8.715559392890406232e-06
2.773386693346673155e+02 8.662315096101430261e-06
2.782391195597798514e+02 8.735788548795783042e-06
2.791395697848924442e+02 8.922927275818846751e-06
2.800400200100049801e+02 9.183319320979802411e-06
2.809404702351175729e+02 9.445016752923655532e-06
2.818409204602301088e+02 9.624169084424229873e-06
2.827413706853426447e+02 9.694566019850205912e-06
2.836418209104552375e+02 9.716103111130116105e-06
2.845422711355677734e+02 9.728548406325638164e-06
2.854427213606803093e+02 9.724083598944131512e-06
2.863431715857929021e+02 9.702364948955932548e-06
2.872436218109054380e+02 9.651511566913800817e-06
2.881440720360179739e+02 9.555719983428751147e-06
2.890445222611305667e+02 9.441434904538134769e-06
2.899449724862431026e+02 9.365019105053740291e-06
2.908454227113556385e+02 9.338862259313481027e-06
2.917458729364682313e+02 9.301244522631424441e-06
2.926463231615807672e+02 9.170500729129270898e-06
2.935467733866933600e+02 8.945214879100712009e-06
2.944472236118058959e+02 8.755708624034774754e-06
2.953476738369184318e+02 8.740100571906111833e-06
2.962481240620310246e+02 8.911662968942861253e-06
2.971485742871435605e+02 9.184459416120428670e-06
2.980490245122560964e+02 9.490040716703069195e-06
2.989494747373686891e+02 9.808765550339116181e-06
2.998499249624812251e+02 1.011586319966198760e-05
3.007503751875937610e+02 1.037589352769580958e-05
3.016508254127063537e+02 1.055285476935101632e-05
3.025512756378188897e+02 1.060314581853481845e-05
3.034517258629314256e+02 1.052059237431432904e-05
3.043521760880440183e+02 1.036975181167943309e-05
3.052526263131565543e+02 1.022910875844424997e-05
3.061530765382691470e+02 1.013467279147323372e-05
3.070535267633816829e+02 1.008107577080141420e-05
3.079539769884942189e+02 1.005837903254928676e-05
3.088544272136068116e+02 1.004007670211255734e-05
3.097548774387193475e+02 9.963390833518163373e-06
3.106553276638318835e+02 9.826879762848094230e-06
3.115557778889444762e+02 9.724331802201064621e-06
3.124562281140570121e+02 9.731099955525273758e-06
3.133566783391695481e+02 9.858480250733284752e-06
3.142571285642821408e+02 1.006399223369275331e-05
3.151575787893946767e+02 1.027644606651941798e-05
3.160580290145072127e+02 1.045079243805059990e-05
3.169584792396198054e+02 1.055416472553089351e-05
3.178589294647323413e+02 1.055641174316067472e-05
3.187593796898449341e+02 1.045462267670233126e-05
3.196598299149574700e+02 1.026884153795707868e-05
3.205602801400700059e+02 1.002636668608762207e-05
3.214607303651825987e+02 9.749474662425898529e-06
3.223611805902951346e+02 9.472657660685169289e-06
3.232616308154076705e+02 9.240809830086559970e-06
3.241620810405202633e+02 9.076479735742397394e-06
3.250625312656327992e+02 8.967982264222742962e-06
3.259629814907453351e+02 8.861018364874903369e-06
3.268634317158579279e+02 8.723311307280268400e-06
3.277638819409704638e+02 8.599826360596651839e-06
3.286643321660829997e+02 8.533812391595280448e-06
3.295647823911955925e+02 8.524912309733209480e-06
3.304652326163081284e+02 8.572001970962825310e-06
3.313656828414207212e+02 8.669823698900090854e-06
3.322661330665332571e+02 8.802977937408857877e-06
3.331665832916457930e+02 8.954660828588616530e-06
3.340670335167583858e+02 9.102500184732181546e-06
3.349674837418709217e+02 9.236824408496802444e-06
3.358679339669834576e+02 9.382491231187496263e-06
3.367683841920960504e+02 9.582272835598944159e-06
3.376688344172085863e+02 9.816587396016332253e-06
3.385692846423211222e+02 9.993545275295794204e-06
3.394697348674337150e+02 1.008369194827696085e-05
3.403701850925462509e+02 1.013267103374697448e-05
3.412706353176587868e+02 1.016580671835523223e-05
3.421710855427713796e+02 1.016761965608313799e-05
3.430715357678839155e+02 1.009954351909784801e-05
3.439719859929965082e+02 9.938245674783338049e-06
3.448724362181090441e+02 9.724664454688178964e-06
3.457728864432215801e+02 9.566251416976135323e-06
3.466733366683341728e+02 9.556202089100985321e-06
3.475737868934467087e+02 9.682314318489753692e-06
3.484742371185592447e+02 9.864253546959410914e-06
3.493746873436718374e+02 1.006188782182738849e-05
3.502751375687843733e+02 1.025710964790544388e-05
3.511755877938969093e+02 1.039714829044849928e-05
3.520760380190095020e+02 1.043819776544146141e-05
3.529764882441220379e+02 1.040465518421475054e-05
3.538769384692345739e+02 1.037299549652007676e-05
3.547773886943471666e+02 1.037043163633584416e-05
3.556778389194597025e+02 1.035964552017683744e-05
3.565782891445722953e+02 1.034421705924316976e-05
3.574787393696848312e+02 1.038412675516263116e-05
3.583791895947973671e+02 1.050460720517166305e-05
3.592796398199099599e+02 1.068711135079182886e-05
3.601800900450224958e+02 1.091957978200185940e-05
3.610805402701350317e+02 1.116562721671970433e-05
3.619809904952476245e+02 1.138087876572572227e-05
3.628814407203601604e+02 1.158094013215079457e-05
3.637818909454726963e+02 1.181202599421915686e-05
3.646823411705852891e+02 1.204852262611666656e-05
3.655827913956978250e+02 1.220875521826171611e-05
3.664832416208103609e+02 1.227181927495471308e-05
3.673836918459229537e+02 1.227140224317787324e-05
3.682841420710354896e+02 1.221844235582893884e-05
3.691845922961480824e+02 1.212718209061087058e-05
3.700850425212606183e+02 1.202769654479437906e-05
3.709854927463731542e+02 1.193263133586455696e-05
3.718859429714857470e+02 1.180157649535076966e-05
3.727863931965982829e+02 1.160731776479867190e-05
3.736868434217108188e+02 1.142098897965216068e-05
3.745872936468234116e+02 1.131455102625512046e-05
3.754877438719359475e+02 1.127147676489249616e-05
3.763881940970484834e+02 1.127178522889959516e-05
3.772886443221610762e+02 1.136739366869125099e-05
3.781890945472736121e+02 1.158439278117907840e-05
3.790895447723861480e+02 1.183610331492870472e-05
3.799899949974987408e+02 1.199572521744460556e-05
3.808904452226112767e+02 1.203158218417685105e-05
3.817908954477238694e+02 1.203967042481763537e-05
3.826913456728364054e+02 1.211984479415867135e-05
3.835917958979489413e+02 1.226063015363158460e-05
3.844922461230615340e+02 1.241006544492376354e-05
3.853926963481740700e+02 1.257916666267874208e-05
3.862931465732866059e+02 1.277718832026084403e-05
3.871935967983991986e+02 1.296633935812544695e-05
3.880940470235117346e+02 1.311635825642549142e-05
3.889944972486242705e+02 1.323940254399012163e-05
3.898949474737368632e+02 1.337132674307908018e-05
3.907953976988493991e+02 1.353331871604059851e-05
3.916958479239619351e+02 1.369245537505725116e-05
3.925962981490745278e+02 1.379870998446942177e-05
3.934967483741870637e+02 1.389851099228001560e-05
3.943971985992996565e+02 1.405506000515854168e-05
3.952976488244121924e+02 1.420237005041680475e-05
3.961980990495247283e+02 1.426633863838435462e-05
3.970985492746373211e+02 1.428473106986547343e-05
3.979989994997498570e+02 1.431275600843820241e-05
3.988994497248623929e+02 1.436638930432259203e-05
3.997998999499749857e+02 1.445365539292033112e-05
4.007003501750875216e+02 1.456943643367254091e-05
4.016008004002000575e+02 1.464904255216888571e-05
4.025012506253126503e+02 1.457761411871741462e-05
4.034017008504251862e+02 1.432908354676690107e-05
4.043021510755377221e+02 1.404939902835811449e-05
4.052026013006503149e+02 1.386473635458153042e-05
4.061030515257628508e+02 1.372420150213178602e-05
4.070035017508754436e+02 1.357098972329236978e-05
4.079039519759879795e+02 1.345605555059187668e-05
4.088044022011005154e+02 1.342417939776600308e-05
4.097048524262131082e+02 1.348010293308354313e-05
4.106053026513256441e+02 1.358459346805303352e-05
4.115057528764381800e+02 1.367223685921655512e-05
4.124062031015507728e+02 1.372999151708616642e-05
4.133066533266633087e+02 1.377890739404183479e-05
4.142071035517758446e+02 1.380749279126570507e-05
4.151075537768884374e+02 1.381288899195063684e-05
4.160080040020009733e+02 1.382769031030800530e-05
4.169084542271135092e+02 1.385982988311936127e-05
4.178089044522261020e+02 1.387263810547030870e-05
4.187093546773386379e+02 1.385437723446101131e-05
4.196098049024512306e+02 1.383688866530409530e-05
4.205102551275637666e+02 1.386548627980893123e-05
4.214107053526763025e+02 1.394002603485511760e-05
4.223111555777888952e+02 1.401479960555420540e-05
4.232116058029014312e+02 1.404649064852370952e-05
4.241120560280139671e+02 1.401903209704431233e-05
4.250125062531265598e+02 1.396539652685331671e-05
4.259129564782390958e+02 1.395819962179388823e-05
4.268134067033516317e+02 1.401588622901601554e-05
4.277138569284642244e+02 1.412172278671469178e-05
4.286143071535767604e+02 1.428020543746085476e-05
4.295147573786892963e+02 1.446199290722010615e-05
4.304152076038018890e+02 1.461607129424654669e-05
4.313156578289144250e+02 1.471612744849682723e-05
4.322161080540270177e+02 1.475346211198373873e-05
4.331165582791395536e+02 1.479571839962008063e-05
4.340170085042520896e+02 1.492946346633826365e-05
4.349174587293646823e+02 1.516352409267196426e-05
4.358179089544772182e+02 1.544943201577697362e-05
4.367183591795897541e+02 1.571848753558221883e-05
4.376188094047023469e+02 1.593231818854183197e-05
4.385192596298148828e+02 1.613154359619406775e-05
4.394197098549274187e+02 1.638695144414322355e-05
4.403201600800400115e+02 1.667762037021874053e-05
4.412206103051525474e+02 1.694739304225287036e-05
4.421210605302650833e+02 1.722753687670934537e-05
4.430215107553776761e+02 1.754793696830472138e-05
4.439219609804902120e+02 1.786204398377186494e-05
4.448224112056028048e+02 1.806155392596134221e-05
4.457228614307153407e+02 1.806667599855663758e-05
4.466233116558278766e+02 1.793312979215380673e-05
4.475237618809404694e+02 1.778684172560812408e-05
4.484242121060530053e+02 1.768579146567950168e-05
4.493246623311655412e+02 1.763215452864206256e-05
4.502251125562781340e+02 1.760383168189446929e-05
4.511255627813906699e+02 1.757282512333327982e-05
4.520260130065032058e+02 1.755409849421475253e-05
4.529264632316157986e+02 1.755363142163959660e-05
4.538269134567283345e+02 1.754444256516335987e-05
4.547273636818408704e+02 1.753640763103410385e-05
4.556278139069534632e+02 1.758168593962764175e-05
4.565282641320659991e+02 1.773038632055533008e-05
4.574287143571785919e+02 1.795062439289526649e-05
4.583291645822911278e+02 1.816723940154800447e-05
4.592296148074036637e+02 1.837031256721862054e-05
4.601300650325162565e+02 1.857554078713079555e-05
4.610305152576287924e+02 1.877055671246924355e-05
4.619309654827413283e+02 1.895029191045909201e-05
4.628314157078539210e+02 1.914702866364949567e-05
4.637318659329664570e+02 1.940759902303912431e-05
4.646323161580789929e+02 1.973131002884301953e-05
4.655327663831915856e+02 2.003221200944663377e-05
4.664332166083041216e+02 2.021179658258655831e-05
4.673336668334167143e+02 2.024383673072459612e-05
4.682341170585292502e+02 2.015468141494824412e-05
4.691345672836417862e+02 2.002263058142961111e-05
4.700350175087543789e+02 1.996563223440859741e-05
4.709354677338669148e+02 2.007667805933994706e-05
4.718359179589794508e+02 2.037008822565464632e-05
4.727363681840920435e+02 2.072154669501125222e-05
4.736368184092045794e+02 2.092322883875776378e-05
4.745372686343171154e+02 2.089320161557304040e-05
4.754377188594297081e+02 2.073347667075377469e-05
4.763381690845422440e+02 2.056409787298705690e-05
4.772386193096547800e+02 2.042135566369741352e-05
4.781390695347673727e+02 2.028407825248359884e-05
4.790395197598799086e+02 2.013867224719189256e-05
4.799399699849925014e+02 2.004464210337448540e-05
4.808404202101050373e+02 2.006715986771144512e-05
4.817408704352175732e+02 2.020880341481674756e-05
4.826413206603301660e+02 2.045368425732802992e-05
4.835417708854427019e+02 2.079146779445318949e-05
4.844422211105552378e+02 2.118451542082889694e-05
4.853426713356678306e+02 2.154217150427909920e-05
4.862431215607803665e+02 2.177631962989745612e-05
4.871435717858929024e+02 2.188890188927443544e-05
4.880440220110054952e+02 2.194753764222772004e-05
4.889444722361180311e+02 2.199116114559011728e-05
4.898449224612305670e+02 2.201001503144792983e-05
4.907453726863431598e+02 2.205161526143779502e-05
4.916458229114556957e+02 2.218184835210642208e-05
4.925462731365682885e+02 2.234736229536232155e-05
4.934467233616808244e+02 2.245700575121656906e-05
4.943471735867933603e+02 2.250332045872966940e-05
4.952476238119059531e+02 2.250236687275911009e-05
4.961480740370184890e+02 2.247154165827078292e-05
4.970485242621310249e+02 2.247344688379984535e-05
4.979489744872436177e+02 2.258333774780019041e-05
4.988494247123561536e+02 2.282815785545132831e-05
4.997498749374686895e+02 2.315720673140752442e-05
5.006503251625812823e+02 2.351031002098075018e-05
5.015507753876938182e+02 2.385853343374268101e-05
5.024512256128063541e+02 2.415151541012325824e-05
5.033516758379189469e+02 2.434879441174261737e-05
5.042521260630314828e+02 2.447326745112886817e-05
5.051525762881440755e+02 2.452177293024966831e-05
5.060530265132566115e+02 2.445224251943122282e-05
5.069534767383691474e+02 2.431647752470279618e-05
5.078539269634817401e+02 2.421943223730451479e-05
5.087543771885942760e+02 2.417231017754339765e-05
5.096548274137068120e+02 2.412828152578839591e-05
5.105552776388194047e+02 2.407551471113492539e-05
5.114557278639319406e+02 2.401224015857529083e-05
5.123561780890445334e+02 2.391646517132894908e-05
5.132566283141570693e+02 2.380839205846646482e-05
5.141570785392696052e+02 2.377801029817854089e-05
5.150575287643821412e+02 2.389093735920047229e-05
5.159579789894946771e+02 2.411583397200069243e-05
5.168584292146073267e+02 2.437947715583332323e-05
5.177588794397198626e+02 2.465756987445938390e-05
5.186593296648323985e+02 2.498268852876824999e-05
5.195597798899449344e+02 2.535848969962367923e-05
5.204602301150574704e+02 2.574063184193268097e-05
5.213606803401700063e+02 2.608887793810293188e-05
5.222611305652826559e+02 2.637329643325428232e-05
5.231615807903951918e+02 2.657991373686721022e-05
5.240620310155077277e+02 2.674941806810799921e-05
5.249624812406202636e+02 2.692970965367066886e-05
5.258629314657327996e+02 2.712138032431023286e-05
5.267633816908454492e+02 2.732826431940957727e-05
5.276638319159579851e+02 2.756370837983154924e-05
5.285642821410705210e+02 2.778976302387168383e-05
5.294647323661830569e+02 2.793960294095560075e-05
5.303651825912955928e+02 2.798739864647802248e-05
5.312656328164081287e+02 2.797338069260735266e-05
5.321660830415207784e+02 2.799594608331386244e-05
5.330665332666333143e+02 2.815564299957448068e-05
5.339669834917458502e+02 2.850029086219349684e-05
5.348674337168583861e+02 2.895873051766319279e-05
5.357678839419709220e+02 2.937361892467205363e-05
5.366683341670835716e+02 2.965707295885601884e-05
5.375687843921961075e+02 2.988172386121498096e-05
5.384692346173086435e+02 3.016760806463093561e-05
5.393696848424211794e+02 3.054545300503176767e-05
5.402701350675337153e+02 3.099240129975173379e-05
5.411705852926462512e+02 3.152427649320501166e-05
5.420710355177589008e+02 3.216360923168155232e-05
5.429714857428714367e+02 3.286784306754504480e-05
5.438719359679839727e+02 3.356950182633974307e-05
5.447723861930965086e+02 3.416990838801306881e-05
5.456728364182090445e+02 3.456382539090047833e-05
5.465732866433215804e+02 3.478424627681398970e-05
5.474737368684342300e+02 3.500259578361534206e-05
5.483741870935467659e+02 3.541849552937001785e-05
5.492746373186593019e+02 3.616240370427467105e-05
5.501750875437718378e+02 3.719612974761301124e-05
5.510755377688843737e+02 3.836220174747181319e-05
5.519759879939970233e+02 3.945843515467713773e-05
5.528764382191095592e+02 4.029055469582519707e-05
5.537768884442220951e+02 4.078046831145266563e-05
5.546773386693346310e+02 4.100059959821207811e-05
5.555777888944471670e+02 4.110650210268196444e-05
5.564782391195597029e+02 4.121966375208445008e-05
5.573786893446723525e+02 4.133144533114655340e-05
5.582791395697848884e+02 4.137021019162042128e-05
5.591795897948974243e+02 4.131601417468450642e-05
5.600800400200099602e+02 4.122639113888114588e-05
5.609804902451224962e+02 4.120904146698900662e-05
5.618809404702351458e+02 4.140862263673766045e-05
5.627813906953476817e+02 4.192199991341250703e-05
5.636818409204602176e+02 4.269506948819163950e-05
5.645822911455727535e+02 4.362049639327062378e-05
5.654827413706852894e+02 4.455927073544358336e-05
5.663831915957978254e+02 4.533752150359431283e-05
5.672836418209104750e+02 4.589308761684253544e-05
5.681840920460230109e+02 4.625896537313651553e-05
5.690845422711355468e+02 4.645485906029191619e-05
5.699849924962480827e+02 4.654084539192601710e-05
5.708854427213606186e+02 4.658880115870990465e-05
5.717858929464731546e+02 4.669936772767403662e-05
5.726863431715858042e+02 4.699143102865982414e-05
5.735867933966983401e+02 4.734773107578304726e-05
5.744872436218108760e+02 4.753196533616077573e-05
5.753876938469234119e+02 4.755521449521077202e-05
5.762881440720359478e+02 4.764118913583552660e-05
5.771885942971485974e+02 4.798079600404366973e-05
5.780890445222611334e+02 4.863462562770527021e-05
5.789894947473736693e+02 4.951022542293408168e-05
5.798899449724862052e+02 5.041573573207924796e-05
5.807903951975987411e+02 5.120584101476108297e-05
5.816908454227112770e+02 5.188388564026510198e-05
5.825912956478239266e+02 5.245439278156917436e-05
5.834917458729364625e+02 5.277225671909193674e-05
5.843921960980489985e+02 5.272889981934608959e-05
5.852926463231615344e+02 5.242188673256753924e-05
5.861930965482740703e+02 5.210111510277222458e-05
5.870935467733867199e+02 5.201170379591245259e-05
5.879939969984992558e+02 5.226390303771913712e-05
5.888944472236117917e+02 5.278520695207170103e-05
5.897948974487243277e+02 5.329868062087331779e-05
5.906953476738368636e+02 5.352790102024432696e-05
5.915957978989493995e+02 5.345839631514271990e-05
5.924962481240620491e+02 5.323083662933727084e-05
5.933966983491745850e+02 5.300060135826490916e-05
5.942971485742871209e+02 5.285683299386490186e-05
5.951975987993996569e+02 5.272674358882249067e-05
5.960980490245121928e+02 5.262270863277271273e-05
5.969984992496247287e+02 5.280324012755688599e-05
5.978989494747373783e+02 5.345104923879475029e-05
5.987993996998499142e+02 5.434084454090419504e-05
5.996998499249624501e+02 5.498617265329205895e-05
6.006003001500749860e+02 5.512703536733167198e-05
6.015007503751875220e+02 5.490541344738618065e-05
6.024012006003001716e+02 5.453726669408280944e-05
6.033016508254127075e+02 5.408426142693557957e-05
6.042021010505252434e+02 5.360635892333717240e-05
6.051025512756377793e+02 5.331926107519420764e-05
6.060030015007503152e+02 5.342658429028623168e-05
6.069034517258628512e+02 5.396428365879710795e-05
6.078039019509755008e+02 5.472957759603950975e-05
6.087043521760880367e+02 5.541891896983003920e-05
6.096048024012005726e+02 5.592251624249955860e-05
6.105052526263131085e+02 5.627134628350508207e-05
6.114057028514256444e+02 5.647443788004551134e-05
6.123061530765382940e+02 5.655327718128224534e-05
6.132066033016508300e+02 5.659929802552841416e-05
6.141070535267633659e+02 5.672326345858266013e-05
6.150075037518759018e+02 5.699152095780601142e-05
6.159079539769884377e+02 5.743950887032665120e-05
6.168084042021009736e+02 5.801672897023863921e-05
6.177088544272136232e+02 5.853390629615551056e-05
6.186093046523261592e+02 5.874842018227136264e-05
6.195097548774386951e+02 5.838309702382537517e-05
6.204102051025512310e+02 5.739390412160705362e-05
6.213106553276637669e+02 5.617973585169444323e-05
6.222111055527763028e+02 5.520248470641521367e-05
6.231115557778889524e+02 5.463188851130175027e-05
6.240120060030014884e+02 5.429068537862676057e-05
6.249124562281140243e+02 5.400060160408567869e-05
6.258129064532265602e+02 5.373548301374398464e-05
6.267133566783390961e+02 5.350407613125446630e-05
6.276138069034517457e+02 5.335615256107635682e-05
6.285142571285642816e+02 5.331362416543684038e-05
6.294147073536768175e+02 5.338879687213301552e-05
6.303151575787893535e+02 5.358929100351847398e-05
6.312156078039018894e+02 5.388801380134259278e-05
6.321160580290144253e+02 5.421862476182768241e-05
6.330165082541270749e+02 5.456920356581471631e-05
6.339169584792396108e+02 5.495329458107726473e-05
6.348174087043521467e+02 5.533328775149923045e-05
6.357178589294646827e+02 5.563295110490109360e-05
6.366183091545772186e+02 5.573752778984571442e-05
6.375187593796898682e+02 5.561150716722124468e-05
6.384192096048024041e+02 5.549692507035543980e-05
6.393196598299149400e+02 5.576318804571021653e-05
6.402201100550274759e+02 5.654828359207706909e-05
6.411205602801400119e+02 5.771966246128706700e-05
6.420210105052525478e+02 5.885097028560114691e-05
6.429214607303651974e+02 5.936258184364546039e-05
6.438219109554777333e+02 5.903211606713127497e-05
6.447223611805902692e+02 5.808788515014489312e-05
6.456228114057028051e+02 5.675286580863814413e-05
6.465232616308153411e+02 5.517178430101205217e-05
6.474237118559278770e+02 5.361733084327889842e-05
6.483241620810405266e+02 5.236657457625198075e-05
6.492246123061530625e+02 5.144757166107489274e-05
6.501250625312655984e+02 5.071342856920653825e-05
6.510255127563781343e+02 5.009056176716354534e-05
6.519259629814906702e+02 4.965956213348019259e-05
6.528264132066033198e+02 4.943968113872375099e-05
6.537268634317158558e+02 4.933819502497505886e-05
6.546273136568283917e+02 4.938378993036535944e-05
6.555277638819409276e+02 4.964948977662737503e-05
6.564282141070534635e+02 5.002585828708656072e-05
6.573286643321659994e+02 5.038759575054698868e-05
6.582291145572786490e+02 5.076536010700159708e-05
6.591295647823911850e+02 5.111678851811380986e-05
6.600300150075037209e+02 5.131636658822512950e-05
6.609304652326162568e+02 5.135286920154966302e-05
6.618309154577287927e+02 5.131500617134032727e-05
6.627313656828414423e+02 5.135092591912311329e-05
6.636318159079539782e+02 5.154589438707000201e-05
6.645322661330665142e+02 5.180985516728795371e-05
6.654327163581790501e+02 5.199943569451132735e-05
6.663331665832915860e+02 5.208944599193984001e-05
6.672336168084041219e+02 5.214161446410369778e-05
6.681340670335167715e+02 5.217524162301529796e-05
6.690345172586293074e+02 5.209157302486807479e-05
6.699349674837418434e+02 5.196313019222339986e-05
6.708354177088543793e+02 5.210671205314761068e-05
6.717358679339669152e+02 5.269901127392838993e-05
6.726363181590794511e+02 5.347045344291186168e-05
6.735367683841921007e+02 5.378670745040315304e-05
6.744372186093046366e+02 5.321546313686616989e-05
6.753376688344171725e+02 5.190211533514238885e-05
6.762381190595297085e+02 5.030060154549112239e-05
6.771385692846422444e+02 4.875535365707600583e-05
6.780390195097548940e+02 4.736619558353985596e-05
6.789394697348674299e+02 4.608739345289769801e-05
6.798399199599799658e+02 4.487717763211399171e-05
6.807403701850925017e+02 4.379273873494715999e-05
6.816408204102050377e+02 4.292895423621426941e-05
6.825412706353175736e+02 4.233214443170510145e-05
6.834417208604302232e+02 4.204596135736363101e-05
6.843421710855427591e+02 4.206538844240544317e-05
6.852426213106552950e+02 4.225472540562744497e-05
6.861430715357678309e+02 4.247458836476038192e-05
6.870435217608803669e+02 4.270862473153841111e-05
6.879439719859930165e+02 4.291276173795100093e-05
6.888444222111055524e+02 4.298854269799250443e-05
6.897448724362180883e+02 4.291780755034694194e-05
6.906453226613306242e+02 4.273723665717505207e-05
6.915457728864431601e+02 4.248750517989844408e-05
6.924462231115556961e+02 4.232722475290951711e-05
6.933466733366683457e+02 4.240233681952245288e-05
6.942471235617808816e+02 4.250032188575929472e-05
6.951475737868934175e+02 4.232097390232798616e-05
6.960480240120059534e+02 4.199841611709283652e-05
6.969484742371184893e+02 4.186793212141877159e-05
6.978489244622311389e+02 4.206750819645422023e-05
6.987493746873436749e+02 4.252136173376508166e-05
6.996498249124562108e+02 4.304647240624584318e-05
7.005502751375687467e+02 4.352257906049066639e-05
7.014507253626812826e+02 4.382177381454577844e-05
7.023511755877938185e+02 4.377627251122867980e-05
7.032516258129064681e+02 4.344411632232238603e-05
7.041520760380190040e+02 4.305024361774550002e-05
7.050525262631315400e+02 4.269486459832492250e-05
7.059529764882440759e+02 4.233803709368206224e-05
7.068534267133566118e+02 4.186408586946675396e-05
7.077538769384691477e+02 4.109995449980668851e-05
7.086543271635817973e+02 4.004958736065247467e-05
7.095547773886943332e+02 3.896981481750322974e-05
7.104552276138068692e+02 3.808179390149230654e-05
7.113556778389194051e+02 3.739975654227541265e-05
7.122561280640319410e+02 3.686057618963316544e-05
7.131565782891445906e+02 3.643822727258732522e-05
7.140570285142571265e+02 3.608756173860712250e-05
7.149574787393696624e+02 3.571540123460528667e-05
7.158579289644821984e+02 3.529152406381014099e-05
7.167583791895947343e+02 3.489280600611539709e-05
7.176588294147072702e+02 3.462083201943536731e-05
7.185592796398199198e+02 3.449498567048914287e-05
7.194597298649324557e+02 3.448196953938119033e-05
7.203601800900449916e+02 3.455493113112583149e-05
7.212606303151575275e+02 3.465242387948863081e-05
7.221610805402700635e+02 3.464846457116044909e-05
7.230615307653827131e+02 3.445994134059041395e-05
7.239619809904952490e+02 3.413874709841178523e-05
7.248624312156077849e+02 3.381587710596914073e-05
7.257628814407203208e+02 3.352887892017860272e-05
7.266633316658328567e+02 3.324264016836405648e-05
7.275637818909453927e+02 3.298719629292507812e-05
7.284642321160580423e+02 3.281708813984533113e-05
7.293646823411705782e+02 3.269097264001188041e-05
7.302651325662831141e+02 3.239346206983122932e-05
7.311655827913956500e+02 3.177200818520727955e-05
7.320660330165081859e+02 3.098218604575467131e-05
7.329664832416207219e+02 3.027713069359397300e-05
7.338669334667333715e+02 2.981958947475920712e-05
7.347673836918459074e+02 2.965215235313186344e-05
7.356678339169584433e+02 2.970962436945054350e-05
7.365682841420709792e+02 2.992337087664643554e-05
7.374687343671835151e+02 3.024951339575280499e-05
7.383691845922961647e+02 3.057662965570996367e-05
7.392696348174087007e+02 3.074994023756616305e-05
7.401700850425212366e+02 3.070587740333822840e-05
7.410705352676337725e+02 3.049760834057002967e-05
7.419709854927463084e+02 3.023080486326817980e-05
7.428714357178588443e+02 2.995301509483012288e-05
7.437718859429714939e+02 2.962870926371574031e-05
7.446723361680840299e+02 2.925397812975501335e-05
7.455727863931965658e+02 2.888396198357681311e-05
7.464732366183091017e+02 2.859115936368873692e-05
7.473736868434216376e+02 2.841399043340982387e-05
7.482741370685342872e+02 2.833905968006530002e-05
7.491745872936468231e+02 2.837068080651183083e-05
7.500750375187593590e+02 2.847466295162327083e-05
7.509754877438718950e+02 2.856351964760540325e-05
7.518759379689844309e+02 2.856869820680528037e-05
7.527763881940969668e+02 2.845473077023912004e-05
7.536768384192096164e+02 2.829390021408915995e-05
7.545772886443221523e+02 2.824177255717442848e-05
7.554777388694346882e+02 2.834170903998267375e-05
7.563781890945472242e+02 2.846449448122284818e-05
7.572786393196597601e+02 2.847949152101527780e-05
7.581790895447722960e+02 2.837549418175313470e-05
7.590795397698849456e+02 2.819046131511150351e-05
7.599799899949974815e+02 2.796290463862034540e-05
7.608804402201100174e+02 2.768431420359427933e-05
7.617808904452225534e+02 2.729729943490384324e-05
7.626813406703350893e+02 2.682602877700877102e-05
7.635817908954477389e+02 2.640792888217255796e-05
7.644822411205602748e+02 2.613298599665602273e-05
7.653826913456728107e+02 2.597955747111604588e-05
7.662831415707853466e+02 2.590904655204923540e-05
7.671835917958978825e+02 2.593819116222181932e-05
7.680840420210104185e+02 2.606712412378814488e-05
7.689844922461230681e+02 2.617900506072996000e-05
7.698849424712356040e+02 2.608614417038384984e-05
7.707853926963481399e+02 2.576045912066747640e-05
7.716858429214606758e+02 2.540092584282985566e-05
7.725862931465732117e+02 2.520577148861868308e-05
7.734867433716858613e+02 2.517078521911743044e-05
7.743871935967983973e+02 2.515504270415832363e-05
7.752876438219109332e+02 2.503857715243517121e-05
7.761880940470234691e+02 2.481778320994206769e-05
7.770885442721360050e+02 2.463195796460057114e-05
7.779889944972485409e+02 2.456765975704256074e-05
7.788894447223611905e+02 2.448302108715293094e-05
7.797898949474737265e+02 2.426543321790828223e-05
7.806903451725862624e+02 2.399690305540509131e-05
7.815907953976987983e+02 2.377415660241138365e-05
7.824912456228113342e+02 2.361161735930052664e-05
7.833916958479238701e+02 2.344615231190119180e-05
7.842921460730365197e+02 2.323688078549803959e-05
7.851925962981490557e+02 2.301619526669722199e-05
7.860930465232615916e+02 2.278571433393535605e-05
7.869934967483741275e+02 2.250953771677692512e-05
7.878939469734866634e+02 2.219349881134227354e-05
7.887943971985993130e+02 2.189543550363405008e-05
7.896948474237118489e+02 2.165962461497342534e-05
7.905952976488243849e+02 2.146248060053757269e-05
7.914957478739369208e+02 2.124267576779052209e-05
7.923961980990494567e+02 2.097206323421347068e-05
7.932966483241619926e+02 2.070975553061067068e-05
7.941970985492746422e+02 2.057773089283699579e-05
7.950975487743871781e+02 2.064705350437934367e-05
7.959979989994997140e+02 2.088429027270265233e-05
7.968984492246122500e+02 2.120509015739822432e-05
7.977988994497247859e+02 2.152445280490246260e-05
7.986993496748374355e+02 2.177512921404951881e-05
7.995997998999499714e+02 2.194752035673917524e-05
8.005002501250625073e+02 2.207330222353965843e-05
8.014007003501750432e+02 2.212004380536590167e-05
8.023011505752875792e+02 2.203186227789897489e-05
8.032016008004001151e+02 2.185576319917329621e-05
8.041020510255127647e+02 2.168068407455296030e-05
8.050025012506253006e+02 2.152679643870238966e-05
8.059029514757378365e+02 2.139430775872119928e-05
8.068034017008503724e+02 2.135423900338112138e-05
8.077038519259629084e+02 2.148316953706313394e-05
8.086043021510754443e+02 2.175873629608301356e-05
8.095047523761880939e+02 2.203156011472968929e-05
8.104052026013006298e+02 2.215608362533566617e-05
8.113056528264131657e+02 2.219703727358325189e-05
8.122061030515257016e+02 2.233481127029429358e-05
8.131065532766382375e+02 2.258231003532774824e-05
8.140070035017508872e+02 2.276351900197432721e-05
8.149074537268634231e+02 2.273938534275479604e-05
8.158079039519759590e+02 2.249458143290292795e-05
8.167083541770884949e+02 2.207026246658478589e-05
8.176088044022010308e+02 2.154712300069267509e-05
8.185092546273135667e+02 2.103526320360971596e-05
8.194097048524262163e+02 2.066173338222530067e-05
8.203101550775387523e+02 2.050736512901651500e-05
8.212106053026512882e+02 2.053912434315025549e-05
8.221110555277638241e+02 2.063859532752057178e-05
8.230115057528763600e+02 2.070350746029190833e-05
8.239119559779890096e+02 2.071889238534504964e-05
8.248124062031015455e+02 2.066212350664707500e-05
8.257128564282140815e+02 2.048181184592985733e-05
8.266133066533266174e+02 2.023841833438475696e-05
8.275137568784391533e+02 2.005737219549720543e-05
8.284142071035516892e+02 1.995935240805459128e-05
8.293146573286643388e+02 1.988828955202007979e-05
8.302151075537768747e+02 1.983319739352709619e-05
8.311155577788894107e+02 1.982841521976478098e-05
8.320160080040019466e+02 1.993453184326854152e-05
8.329164582291144825e+02 2.025589169139689331e-05
8.338169084542270184e+02 2.084610013187167645e-05
8.347173586793396680e+02 2.162624492803188916e-05
8.356178089044522039e+02 2.239111397153269794e-05
8.365182591295647399e+02 2.295477211073535404e-05
8.374187093546772758e+02 2.326619518872232261e-05
8.383191595797898117e+02 2.334343858027065896e-05
8.392196098049024613e+02 2.325276655994769337e-05
8.401200600300149972e+02 2.309092884142948824e-05
8.410205102551275331e+02 2.292344596336922394e-05
8.419209604802400690e+02 2.275841585158002665e-05
8.428214107053526050e+02 2.257690766970281497e-05
8.437218609304651409e+02 2.239588045519095774e-05
8.446223111555777905e+02 2.227203737409890868e-05
8.455227613806903264e+02 2.224168639364846480e-05
8.464232116058028623e+02 2.229304863805278147e-05
8.473236618309153982e+02 2.237891263365271991e-05
8.482241120560279342e+02 2.244546806084986738e-05
8.491245622811405838e+02 2.249493736893006039e-05
8.500250125062531197e+02 2.254941993748889667e-05
8.509254627313656556e+02 2.253058867451483775e-05
8.518259129564781915e+02 2.236747808765246224e-05
8.527263631815907274e+02 2.216535349912404499e-05
8.536268134067032634e+02 2.208297563901459818e-05
8.545272636318159130e+02 2.214254140733009651e-05
8.554277138569284489e+02 2.229165378874750915e-05
8.563281640820409848e+02 2.251675242687748308e-05
8.572286143071535207e+02 2.282401529256302314e-05
8.581290645322660566e+02 2.318649088918463215e-05
8.590295147573785925e+02 2.351068864020242514e-05
8.599299649824912422e+02 2.371456346184873319e-05
8.608304152076037781e+02 2.380337627428317745e-05
8.617308654327163140e+02 2.380733418819680369e-05
8.626313156578288499e+02 2.373271885905685764e-05
8.635317658829413858e+02 2.359642041378153546e-05
8.644322161080540354e+02 2.345594662511201863e-05
8.653326663331665713e+02 2.338570108548355925e-05
8.662331165582791073e+02 2.342008609791670172e-05
8.671335667833916432e+02 2.358514139000871527e-05
8.680340170085041791e+02 2.389957195483077284e-05
8.689344672336167150e+02 2.428737558092030352e-05
8.698349174587293646e+02 2.459898249546339479e-05
8.707353676838419005e+02 2.473325346085362896e-05
8.716358179089544365e+02 2.463499348276986518e-05
8.725362681340669724e+02 2.432618686582722870e-05
8.734367183591795083e+02 2.392221471554419534e-05
8.743371685842921579e+02 2.350872650847770872e-05
8.752376188094046938e+02 2.315561187089496900e-05
8.761380690345172297e+02 2.297980037697160976e-05
8.770385192596297657e+02 2.305743832849432314e-05
8.779389694847423016e+02 2.331197657031113308e-05
8.788394197098548375e+02 2.353168558098073471e-05
8.797398699349674871e+02 2.354379420167967982e-05
8.806403201600800230e+02 2.333595266470035742e-05
8.815407703851925589e+02 2.305887504610208770e-05
8.824412206103050949e+02 2.290769608120397458e-05
8.833416708354176308e+02 2.296972804495368980e-05
8.842421210605301667e+02 2.318300577777815635e-05
8.851425712856428163e+02 2.343159794637269980e-05
8.860430215107553522e+02 2.365554549108407891e-05
8.869434717358678881e+02 2.386838024637584859e-05
8.878439219609804240e+02 2.409045021912218105e-05
8.887443721860929600e+02 2.429443846699018178e-05
8.896448224112056096e+02 2.447689317066027977e-05
8.905452726363181455e+02 2.471196223138021509e-05
8.914457228614306814e+02 2.505141225464833782e-05
8.923461730865432173e+02 2.546492527495770533e-05
8.932466233116557532e+02 2.592290480139748161e-05
8.941470735367682892e+02 2.644086496872830979e-05
8.950475237618809388e+02 2.698898555949133087e-05
8.959479739869934747e+02 2.745023767515342283e-05
8.968484242121060106e+02 2.771100130367855604e-05
8.977488744372185465e+02 2.768922835795506883e-05
8.986493246623310824e+02 2.744077955767908514e-05
8.995497748874437320e+02 2.718389601465616513e-05
9.004502251125562680e+02 2.709257942484447355e-05
9.013506753376688039e+02 2.718265192482175187e-05
9.022511255627813398e+02 2.740636610020497958e-05
9.031515757878938757e+02 2.773465878344736539e-05
9.040520260130064116e+02 2.814631851399092342e-05
9.049524762381190612e+02 2.859097117886136622e-05
9.058529264632315972e+02 2.900751037793411423e-05
9.067533766883441331e+02 2.942138683547248669e-05
9.076538269134566690e+02 2.994111005702288587e-05
9.085542771385692049e+02 3.060038635867839968e-05
9.094547273636817408e+02 3.127576046095701740e-05
9.103551775887943904e+02 3.178474152391330980e-05
9.112556278139069263e+02 3.211237539144441743e-05
9.121560780390194623e+02 3.240370556511040063e-05
9.130565282641319982e+02 3.273718598346961393e-05
9.139569784892445341e+02 3.308065408531555462e-05
9.148574287143571837e+02 3.341308859386960629e-05
9.157578789394697196e+02 3.377124685415568660e-05
9.166583291645822555e+02 3.426317671950847977e-05
9.175587793896947915e+02 3.496701012607981047e-05
9.184592296148073274e+02 3.582877769735014542e-05
9.193596798399198633e+02 3.678950713961526487e-05
9.202601300650325129e+02 3.783762248010442590e-05
9.211605802901450488e+02 3.885999167390002880e-05
9.220610305152575847e+02 3.968445828774373399e-05
9.229614807403701207e+02 4.024770370697379202e-05
9.238619309654826566e+02 4.059926089450414981e-05
9.247623811905953062e+02 4.075029887615814431e-05
9.256628314157078421e+02 4.072671465357601857e-05
9.265632816408203780e+02 4.074560919656335643e-05
9.274637318659329139e+02 4.108957652718512888e-05
9.283641820910454499e+02 4.182590096954641934e-05
9.292646323161579858e+02 4.271460103869330734e-05
9.301650825412706354e+02 4.342219188853908070e-05
9.310655327663831713e+02 4.386106606610575757e-05
9.319659829914957072e+02 4.417834610428061410e-05
9.328664332166082431e+02 4.432461661970451986e-05
9.337668834417207790e+02 4.407496414035557065e-05
9.346673336668334287e+02 4.349287492874701576e-05
9.355677838919459646e+02 4.293028721989750756e-05
9.364682341170585005e+02 4.270863816512206331e-05
9.373686843421710364e+02 4.298440597244133351e-05
9.382691345672835723e+02 4.384994058061958205e-05
9.391695847923961082e+02 4.527345306129189790e-05
9.400700350175087578e+02 4.697405801660726663e-05
9.409704852426212938e+02 4.865209860313764596e-05
9.418709354677338297e+02 5.021425239889229074e-05
9.427713856928463656e+02 5.160140686247350413e-05
9.436718359179589015e+02 5.260122432821037904e-05
9.445722861430714374e+02 5.310376924095357859e-05
9.454727363681840870e+02 5.323521511776705897e-05
9.463731865932966230e+02 5.317474959346472202e-05
9.472736368184091589e+02 5.294768715638236594e-05
9.481740870435216948e+02 5.257576933025244817e-05
9.490745372686342307e+02 5.222198098680413855e-05
9.499749874937468803e+02 5.205656572755837732e-05
9.508754377188594162e+02 5.229379514341483829e-05
9.517758879439719522e+02 5.313862143156039710e-05
9.526763381690844881e+02 5.440041702600217839e-05
9.535767883941970240e+02 5.548938035565857338e-05
9.544772386193095599e+02 5.601235804333637165e-05
9.553776888444222095e+02 5.604942412334327562e-05
9.562781390695347454e+02 5.596786363417732374e-05
9.571785892946472813e+02 5.609652321186101606e-05
9.580790395197598173e+02 5.660730468301030950e-05
9.589794897448723532e+02 5.757225511607190081e-05
9.598799399699850028e+02 5.879120894441864509e-05
9.607803901950975387e+02 5.988501465183862103e-05
9.616808404202100746e+02 6.057941997508834711e-05
9.625812906453226105e+02 6.086906093025451058e-05
9.634817408704351465e+02 6.100152118124857025e-05
9.643821910955476824e+02 6.131855884336393035e-05
9.652826413206603320e+02 6.197348564848819178e-05
9.661830915457728679e+02 6.275757545155672204e-05
9.670835417708854038e+02 6.342820181976103393e-05
9.679839919959979397e+02 6.399877027424341603e-05
9.688844422211104757e+02 6.465707306294133185e-05
9.697848924462230116e+02 6.554882678117492545e-05
9.706853426713356612e+02 6.653162353314372775e-05
9.715857928964481971e+02 6.744859970193265320e-05
9.724862431215607330e+02 6.849978047069119058e-05
9.733866933466732689e+02 6.985820788196520320e-05
9.742871435717858049e+02 7.140508516575754178e-05
9.751875937968984545e+02 7.294862844211173834e-05
9.760880440220109904e+02 7.427814230778240245e-05
9.769884942471235263e+02 7.519117929705503251e-05
9.778889444722360622e+02 7.570802446572997993e-05
9.787893946973485981e+02 7.604131026867803152e-05
9.796898449224611340e+02 7.638146602277932559e-05
9.805902951475737837e+02 7.702096742586359826e-05
9.814907453726863196e+02 7.836896603484720138e-05
9.823911955977988555e+02 8.061702968274269104e-05
9.832916458229113914e+02 8.337775481445452259e-05
9.841920960480239273e+02 8.587807220116956978e-05
9.850925462731365769e+02 8.765976482135140165e-05
9.859929964982491128e+02 8.881520892495872298e-05
9.868934467233616488e+02 8.947621229180919471e-05
9.877938969484741847e+02 8.966148074159928751e-05
9.886943471735867206e+02 8.939716103996396838e-05
9.895947973986992565e+02 8.892699122910299779e-05
9.904952476238119061e+02 8.881414051002778733e-05
9.913956978489244420e+02 8.961012707837908754e-05
9.922961480740369780e+02 9.160967006544564427e-05
9.931965982991495139e+02 9.455367763607510181e-05
9.940970485242620498e+02 9.778061467424569537e-05
9.949974987493745857e+02 1.008959979262210438e-04
9.958979489744872353e+02 1.039577405256866908e-04
9.967983991995997712e+02 1.071776343316360264e-04
9.976988494247123072e+02 1.106641845970106607e-04
9.985992996498248431e+02 1.142827033071927182e-04
9.994997498749373790e+02 1.172861552037455683e-04
1.000400200100050029e+03 1.187516602167417118e-04
1.001300650325162565e+03 1.187768481123687076e-04
1.002201100550275100e+03 1.183998958072545902e-04
1.003101550775387636e+03 1.187698107805872815e-04
1.004002001000500172e+03 1.205480266030446626e-04
1.004902451225612708e+03 1.233624752108029615e-04
1.005802901450725358e+03 1.263084913252467340e-04
1.006703351675837894e+03 1.289357993407494864e-04
1.007603801900950430e+03 1.315360487312681212e-04
1.008504252126062966e+03 1.342655325406751890e-04
1.009404702351175501e+03 1.366687183362534901e-04
1.010305152576288151e+03 1.382291844417763804e-04
1.011205602801400687e+03 1.388786972848750161e-04
1.012106053026513223e+03 1.393269526724304457e-04
1.013006503251625759e+03 1.404285476098283644e-04
1.013906953476738295e+03 1.423532754871002109e-04
1.014807403701850831e+03 1.445148677907756455e-04
1.015707853926963480e+03 1.464559024197136688e-04
1.016608304152076016e+03 1.483971408025418898e-04
1.017508754377188552e+03 1.505293725891597423e-04
1.018409204602301088e+03 1.528832175924213282e-04
1.019309654827413624e+03 1.553825722308320792e-04
1.020210105052526160e+03 1.576117999006885931e-04
1.021110555277638809e+03 1.592326449397051392e-04
1.022011005502751345e+03 1.604496226211534274e-04
1.022911455727863881e+03 1.620080128872302891e-04
1.023811905952976417e+03 1.646616826971176431e-04
1.024712356178089067e+03 1.685576894252553345e-04
1.025612806403201603e+03 1.733489479926523494e-04
1.026513256628314139e+03 1.786514743163645808e-04
1.027413706853426675e+03 1.842151003196555747e-04
1.028314157078539210e+03 1.898972276413652728e-04
1.029214607303651746e+03 1.955524536946449368e-04
1.030115057528764282e+03 2.011540181154541159e-04
1.031015507753876818e+03 2.072079365068159405e-04
1.031915957978989354e+03 2.142757497105944316e-04
1.032816408204101890e+03 2.218221830019222825e-04
1.033716858429214653e+03 2.287493056351960947e-04
1.034617308654327189e+03 2.345397820314456215e-04
1.035517758879439725e+03 2.395563798959211258e-04
1.036418209104552261e+03 2.444259598655575800e-04
1.037318659329664797e+03 2.495007093127096353e-04
1.038219109554777333e+03 2.550423997376090909e-04
1.039119559779889869e+03 2.609686643908470114e-04
1.040020010005002405e+03 2.665250525579268017e-04
1.040920460230114941e+03 2.710989314708481517e-04
1.041820910455227477e+03 2.748880584941389366e-04
1.042721360680340013e+03 2.786252814329110566e-04
1.043621810905452776e+03 2.831409276335638517e-04
1.044522261130565312e+03 2.891648909864569890e-04
1.045422711355677848e+03 2.969658663393497599e-04
1.046323161580790384e+03 3.059279763870391996e-04
1.047223611805902920e+03 3.153476752343309071e-04
1.048124062031015455e+03 3.253651251005081177e-04
1.049024512256127991e+03 3.363482102137775771e-04
1.049924962481240527e+03 3.483525928345611333e-04
1.050825412706353063e+03 3.613327119628554403e-04
1.051725862931465599e+03 3.749681209326891475e-04
1.052626313156578135e+03 3.881450274579042819e-04
1.053526763381690898e+03 3.995245730810379793e-04
1.054427213606803434e+03 4.087233031749880948e-04
1.055327663831915970e+03 4.168049249731179046e-04
1.056228114057028506e+03 4.247092320801520819e-04
1.057128564282141042e+03 4.318436649153071724e-04
1.058029014507253578e+03 4.371845369136389495e-04
1.058929464732366114e+03 4.407356971436968704e-04
1.059829914957478650e+03 4.437089379587157026e-04
1.060730365182591186e+03 4.474329594124217902e-04
1.061630815407703722e+03 4.531447535693189756e-04
1.062531265632816257e+03 4.613951378337564761e-04
1.063431715857929021e+03 4.715296363990631044e-04
1.064332166083041557e+03 4.825585929648019989e-04
1.065232616308154093e+03 4.942673350134918313e-04
1.066133066533266629e+03 5.075012324864186172e-04
1.067033516758379164e+03 5.224951785537805841e-04
1.067933966983491700e+03 5.377057944050681786e-04
1.068834417208604236e+03 5.509464711485485269e-04
1.069734867433716772e+03 5.607245167905603985e-04
1.070635317658829308e+03 5.670497129624200300e-04
1.071535767883941844e+03 5.698924702364389916e-04
1.072436218109054380e+03 5.690365284982566371e-04
1.073336668334167143e+03 5.648416828853867555e-04
1.074237118559279679e+03 5.575592881348317553e-04
1.075137568784392215e+03 5.486371840731075989e-04
1.076038019009504751e+03 5.418750781827344140e-04
1.076938469234617287e+03 5.404580182073092038e-04
1.077838919459729823e+03 5.435907779703126738e-04
1.078739369684842359e+03 5.476852024481573171e-04
1.079639819909954895e+03 5.496351470167120962e-04
1.080540270135067431e+03 5.492786004418963395e-04
1.081440720360179967e+03 5.492658995298226520e-04
1.082341170585292502e+03 5.512517100160407510e-04
1.083241620810405038e+03 5.552680074055091862e-04
1.084142071035517802e+03 5.609210703016234961e-04
1.085042521260630338e+03 5.666267505597442173e-04
1.085942971485742873e+03 5.706854572153663993e-04
1.086843421710855409e+03 5.745255916994960327e-04
1.087743871935967945e+03 5.810052852356802338e-04
1.088644322161080481e+03 5.901924238030162436e-04
1.089544772386193017e+03 5.997775067110836964e-04
1.090445222611305553e+03 6.065999032612290343e-04
1.091345672836418089e+03 6.080277983701089803e-04
1.092246123061530625e+03 6.052738627193555120e-04
1.093146573286643161e+03 6.027718065242550346e-04
1.094047023511755924e+03 6.025146804981189666e-04
1.094947473736868460e+03 6.031760015377284675e-04
1.095847923961980996e+03 6.047184594823300794e-04
1.096748374187093532e+03 6.084949743665484965e-04
1.097648824412206068e+03 6.124917211599034423e-04
1.098549274637318604e+03 6.126786199133111861e-04
1.099449724862431140e+03 6.075769011192970991e-04
1.100350175087543676e+03 5.980261345085981445e-04
1.101250625312656211e+03 5.859818409230597687e-04
1.102151075537768747e+03 5.735223010803285580e-04
1.103051525762881283e+03 5.618871032925795228e-04
1.103951975987994047e+03 5.504193360205261992e-04
1.104852426213106583e+03 5.373957390096277716e-04
1.105752876438219118e+03 5.225550494144228170e-04
1.106653326663331654e+03 5.081506688490535807e-04
1.107553776888444190e+03 4.961823129019706782e-04
1.108454227113556726e+03 4.861009607949714128e-04
1.109354677338669262e+03 4.754933471896251491e-04
1.110255127563781798e+03 4.629772155110770246e-04
1.111155577788894334e+03 4.499458372116027678e-04
1.112056028014006870e+03 4.383633329145834780e-04
1.112956478239119406e+03 4.286399255565074944e-04
1.113856928464232169e+03 4.196857595224885132e-04
1.114757378689344705e+03 4.116524628447253099e-04
1.115657828914457241e+03 4.070275179296815285e-04
1.116558279139569777e+03 4.070456049938799481e-04
1.117458729364682313e+03 4.078539577426969036e-04
1.118359179589794849e+03 4.024888150726205617e-04
1.119259629814907385e+03 3.873488635000157726e-04
1.120160080040019920e+03 3.655650086010469994e-04
1.121060530265132456e+03 3.436319479175123370e-04
1.121960980490244992e+03 3.260000928944536947e-04
1.122861430715357528e+03 3.133037402463017206e-04
1.123761880940470292e+03 3.031691429472540200e-04
1.124662331165582827e+03 2.941375867745714564e-04
1.125562781390695363e+03 2.872777222968735784e-04
1.126463231615807899e+03 2.822503151074875235e-04
1.127363681840920435e+03 2.768932212545045790e-04
1.128264132066032971e+03 2.702768013191453821e-04
1.129164582291145507e+03 2.630516014082213321e-04
1.130065032516258043e+03 2.554354137409909405e-04
1.130965482741370579e+03 2.470553869126262177e-04
1.131865932966483115e+03 2.386976020887519650e-04
1.132766383191595651e+03 2.314483592212816917e-04
1.133666833416708187e+03 2.251069425756078795e-04
1.134567283641820950e+03 2.189779519627561833e-04
1.135467733866933486e+03 2.121641175945631393e-04
1.136368184092046022e+03 2.033301270174601278e-04
1.137268634317158558e+03 1.921124763620046447e-04
1.138169084542271094e+03 1.794325384696081891e-04
1.139069534767383630e+03 1.661165758802614530e-04
1.139969984992496165e+03 1.526913315154115229e-04
1.140870435217608701e+03 1.398359340816048078e-04
1.141770885442721237e+03 1.286215725668039334e-04
1.142671335667833773e+03 1.199292107593776386e-04
1.143571785892946309e+03 1.135308170234175545e-04
1.144472236118059072e+03 1.085719355128866273e-04
1.145372686343171608e+03 1.045047503174556964e-04
1.146273136568284144e+03 1.010218989271499825e-04
1.147173586793396680e+03 9.777453602916215403e-05
1.148074037018509216e+03 9.474405873019160795e-05
1.148974487243621752e+03 9.224897716489019722e-05
1.149874937468734288e+03 9.027080337259528345e-05
1.150775387693846824e+03 8.825610612887756722e-05
1.151675837918959360e+03 8.568105940541650761e-05
1.152576288144071896e+03 8.284439221570293087e-05
1.153476738369184432e+03 8.046658623639586522e-05
1.154377188594297195e+03 7.869634492017843106e-05
1.155277638819409731e+03 7.723774906608488189e-05
1.156178089044522267e+03 7.608708918047920938e-05
1.157078539269634803e+03 7.551676473712066106e-05
1.157978989494747339e+03 7.549477775990517795e-05
1.158879439719859874e+03 7.564730717412148221e-05
1.159779889944972410e+03 7.554029020902393830e-05
1.160680340170084946e+03 7.488184891795856993e-05
1.161580790395197482e+03 7.377194340884705070e-05
1.162481240620310018e+03 7.283505727793916293e-05
1.163381690845422554e+03 7.254704364754409730e-05
1.164282141070535317e+03 7.265397675541528902e-05
1.165182591295647853e+03 7.266072025045159136e-05
1.166083041520760389e+03 7.271439186936608050e-05
1.166983491745872925e+03 7.337439076570414305e-05
1.167883941970985461e+03 7.472156088665468556e-05
1.168784392196097997e+03 7.618698688771699263e-05
1.169684842421210533e+03 7.716848949022809883e-05
1.170585292646323069e+03 7.756617059762713922e-05
1.171485742871435605e+03 7.770690213297840455e-05
1.172386193096548141e+03 7.801169996244538196e-05
1.173286643321660677e+03 7.876058454060217231e-05
1.174187093546773440e+03 8.002251621676647708e-05
1.175087543771885976e+03 8.174992110813622287e-05
1.175987993996998512e+03 8.398726323199515512e-05
1.176888444222111048e+03 8.655369164531140011e-05
1.177788894447223583e+03 8.879330577626014893e-05
1.178689344672336119e+03 9.052121334734496789e-05
1.179589794897448655e+03 9.246427577821328208e-05
1.180490245122561191e+03 9.524505920123919390e-05
1.181390695347673727e+03 9.882994549459402057e-05
1.182291145572786263e+03 1.028440067254741882e-04
1.183191595797898799e+03 1.068722355019654114e-04
1.184092046023011562e+03 1.106756013953945773e-04
1.184992496248124098e+03 1.142101886510167298e-04
1.185892946473236634e+03 1.175184581732112665e-04
1.186793396698349170e+03 1.206391889426240466e-04
1.187693846923461706e+03 1.237525784754698677e-04
1.188594297148574242e+03 1.273471235304697742e-04
1.189494747373686778e+03 1.314438473041814020e-04
1.190395197598799314e+03 1.351246658657132916e-04
1.191295647823911850e+03 1.375131619153998122e-04
1.192196098049024386e+03 1.387720240432796612e-04
1.193096548274136921e+03 1.396506311559417258e-04
1.193996998499249457e+03 1.404943469739028839e-04
1.194897448724362221e+03 1.413297390625459053e-04
1.195797898949474757e+03 1.423986913041860294e-04
1.196698349174587293e+03 1.440176763619285144e-04
1.197598799399699828e+03 1.463446427435372878e-04
1.198499249624812364e+03 1.493758777288631007e-04
1.199399699849924900e+03 1.530579026484488062e-04
1.200300150075037436e+03 1.573817665726093750e-04
1.201200600300149972e+03 1.623974822139707909e-04
1.202101050525262508e+03 1.680834667309527380e-04
1.203001500750375044e+03 1.743752778304635744e-04
1.203901950975487580e+03 1.811799665421685477e-04
1.204802401200600343e+03 1.885558421106293297e-04
1.205702851425712879e+03 1.968882304944174328e-04
1.206603301650825415e+03 2.062530919625403579e-04
1.207503751875937951e+03 2.156078800254585220e-04
1.208404202101050487e+03 2.232623833294295639e-04
1.209304652326163023e+03 2.282462033947839895e-04
1.210205102551275559e+03 2.302487864703989598e-04
1.211105552776388095e+03 2.290775711067734473e-04
1.212006003001500630e+03 2.255505078165106374e-04
1.212906453226613166e+03 2.218112018218849771e-04
1.213806903451725702e+03 2.196813650105645249e-04
1.214707353676838466e+03 2.193639996946136642e-04
1.215607803901951002e+03 2.200103509314912530e-04
1.216508254127063537e+03 2.206087105130523775e-04
1.217408704352176073e+03 2.210665095044892588e-04
1.218309154577288609e+03 2.227651891623374180e-04
1.219209604802401145e+03 2.265942659803098723e-04
1.220110055027513681e+03 2.317620232420249983e-04
1.221010505252626217e+03 2.366540698239315093e-04
1.221910955477738753e+03 2.402553428608388778e-04
1.222811405702851289e+03 2.429610516803648828e-04
1.223711855927963825e+03 2.460179092000040345e-04
1.224612306153076588e+03 2.504929957609884216e-04
1.225512756378189124e+03 2.568917504829004109e-04
1.226413206603301660e+03 2.651449370472325402e-04
1.227313656828414196e+03 2.745127858289877413e-04
1.228214107053526732e+03 2.839304693185767318e-04
1.229114557278639268e+03 2.929158800650849721e-04
1.230015007503751804e+03 3.021619093302728735e-04
1.230915457728864340e+03 3.127303935812878366e-04
1.231815907953976875e+03 3.251662428467783821e-04
1.232716358179089411e+03 3.391906462741002722e-04
1.233616808404201947e+03 3.544113216683172593e-04
1.234517258629314711e+03 3.709176018434720448e-04
1.235417708854427246e+03 3.888239771531667587e-04
1.236318159079539782e+03 4.079530556828695181e-04
1.237218609304652318e+03 4.279835180434245624e-04
1.238119059529764854e+03 4.492099606240284042e-04
1.239019509754877390e+03 4.721550037266098224e-04
1.239919959979989926e+03 4.964931142491248953e-04
1.240820410205102462e+03 5.211052265620868054e-04
1.241720860430214998e+03 5.450416934755975993e-04
1.242621310655327534e+03 5.682188362851691528e-04
1.243521760880440070e+03 5.899174715125177475e-04
1.244422211105552606e+03 6.074002909896980681e-04
1.245322661330665369e+03 6.174377575735391427e-04
1.246223111555777905e+03 6.195826421930361941e-04
1.247123561780890441e+03 6.167424154328155200e-04
1.248024012006002977e+03 6.123527834679602481e-04
1.248924462231115513e+03 6.078251613391717203e-04
1.249824912456228049e+03 6.027917377355772538e-04
1.250725362681340584e+03 5.976644996510285888e-04
1.251625812906453120e+03 5.940712228438586526e-04
1.252526263131565656e+03 5.930800435962277090e-04
1.253426713356678192e+03 5.941038730266819936e-04
1.254327163581790728e+03 5.961848278554280180e-04
1.255227613806903491e+03 5.995340751801146121e-04
1.256128064032016027e+03 6.042900022991437884e-04
1.257028514257128563e+03 6.093494051261836002e-04
1.257928964482241099e+03 6.140733003108647453e-04
1.258829414707353635e+03 6.192658987368037564e-04
1.259729864932466171e+03 6.261255021357563146e-04
1.260630315157578707e+03 6.355403751262453643e-04
1.261530765382691243e+03 6.475829020791822477e-04
1.262431215607803779e+03 6.606463409934822334e-04
1.263331665832916315e+03 6.724425785780436399e-04
1.264232116058028851e+03 6.821451573311928824e-04
1.265132566283141614e+03 6.904157381021526355e-04
1.266033016508254150e+03 6.988576210381703194e-04
1.266933466733366686e+03 7.090352644035513574e-04
1.267833916958479222e+03 7.206971005234901004e-04
1.268734367183591758e+03 7.323248543578798160e-04
1.269634817408704293e+03 7.439654926913960055e-04
1.270535267633816829e+03 7.579274852363100451e-04
1.271435717858929365e+03 7.756642060887365903e-04
1.272336168084041901e+03 7.949748114760504672e-04
1.273236618309154437e+03 8.129509569396694332e-04
1.274137068534266973e+03 8.295234761497476475e-04
1.275037518759379736e+03 8.454836693669391104e-04
1.275937968984492272e+03 8.605650738000870112e-04
1.276838419209604808e+03 8.739915873851556664e-04
1.277738869434717344e+03 8.856152610467765045e-04
1.278639319659829880e+03 8.974178814884129331e-04
1.279539769884942416e+03 9.114953423476758292e-04
1.280440220110054952e+03 9.268791392951099793e-04
1.281340670335167488e+03 9.425934755883611524e-04
1.282241120560280024e+03 9.604081355769227869e-04
1.283141570785392560e+03 9.817836092769550212e-04
1.284042021010505096e+03 1.004798432267833179e-03
1.284942471235617859e+03 1.026566797090699675e-03
1.285842921460730395e+03 1.046705045789911564e-03
1.286743371685842931e+03 1.065753844713298020e-03
1.287643821910955467e+03 1.083677594120096123e-03
1.288544272136068003e+03 1.099522499835702471e-03
1.289444722361180538e+03 1.111644505778891165e-03
1.290345172586293074e+03 1.120853877644924831e-03
1.291245622811405610e+03 1.130849962213237216e-03
1.292146073036518146e+03 1.144753269654661754e-03
1.293046523261630682e+03 1.163252365463923917e-03
1.293946973486743218e+03 1.184311373155228246e-03
1.294847423711855754e+03 1.203029247286897764e-03
1.295747873936968517e+03 1.214298029391808155e-03
1.296648324162081053e+03 1.217356448167495903e-03
1.297548774387193589e+03 1.216383403946387541e-03
1.298449224612306125e+03 1.216576547315157417e-03
1.299349674837418661e+03 1.219971573988081056e-03
1.300250125062531197e+03 1.226232805421306532e-03
1.301150575287643733e+03 1.235606107284868043e-03
1.302051025512756269e+03 1.248225123172686402e-03
1.302951475737868805e+03 1.263728119452724175e-03
1.303851925962981340e+03 1.282331121899898431e-03
1.304752376188093876e+03 1.303338989009765600e-03
1.305652826413206640e+03 1.323598440188706931e-03
1.306553276638319176e+03 1.340648894070719209e-03
1.307453726863431712e+03 1.357188584309606616e-03
1.308354177088544247e+03 1.378542768922235741e-03
1.309254627313656783e+03 1.406940780697124539e-03
1.310155077538769319e+03 1.441501493960597449e-03
1.311055527763881855e+03 1.481142935220151717e-03
1.311955977988994391e+03 1.524915437308654734e-03
1.312856428214106927e+03 1.571376192855576106e-03
1.313756878439219463e+03 1.617450072116184646e-03
1.314657328664331999e+03 1.660885167322738963e-03
1.315557778889444762e+03 1.703710766893451727e-03
1.316458229114557298e+03 1.748561238045090839e-03
1.317358679339669834e+03 1.794937235818708015e-03
1.318259129564782370e+03 1.840430006045945966e-03
1.319159579789894906e+03 1.883059907384121261e-03
1.320060030015007442e+03 1.924050163988896096e-03
1.320960480240119978e+03 1.967171813052654046e-03
1.321860930465232514e+03 2.014254400349288054e-03
1.322761380690345050e+03 2.065183908949815104e-03
1.323661830915457585e+03 2.118701442909179129e-03
1.324562281140570121e+03 2.172833945280956691e-03
1.325462731365682885e+03 2.228177408549888387e-03
1.326363181590795421e+03 2.285101442593826058e-03
1.327263631815907956e+03 2.343549963391399534e-03
1.328164082041020492e+03 2.409508296281837048e-03
1.329064532266133028e+03 2.490139170866829520e-03
1.329964982491245564e+03 2.584320607542512586e-03
1.330865432716358100e+03 2.681570765709046390e-03
1.331765882941470636e+03 2.768843627763104085e-03
1.332666333166583172e+03 2.840319169745184492e-03
1.333566783391695708e+03 2.900525048365128894e-03
1.334467233616808244e+03 2.959514474555080890e-03
1.335367683841921007e+03 3.027282323057079415e-03
1.336268134067033543e+03 3.106487498195332434e-03
1.337168584292146079e+03 3.192383338295412109e-03
1.338069034517258615e+03 3.284065035315991959e-03
1.338969484742371151e+03 3.384753453999615139e-03
1.339869934967483687e+03 3.494786835398152290e-03
1.340770385192596223e+03 3.612146617319110867e-03
1.341670835417708759e+03 3.736961501372895039e-03
1.342571285642821294e+03 3.874384771174571498e-03
1.343471735867933830e+03 4.028432332171756440e-03
1.344372186093046366e+03 4.191824207564942908e-03
1.345272636318158902e+03 4.347858393972019522e-03
1.346173086543271666e+03 4.484984913188599411e-03
1.347073536768384201e+03 4.604507395221927972e-03
1.347973986993496737e+03 4.713595108607326369e-03
1.348874437218609273e+03 4.823807055946722350e-03
1.349774887443721809e+03 4.951237787384434388e-03
1.350675337668834345e+03 5.099038392056029316e-03
1.351575787893946881e+03 5.251259016818565946e-03
1.352476238119059417e+03 5.395238242123632892e-03
1.353376688344171953e+03 5.539819172581110507e-03
1.354277138569284489e+03 5.711362004813650556e-03
1.355177588794397025e+03 5.932252555864852249e-03
1.356078039019509788e+03 6.206361449762144711e-03
1.356978489244622324e+03 6.515587432589915913e-03
1.357878939469734860e+03 6.841621242197968265e-03
1.358779389694847396e+03 7.184855443263549538e-03
1.359679839919959932e+03 7.535431352906349529e-03
1.360580290145072468e+03 7.869427040691085937e-03
1.361480740370185003e+03 8.187164972954420403e-03
1.362381190595297539e+03 8.493524048450096925e-03
1.363281640820410075e+03 8.775950918813689439e-03
1.364182091045522611e+03 9.031020240603699137e-03
1.365082541270635147e+03 9.276605924088686048e-03
1.365982991495747910e+03 9.525466295501395717e-03
1.366883441720860446e+03 9.774484719988738718e-03
1.367783891945972982e+03 1.001955962065625289e-02
1.368684342171085518e+03 1.027982388256407434e-02
1.369584792396198054e+03 1.059032340944504255e-02
1.370485242621310590e+03 1.095570576165766016e-02
1.371385692846423126e+03 1.136471075390205025e-02
1.372286143071535662e+03 1.183164250381550653e-02
1.373186593296648198e+03 1.235867627747237046e-02
1.374087043521760734e+03 1.291977297517757188e-02
1.374987493746873270e+03 1.350387987508763071e-02
1.375887943971986033e+03 1.412785839492406229e-02
1.376788394197098569e+03 1.480337118788980708e-02
1.377688844422211105e+03 1.550927385979046676e-02
1.378589294647323641e+03 1.619572294404359250e-02
1.379489744872436177e+03 1.682928522172378108e-02
1.380390195097548713e+03 1.743590428899096517e-02
1.381290645322661248e+03 1.808562031970771186e-02
1.382191095547773784e+03 1.883273649621351742e-02
1.383091545772886320e+03 1.970014464620172337e-02
1.383991995997998856e+03 2.073284436374540560e-02
1.384892446223111392e+03 2.199492466545771921e-02
1.385792896448224155e+03 2.350211498374515581e-02
1.386693346673336691e+03 2.521597864742830888e-02
1.387593796898449227e+03 2.706972994485781769e-02
1.388494247123561763e+03 2.902874435308410231e-02
1.389394697348674299e+03 3.111080948000254781e-02
1.390295147573786835e+03 3.334309082605672880e-02
1.391195597798899371e+03 3.570993028966062272e-02
1.392096048024011907e+03 3.808826726764035636e-02
1.392996498249124443e+03 4.032761670666828308e-02
1.393896948474236979e+03 4.238783873906520894e-02
1.394797398699349515e+03 4.429117398683578288e-02
1.395697848924462278e+03 4.605516021414291644e-02
1.396598299149574814e+03 4.766901641137889778e-02
1.397498749374687350e+03 4.904952837625083800e-02
1.398399199599799886e+03 5.002173283969246764e-02
1.399299649824912422e+03 5.036227033929616820e-02
1.400200100050024957e+03 4.999065351852099298e-02
1.401100550275137493e+03 4.892867242497374314e-02
1.402001000500250029e+03 4.717248086850430594e-02
1.402901450725362565e+03 4.482429974584594551e-02
1.403801900950475101e+03 4.210234924843652554e-02
1.404702351175587637e+03 3.918288080896473180e-02
1.405602801400700173e+03 3.614158782906581879e-02
1.406503251625812936e+03 3.296443281209099352e-02
1.407403701850925472e+03 2.964548336206830961e-02
1.408304152076038008e+03 2.632247666125362914e-02
1.409204602301150544e+03 2.323781800794721270e-02
1.410105052526263080e+03 2.055033924978614049e-02
1.411005502751375616e+03 1.828414059345125769e-02
1.411905952976488152e+03 1.640061867244902924e-02
1.412806403201600688e+03 1.484370081016705457e-02
1.413706853426713224e+03 1.354044585894699157e-02
1.414607303651825760e+03 1.242279749036504129e-02
1.415507753876938295e+03 1.146001402912936486e-02
1.416408204102051059e+03 1.062573396768596266e-02
1.417308654327163595e+03 9.864389757013754950e-03
1.418209104552276131e+03 9.139229402485142886e-03
1.419109554777388666e+03 8.459022269445809483e-03
1.420010005002501202e+03 7.847553357090161427e-03
1.420910455227613738e+03 7.316290135894494909e-03
1.421810905452726274e+03 6.859825872559625198e-03
1.422711355677838810e+03 6.463953984833309234e-03
1.423611805902951346e+03 6.102813008504826518e-03
1.424512256128063882e+03 5.748112036152169466e-03
1.425412706353176418e+03 5.392667927765606821e-03
1.426313156578289181e+03 5.054566803612237438e-03
1.427213606803401717e+03 4.754157878562044470e-03
1.428114057028514253e+03 4.498052970677910226e-03
1.429014507253626789e+03 4.282098383334272985e-03
1.429914957478739325e+03 4.092291650759614235e-03
1.430815407703851861e+03 3.907267832481441279e-03
1.431715857928964397e+03 3.713795388566404083e-03
1.432616308154076933e+03 3.519113194859726373e-03
1.433516758379189469e+03 3.340484304969423314e-03
1.434417208604302004e+03 3.191002177805299204e-03
1.435317658829414540e+03 3.072981396216741511e-03
1.436218109054527304e+03 2.974908787448604219e-03
1.437118559279639840e+03 2.879899711376615601e-03
1.438019009504752376e+03 2.781373916717962136e-03
1.438919459729864911e+03 2.685005663262564953e-03
1.439819909954977447e+03 2.599581562679960899e-03
1.440720360180089983e+03 2.527262689561730370e-03
1.441620810405202519e+03 2.464319805366214661e-03
1.442521260630315055e+03 2.406498682078531647e-03
1.443421710855427591e+03 2.353845790556190632e-03
1.444322161080540127e+03 2.310021212097081427e-03
1.445222611305652663e+03 2.275239621972425467e-03
1.446123061530765426e+03 2.242104939479832009e-03
1.447023511755877962e+03 2.199159084572629291e-03
1.447923961980990498e+03 2.142620549186425531e-03
1.448824412206103034e+03 2.079564005951370798e-03
1.449724862431215570e+03 2.020335043656206961e-03
1.450625312656328106e+03 1.968070179275008182e-03
1.451525762881440642e+03 1.916446051250741533e-03
1.452426213106553178e+03 1.858194950498787395e-03
1.453326663331665713e+03 1.794139540872853383e-03
1.454227113556778249e+03 1.732884474518803664e-03
1.455127563781890785e+03 1.682935381284898389e-03
1.456028014007003321e+03 1.645578162609319427e-03
1.456928464232116085e+03 1.612083525064488898e-03
1.457828914457228620e+03 1.571953081045235692e-03
1.458729364682341156e+03 1.525467099516944784e-03
1.459629814907453692e+03 1.479901627875458920e-03
1.460530265132566228e+03 1.439917820115116419e-03
1.461430715357678764e+03 1.405119169932444231e-03
1.462331165582791300e+03 1.371806583346120477e-03
1.463231615807903836e+03 1.336830276817263779e-03
1.464132066033016372e+03 1.301809045506028759e-03
1.465032516258128908e+03 1.270302490462785466e-03
1.465932966483241444e+03 1.241812696246148966e-03
1.466833416708354207e+03 1.213257647975556379e-03
1.467733866933466743e+03 1.183370428483011003e-03
1.468634317158579279e+03 1.153499424515262240e-03
1.469534767383691815e+03 1.125722198069293613e-03
1.470435217608804351e+03 1.101002021733190565e-03
1.471335667833916887e+03 1.077883054112416771e-03
1.472236118059029423e+03 1.053330200070953619e-03
1.473136568284141958e+03 1.026286367615784553e-03
1.474037018509254494e+03 9.993043199251229729e-04
1.474937468734367030e+03 9.761627712509385844e-04
1.475837918959479566e+03 9.583279247647603482e-04
1.476738369184592329e+03 9.446448709427097881e-04
1.477638819409704865e+03 9.314944209745021613e-04
1.478539269634817401e+03 9.160431440297810059e-04
1.479439719859929937e+03 8.995272833556380073e-04
1.480340170085042473e+03 8.840496948419811858e-04
1.481240620310155009e+03 8.677845525602816265e-04
1.482141070535267545e+03 8.490632717992975314e-04
1.483041520760380081e+03 8.308859310640905830e-04
1.483941970985492617e+03 8.164679350375422676e-04
1.484842421210605153e+03 8.054687456448034362e-04
1.485742871435717689e+03 7.960051824189621171e-04
1.486643321660830452e+03 7.865200929965187682e-04
1.487543771885942988e+03 7.767140477677476201e-04
1.488444222111055524e+03 7.681853020357580627e-04
1.489344672336168060e+03 7.626337964029524571e-04
1.490245122561280596e+03 7.581987024899045384e-04
1.491145572786393132e+03 7.524513134079542209e-04
1.492046023011505667e+03 7.458991296810620671e-04
1.492946473236618203e+03 7.387653537151596525e-04
1.493846923461730739e+03 7.299885530024270448e-04
1.494747373686843275e+03 7.189117515455999792e-04
1.495647823911955811e+03 7.069014936734091320e-04
1.496548274137068574e+03 6.965544517378818553e-04
1.497448724362181110e+03 6.876258755120222320e-04
1.498349174587293646e+03 6.776872619411517711e-04
1.499249624812406182e+03 6.669769502444922562e-04
1.500150075037518718e+03 6.565845411273117833e-04
1.501050525262631254e+03 6.454783815680053844e-04
1.501950975487743790e+03 6.333603200105055288e-04
1.502851425712856326e+03 6.227167427827693660e-04
1.503751875937968862e+03 6.155541367855557914e-04
1.504652326163081398e+03 6.113956305897407266e-04
1.505552776388193934e+03 6.088019304082328397e-04
1.506453226613306470e+03 6.074296887147944378e-04
1.507353676838419233e+03 6.088948972403138539e-04
1.508254127063531769e+03 6.149669781691585128e-04
1.509154577288644305e+03 6.244734641600521458e-04
1.510055027513756841e+03 6.323493203103045792e-04
1.510955477738869376e+03 6.336416032308089460e-04
1.511855927963981912e+03 6.269290357273230377e-04
1.512756378189094448e+03 6.134172143156897596e-04
1.513656828414206984e+03 5.965201597496429991e-04
1.514557278639319520e+03 5.805814287758936324e-04
1.515457728864432056e+03 5.689694039202651890e-04
1.516358179089544592e+03 5.630292598491568870e-04
1.517258629314657355e+03 5.614662621340401087e-04
1.518159079539769891e+03 5.614273554341350086e-04
1.519059529764882427e+03 5.606225615649799423e-04
1.519959979989994963e+03 5.582268453807745978e-04
1.520860430215107499e+03 5.531493733125479335e-04
1.521760880440220035e+03 5.435746580020317780e-04
1.522661330665332571e+03 5.296139373682729129e-04
1.523561780890445107e+03 5.138964384857025143e-04
1.524462231115557643e+03 4.992174472702341293e-04
1.525362681340670179e+03 4.862630738794492327e-04
1.526263131565782714e+03 4.742858733778814806e-04
1.527163581790895478e+03 4.629790112205207421e-04
1.528064032016008014e+03 4.528351870035061152e-04
1.528964482241120550e+03 4.449992079100986556e-04
1.529864932466233086e+03 4.399471538684437510e-04
1.530765382691345621e+03 4.362661201601716215e-04
1.531665832916458157e+03 4.325735252667467176e-04
1.532566283141570693e+03 4.293740251763311796e-04
1.533466733366683229e+03 4.282666012764643369e-04
1.534367183591795765e+03 4.300879628675622159e-04
1.535267633816908301e+03 4.340897194325367891e-04
1.536168084042020837e+03 4.386067867353895307e-04
1.537068534267133600e+03 4.422465269437195418e-04
1.537968984492246136e+03 4.444307292836043705e-04
1.538869434717358672e+03 4.446028181423488952e-04
1.539769884942471208e+03 4.427634582828767515e-04
1.540670335167583744e+03 4.395867983588089148e-04
1.541570785392696280e+03 4.351339630365610154e-04
1.542471235617808816e+03 4.295818974221277727e-04
1.543371685842921352e+03 4.233024576841990460e-04
1.544272136068033888e+03 4.160884205856391830e-04
1.545172586293146423e+03 4.080493281798216521e-04
1.546073036518258959e+03 4.002868541644855841e-04
1.546973486743371723e+03 3.942668266558883774e-04
1.547873936968484259e+03 3.905761440556198183e-04
1.548774387193596795e+03 3.884887030287876219e-04
1.549674837418709330e+03 3.870548277682180223e-04
1.550575287643821866e+03 3.853093838691562089e-04
1.551475737868934402e+03 3.825260363559748202e-04
1.552376188094046938e+03 3.783064872311181557e-04
1.553276638319159474e+03 3.732860063163788607e-04
1.554177088544272010e+03 3.697828077441023763e-04
1.555077538769384546e+03 3.692418039020874468e-04
1.555977988994497082e+03 3.708895095814488752e-04
1.556878439219609618e+03 3.737105212087802079e-04
1.557778889444722381e+03 3.776910826207900782e-04
1.558679339669834917e+03 3.830247594020624305e-04
1.559579789894947453e+03 3.892498168848418740e-04
1.560480240120059989e+03 3.952672836128776849e-04
1.561380690345172525e+03 4.008355092132338555e-04
1.562281140570285061e+03 4.071884718228784613e-04
1.563181590795397597e+03 4.147460720318127143e-04
1.564082041020510133e+03 4.219121440519580605e-04
1.564982491245622668e+03 4.271374934302314750e-04
1.565882941470735204e+03 4.306408730613988213e-04
1.566783391695847740e+03 4.322579450075764423e-04
1.567683841920960504e+03 4.297124225009047675e-04
1.568584292146073039e+03 4.197364686167149119e-04
1.569484742371185575e+03 4.007381129356647645e-04
1.570385192596298111e+03 3.736546035364375260e-04
1.571285642821410647e+03 3.414771978280166332e-04
1.572186093046523183e+03 3.079041720897293601e-04
1.573086543271635719e+03 2.750130590202636699e-04
1.573986993496748255e+03 2.433131207564751518e-04
1.574887443721860791e+03 2.135377200419848024e-04
1.575787893946973327e+03 1.867618324682696616e-04
1.576688344172085863e+03 1.636282648382749805e-04
1.577588794397198626e+03 1.442668698347450754e-04
1.578489244622311162e+03 1.285631342453713252e-04
1.579389694847423698e+03 1.161767054810118729e-04
1.580290145072536234e+03 1.064951457892282944e-04
1.581190595297648770e+03 9.885281861148047667e-05
1.582091045522761306e+03 9.270532472999768044e-05
1.582991495747873842e+03 8.765711475973391972e-05
1.583891945972986377e+03 8.343060173695421560e-05
1.584792396198098913e+03 7.983073705049009824e-05
1.585692846423211449e+03 7.671838537255318410e-05
1.586593296648323985e+03 7.399235133318400040e-05
1.587493746873436749e+03 7.157755951152942940e-05
1.588394197098549284e+03 6.941725772503814541e-05
1.589294647323661820e+03 6.746780069167979794e-05
1.590195097548774356e+03 6.569509618980349142e-05
1.591095547773886892e+03 6.407213745523524244e-05
1.591995997998999428e+03 6.257725784916876835e-05
1.592896448224111964e+03 6.119287470007476082e-05
1.593796898449224500e+03 5.990457048422484992e-05
1.594697348674337036e+03 5.870041066744345506e-05
1.595597798899449572e+03 5.757043027022016858e-05
1.596498249124562108e+03 5.650624253366151362e-05
1.597398699349674871e+03 5.550073717946415357e-05
1.598299149574787407e+03 5.454784525957404918e-05
1.599199599799899943e+03 5.364235408856308233e-05
1.600100050025012479e+03 5.277976026007013280e-05
1.601000500250125015e+03 5.195615192021513869e-05
1.601900950475237551e+03 5.116811373101354119e-05
1.602801400700350086e+03 5.041264958698929893e-05
1.603701850925462622e+03 4.968711933733970003e-05
1.604602301150575158e+03 4.898918664265994685e-05
1.605502751375687694e+03 4.831677574797734625e-05
1.606403201600800230e+03 4.766803544438419490e-05
1.607303651825912766e+03 4.704130886345428853e-05
1.608204102051025529e+03 4.643510803289840108e-05
1.609104552276138065e+03 4.584809234090192535e-05
1.610005002501250601e+03 4.527905022652842611e-05
1.610905452726363137e+03 4.472688354635063747e-05
1.611805902951475673e+03 4.419059417192856598e-05
1.612706353176588209e+03 4.366927245539834878e-05
1.613606803401700745e+03 4.316208726626183465e-05
1.614507253626813281e+03 4.266827735513724850e-05
1.615407703851925817e+03 4.218714384264828353e-05
1.616308154077038353e+03 4.171804366593519605e-05
1.617208604302150889e+03 4.126038384314903256e-05
1.618109054527263652e+03 4.081361643908825495e-05
1.619009504752376188e+03 4.037723413379425803e-05
1.619909954977488724e+03 3.995076631134098400e-05
1.620810405202601260e+03 3.953377559876276821e-05
1.621710855427713796e+03 3.912585479565633840e-05
1.622611305652826331e+03 3.872662414378692108e-05
1.623511755877938867e+03 3.833572889341404165e-05
1.624412206103051403e+03 3.795283712923198087e-05
1.625312656328163939e+03 3.757763782402867629e-05
1.626213106553276475e+03 3.720983909257657177e-05
1.627113556778389011e+03 3.684916662199157347e-05
1.628014007003501774e+03 3.649536225797187227e-05
1.628914457228614310e+03 3.614818272902970217e-05
1.629814907453726846e+03 3.580739849314000685e-05
1.630715357678839382e+03 3.547279269320744929e-05
1.631615807903951918e+03 3.514416020946222049e-05
1.632516258129064454e+03 3.482130679834957401e-05
1.633416708354176990e+03 3.450404830875340088e-05
1.634317158579289526e+03 3.419220996748641845e-05
1.635217608804402062e+03 3.388562572692565536e-05
1.636118059029514598e+03 3.358413766850314592e-05
1.637018509254627133e+03 3.328759545648383203e-05
1.637918959479739897e+03 3.299585583708288905e-05
1.638819409704852433e+03 3.270878217852845503e-05
1.639719859929964969e+03 3.242624404816336914e-05
1.640620310155077505e+03 3.214811682309247088e-05
1.641520760380190040e+03 3.187428133126030344e-05
1.642421210605302576e+03 3.160462352017425115e-05
1.643321660830415112e+03 3.133903415077121982e-05
1.644222111055527648e+03 3.107740851418776956e-05
1.645122561280640184e+03 3.081964616941890666e-05
1.646023011505752720e+03 3.056565070005103432e-05
1.646923461730865256e+03 3.031532948843557941e-05
1.647823911955978019e+03 3.006859350582754360e-05
1.648724362181090555e+03 2.982535711715705019e-05
1.649624812406203091e+03 2.958553789922498407e-05
1.650525262631315627e+03 2.934905647123265464e-05
1.651425712856428163e+03 2.911583633665295532e-05
1.652326163081540699e+03 2.888580373554274584e-05
1.653226613306653235e+03 2.865888750647534002e-05
1.654127063531765771e+03 2.843501895735207064e-05
1.655027513756878307e+03 2.821413174440972821e-05
1.655927963981990843e+03 2.799616175880504819e-05
1.656828414207103378e+03 2.778104702021169255e-05
1.657728864432216142e+03 2.756872757690917984e-05
1.658629314657328678e+03 2.735914541189137005e-05
1.659529764882441214e+03 2.715224435456108437e-05
1.660430215107553749e+03 2.694796999761030128e-05
1.661330665332666285e+03 2.674626961872341585e-05
1.662231115557778821e+03 2.654709210676350561e-05
1.663131565782891357e+03 2.635038789213762662e-05
1.664032016008003893e+03 2.615610888105127820e-05
1.664932466233116429e+03 2.596420839339423010e-05
1.665832916458228965e+03 2.577464110401364795e-05
1.666733366683341501e+03 2.558736298715041918e-05
1.667633816908454037e+03 2.540233126383648261e-05
1.668534267133566800e+03 2.521950435205714785e-05
1.669434717358679336e+03 2.503884181950607091e-05
1.670335167583791872e+03 2.486030433876727048e-05
1.671235617808904408e+03 2.468385364477324376e-05
1.672136068034016944e+03 2.450945249439872675e-05
1.673036518259129480e+03 2.433706462806023199e-05
1.673936968484242016e+03 2.416665473319856084e-05
1.674837418709354552e+03 2.399818840953296312e-05
1.675737868934467087e+03 2.383163213598143762e-05
1.676638319159579623e+03 2.366695323914980205e-05
1.677538769384692159e+03 2.350411986329839503e-05
1.678439219609804923e+03 2.334310094170194053e-05
1.679339669834917459e+03 2.318386616932312323e-05
1.680240120060029994e+03 2.302638597672457003e-05
1.681140570285142530e+03 2.287063150515438221e-05
1.682041020510255066e+03 2.271657458273516512e-05
1.682941470735367602e+03 2.256418770170076312e-05
1.683841920960480138e+03 2.241344399662106184e-05
1.684742371185592674e+03 2.226431722356455076e-05
1.685642821410705210e+03 2.211678174014584551e-05
1.686543271635817746e+03 2.197081248641548953e-05
1.687443721860930282e+03 2.182638496654362218e-05
1.688344172086043045e+03 2.168347523126304909e-05
1.689244622311155581e+03 2.154205986102559559e-05
1.690145072536268117e+03 2.140211594984076551e-05
1.691045522761380653e+03 2.126362108976207868e-05
1.691945972986493189e+03 2.112655335598630441e-05
1.692846423211605725e+03 2.099089129253929934e-05
1.693746873436718261e+03 2.085661389851593681e-05
1.694647323661830796e+03 2.072370061485038402e-05
1.695547773886943332e+03 2.059213131159094983e-05
1.696448224112055868e+03 2.046188627565429229e-05
1.697348674337168404e+03 2.033294619903732212e-05
1.698249124562281168e+03 2.020529216746561610e-05
1.699149574787393703e+03 2.007890564945955666e-05
1.700050025012506239e+03 1.995376848579552084e-05
1.700950475237618775e+03 1.982986287934822731e-05
1.701850925462731311e+03 1.970717138529462753e-05
1.702751375687843847e+03 1.958567690166484326e-05
1.703651825912956383e+03 1.946536266022314880e-05
1.704552276138068919e+03 1.934621221766696656e-05
1.705452726363181455e+03 1.922820944712663402e-05
1.706353176588293991e+03 1.911133852995806434e-05
1.707253626813406527e+03 1.899558394781022193e-05
1.708154077038519290e+03 1.888093047496028733e-05
1.709054527263631826e+03 1.876736317090228163e-05
1.709954977488744362e+03 1.865486737318181141e-05
1.710855427713856898e+03 1.854342869046230453e-05
1.711755877938969434e+03 1.843303299581830487e-05
1.712656328164081970e+03 1.832366642024365935e-05
1.713556778389194506e+03 1.821531534636528665e-05
1.714457228614307041e+03 1.810796640235768590e-05
1.715357678839419577e+03 1.800160645604693692e-05
1.716258129064532113e+03 1.789622260919855387e-05
1.717158579289644649e+03 1.779180219198135931e-05
1.718059029514757185e+03 1.768833275760112387e-05
1.718959479739869948e+03 1.758580207709697178e-05
1.719859929964982484e+03 1.748419813429533121e-05
1.720760380190095020e+03 1.738350912091305380e-05
1.721660830415207556e+03 1.728372343180854142e-05
1.722561280640320092e+03 1.718482966036983471e-05
1.723461730865432628e+03 1.708681659403997856e-05
1.724362181090545164e+03 1.698967320997049970e-05
1.725262631315657700e+03 1.689338867080147495e-05
1.726163081540770236e+03 1.679795232056107863e-05
1.727063531765882772e+03 1.670335368068244739e-05
1.727963981990995308e+03 1.660958244613183160e-05
1.728864432216108071e+03 1.651662848164638678e-05
1.729764882441220607e+03 1.642448181807503181e-05
1.730665332666333143e+03 1.633313264882208635e-05
1.731565782891445679e+03 1.624257132638579269e-05
1.732466233116558215e+03 1.615278835899377555e-05
1.733366683341670750e+03 1.606377440732756232e-05
1.734267133566783286e+03 1.597552028133603148e-05
1.735167583791895822e+03 1.588801693713303256e-05
1.736068034017008358e+03 1.580125547397759838e-05
1.736968484242120894e+03 1.571522713133407335e-05
1.737868934467233430e+03 1.562992328600787829e-05
1.738769384692346193e+03 1.554533544935709491e-05
1.739669834917458729e+03 1.546145526457484530e-05
1.740570285142571265e+03 1.537827450404186000e-05
1.741470735367683801e+03 1.529578506674658499e-05
1.742371185592796337e+03 1.521397897577021046e-05
1.743271635817908873e+03 1.513284837583562343e-05
1.744172086043021409e+03 1.505238553091676398e-05
1.745072536268133945e+03 1.497258282190810726e-05
1.745972986493246481e+03 1.489343274435162347e-05
1.746873436718359017e+03 1.481492790621907452e-05
1.747773886943471553e+03 1.473706102574933730e-05
1.748674337168584316e+03 1.465982492933666079e-05
1.749574787393696852e+03 1.458321254947225907e-05
1.750475237618809388e+03 1.450721692273232178e-05
1.751375687843921924e+03 1.443183118781690419e-05
1.752276138069034459e+03 1.435704858363287642e-05
1.753176588294146995e+03 1.428286244742404578e-05
1.754077038519259531e+03 1.420926621294315286e-05
1.754977488744372067e+03 1.413625340866858941e-05
1.755877938969484603e+03 1.406381765606079793e-05
1.756778389194597139e+03 1.399195266785939832e-05
1.757678839419709675e+03 1.392065224641985408e-05
1.758579289644822438e+03 1.384991028208742309e-05
1.759479739869934974e+03 1.377972075160796125e-05
1.760380190095047510e+03 1.371007771657530931e-05
1.761280640320160046e+03 1.364097532191290678e-05
1.762181090545272582e+03 1.357240779438912774e-05
1.763081540770385118e+03 1.350436944116656250e-05
1.763981990995497654e+03 1.343685464838223449e-05
1.764882441220610190e+03 1.336985787975945554e-05
1.765782891445722726e+03 1.330337367525085546e-05
1.766683341670835262e+03 1.323739664970929407e-05
1.767583791895947797e+03 1.317192149158900233e-05
1.768484242121060333e+03 1.310694296167438573e-05
1.769384692346173097e+03 1.304245589183503667e-05
1.770285142571285633e+03 1.297845518380922740e-05
1.771185592796398169e+03 1.291493580801142657e-05
1.772086043021510704e+03 1.285189280236600767e-05
1.772986493246623240e+03 1.278932127116549782e-05
1.773886943471735776e+03 1.272721638395199104e-05
1.774787393696848312e+03 1.266557337442295287e-05
1.775687843921960848e+03 1.260438753935867163e-05
1.776588294147073384e+03 1.254365423757228826e-05
1.777488744372185920e+03 1.248336888888213356e-05
1.778389194597298456e+03 1.242352697310366757e-05
1.779289644822411219e+03 1.236412402906281485e-05
1.780190095047523755e+03 1.230515565362934242e-05
1.781090545272636291e+03 1.224661750076968882e-05
1.781990995497748827e+03 1.218850528061812478e-05
1.782891445722861363e+03 1.213081475856788004e-05
1.783791895947973899e+03 1.207354175437898049e-05
1.784692346173086435e+03 1.201668214130464724e-05
1.785592796398198971e+03 1.196023184523456340e-05
1.786493246623311506e+03 1.190418684385525776e-05
1.787393696848424042e+03 1.184854316582663801e-05
1.788294147073536578e+03 1.179329688997493605e-05
1.789194597298649342e+03 1.173844414450064747e-05
1.790095047523761878e+03 1.168398110620296956e-05
1.790995497748874413e+03 1.162990399971768850e-05
1.791895947973986949e+03 1.157620909677127705e-05
1.792796398199099485e+03 1.152289271544772317e-05
1.793696848424212021e+03 1.146995121947028334e-05
1.794597298649324557e+03 1.141738101749671728e-05
1.795497748874437093e+03 1.136517856242759578e-05
1.796398199099549629e+03 1.131334035072750199e-05
1.797298649324662165e+03 1.126186292175941266e-05
1.798199099549774701e+03 1.121074285713103770e-05
1.799099549774887464e+03 1.115997678005386529e-05
1.800000000000000000e+03 1.110956135471293885e-05
