0.000000000000000000e+00 1.568904453425138019e-03
9.004502251125562351e-01 2.098758808828381055e-03
1.800900450225112470e+00 2.811338147451244822e-03
2.701350675337668594e+00 3.637698049649841503e-03
3.601800900450224940e+00 4.299856612891927651e-03
4.502251125562780842e+00 4.426026727813697770e-03
5.402701350675337189e+00 3.940614651654306307e-03
6.303151575787893535e+00 3.145103727865711934e-03
7.203601800900449881e+00 2.375987307328999900e-03
8.104052026013006227e+00 1.775713029770813580e-03
9.004502251125561685e+00 1.344298041804376214e-03
9.904952476238118919e+00 1.039419641398056822e-03
1.080540270135067438e+01 8.207122762759938616e-04
1.170585292646323161e+01 6.600370250686617016e-04
1.260630315157578707e+01 5.398062704188015971e-04
1.350675337668834430e+01 4.484883867225193297e-04
1.440720360180089976e+01 3.780248013388784164e-04
1.530765382691345522e+01 3.227428642601582799e-04
1.620810405202601245e+01 2.786773774782482730e-04
1.710855427713856969e+01 2.430667697286463340e-04
1.800900450225112337e+01 2.139605799298857343e-04
1.890945472736368060e+01 1.899529605167086643e-04
1.980990495247623784e+01 1.699822516017646774e-04
2.071035517758879507e+01 1.531284556736416569e-04
2.161080540270134875e+01 1.385268835168563097e-04
2.251125562781390599e+01 1.255949804942261790e-04
2.341170585292646322e+01 1.141679081588574212e-04
2.431215607803901690e+01 1.041851954805895260e-04
2.521260630315157414e+01 9.549758331865024273e-05
2.611305652826413137e+01 8.791557859008376340e-05
2.701350675337668861e+01 8.126764347302907162e-05
2.791395697848924229e+01 7.541628927375886135e-05
2.881440720360179952e+01 7.025467926260062983e-05
2.971485742871435676e+01 6.569649596054492001e-05
3.061530765382691044e+01 6.165627835937752038e-05
3.151575787893946767e+01 5.802446382750819947e-05
3.241620810405202491e+01 5.469056546577586765e-05
3.331665832916458214e+01 5.162936289131705634e-05
3.421710855427713938e+01 4.889011663960624564e-05
3.511755877938969661e+01 4.647739153535188566e-05
3.601800900450224674e+01 4.427093678446633184e-05
3.691845922961480397e+01 4.206604579222115032e-05
3.781890945472736121e+01 3.979768893579497380e-05
3.871935967983991844e+01 3.760457888602155760e-05
3.961980990495247568e+01 3.561099709011765149e-05
4.052026013006503291e+01 3.383925145960245466e-05
4.142071035517759015e+01 3.225212697817430175e-05
4.232116058029014027e+01 3.079153139036032742e-05
4.322161080540269751e+01 2.942156194784425362e-05
4.412206103051525474e+01 2.814916650151668006e-05
4.502251125562781198e+01 2.699070844069093484e-05
4.592296148074036921e+01 2.595077996963021059e-05
4.682341170585292645e+01 2.502863977277172179e-05
4.772386193096548368e+01 2.422456457379300689e-05
4.862431215607803381e+01 2.353631169185117200e-05
4.952476238119059104e+01 2.294594044670560253e-05
5.042521260630314828e+01 2.242232438925657886e-05
5.132566283141570551e+01 2.197497826951385459e-05
5.222611305652826275e+01 2.167311751331390317e-05
5.312656328164081998e+01 2.156025401081218759e-05
5.402701350675337721e+01 2.154750103328072344e-05
5.492746373186592734e+01 2.137528817503602359e-05
5.582791395697848458e+01 2.080886700264149901e-05
5.672836418209104181e+01 1.989749624805733526e-05
5.762881440720359905e+01 1.886670892348302604e-05
5.852926463231615628e+01 1.787214123065523357e-05
5.942971485742871351e+01 1.699162314248900860e-05
6.033016508254127075e+01 1.626840321369424564e-05
6.123061530765382088e+01 1.570208349532472525e-05
6.213106553276637811e+01 1.525182013217693163e-05
6.303151575787893535e+01 1.484005754520532593e-05
6.393196598299149258e+01 1.439255753360158743e-05
6.483241620810404982e+01 1.390754841906187134e-05
6.573286643321659994e+01 1.343842851238115639e-05
6.663331665832916428e+01 1.302785916987048288e-05
6.753376688344171441e+01 1.269006029011778629e-05
6.843421710855427875e+01 1.242696296720053993e-05
6.933466733366682888e+01 1.224177941656527180e-05
7.023511755877939322e+01 1.214192462561693944e-05
7.113556778389194335e+01 1.213000710136058038e-05
7.203601800900449348e+01 1.217906255472851049e-05
7.293646823411705782e+01 1.222186015960456112e-05
7.383691845922960795e+01 1.221825383705995354e-05
7.473736868434217229e+01 1.218657056389261727e-05
7.563781890945472242e+01 1.208244844866327690e-05
7.653826913456728676e+01 1.180674611223210011e-05
7.743871935967983688e+01 1.139033797457098568e-05
7.833916958479238701e+01 1.098488160080628539e-05
7.923961980990495135e+01 1.070262073961669905e-05
8.014007003501750148e+01 1.057987123744343771e-05
8.104052026013006582e+01 1.061128852040679712e-05
8.194097048524261595e+01 1.075215214897033956e-05
8.284142071035518029e+01 1.089768321883604161e-05
8.374187093546773042e+01 1.090523385068937553e-05
8.464232116058028055e+01 1.070726976790426112e-05
8.554277138569284489e+01 1.038832736523562358e-05
8.644322161080539502e+01 1.010027029957856716e-05
8.734367183591795936e+01 9.959734260416192063e-06
8.824412206103050949e+01 1.002771440303895969e-05
8.914457228614307382e+01 1.031857007021049599e-05
9.004502251125562395e+01 1.077048751988860848e-05
9.094547273636817408e+01 1.118144643191260323e-05
9.184592296148073842e+01 1.126967047401893215e-05
9.274637318659328855e+01 1.096196007613955276e-05
9.364682341170585289e+01 1.049988567230125463e-05
9.454727363681840302e+01 1.011142303081322466e-05
9.544772386193096736e+01 9.799533355952043775e-06
9.634817408704351749e+01 9.443288173131801768e-06
9.724862431215606762e+01 8.982375397978903457e-06
9.814907453726863196e+01 8.489967028402286718e-06
9.904952476238118209e+01 8.071593713300029551e-06
9.994997498749374643e+01 7.773516261261889668e-06
1.008504252126062966e+02 7.595505473574017507e-06
1.017508754377188609e+02 7.524427827728854644e-06
1.026513256628314110e+02 7.544276552010202923e-06
1.035517758879439612e+02 7.633417305441654872e-06
1.044522261130565255e+02 7.765470272396902030e-06
1.053526763381690756e+02 7.930216605799809902e-06
1.062531265632816400e+02 8.167381836213331712e-06
1.071535767883941901e+02 8.531167742751917746e-06
1.080540270135067544e+02 9.024747404252617176e-06
1.089544772386193046e+02 9.587523803496548664e-06
1.098549274637318547e+02 1.010690247636099596e-05
1.107553776888444190e+02 1.045169947900602636e-05
1.116558279139569692e+02 1.053137146120995258e-05
1.125562781390695335e+02 1.034752188062249234e-05
1.134567283641820836e+02 9.989786754685129870e-06
1.143571785892946480e+02 9.588383203850401300e-06
1.152576288144071981e+02 9.237413934617937428e-06
1.161580790395197482e+02 8.918818613129409400e-06
1.170585292646323126e+02 8.545184692799965759e-06
1.179589794897448627e+02 8.111030661058399619e-06
1.188594297148574270e+02 7.703221237893782450e-06
1.197598799399699772e+02 7.392301909287932310e-06
1.206603301650825415e+02 7.205799174614502364e-06
1.215607803901950916e+02 7.155769870657936578e-06
1.224612306153076418e+02 7.263928217940420235e-06
1.233616808404202061e+02 7.546847255990927221e-06
1.242621310655327562e+02 7.976249672959054483e-06
1.251625812906453206e+02 8.451549473861754902e-06
1.260630315157578707e+02 8.851434865797826496e-06
1.269634817408704350e+02 9.117850940065780471e-06
1.278639319659829852e+02 9.234279793904641892e-06
1.287643821910955353e+02 9.225215803224532380e-06
1.296648324162080996e+02 9.158034893829371964e-06
1.305652826413206640e+02 9.060942879496292849e-06
1.314657328664331999e+02 8.932194779573113098e-06
1.323661830915457642e+02 8.831709268905030803e-06
1.332666333166583286e+02 8.899073559121420868e-06
1.341670835417708929e+02 9.238312804397754381e-06
1.350675337668834288e+02 9.786787404320833729e-06
1.359679839919959932e+02 1.026904661614253528e-05
1.368684342171085575e+02 1.038560354391937038e-05
1.377688844422210934e+02 1.011478036615761870e-05
1.386693346673336578e+02 9.669382374071762247e-06
1.395697848924462221e+02 9.245453224551510328e-06
1.404702351175587864e+02 8.974636246540737357e-06
1.413706853426713224e+02 8.937528515340962710e-06
1.422711355677838867e+02 9.116037060050495675e-06
1.431715857928964510e+02 9.434613839105936893e-06
1.440720360180089870e+02 9.810224937220545188e-06
1.449724862431215513e+02 1.009935647447893075e-05
1.458729364682341156e+02 1.010896903477001586e-05
1.467733866933466800e+02 9.756635443994363986e-06
1.476738369184592159e+02 9.179083495034670622e-06
1.485742871435717802e+02 8.597469667638809836e-06
1.494747373686843446e+02 8.133173206200938144e-06
1.503751875937968805e+02 7.789864061273204252e-06
1.512756378189094448e+02 7.544952269125487235e-06
1.521760880440220092e+02 7.405055572395337204e-06
1.530765382691345735e+02 7.389231948663141855e-06
1.539769884942471094e+02 7.495888557813461203e-06
1.548774387193596738e+02 7.691085687042971042e-06
1.557778889444722381e+02 7.917567084441610621e-06
1.566783391695847740e+02 8.097482650279642352e-06
1.575787893946973384e+02 8.208106477895655089e-06
1.584792396198099027e+02 8.310961214136321315e-06
1.593796898449224670e+02 8.471104017033895451e-06
1.602801400700350030e+02 8.714534576369932552e-06
1.611805902951475673e+02 9.029793915023262471e-06
1.620810405202601316e+02 9.371319039720105580e-06
1.629814907453726676e+02 9.679655521410021287e-06
1.638819409704852319e+02 9.926471726280766740e-06
1.647823911955977962e+02 1.012128834279170755e-05
1.656828414207103606e+02 1.023767647737165301e-05
1.665832916458228965e+02 1.019968897451405918e-05
1.674837418709354608e+02 9.997939352883713758e-06
1.683841920960480252e+02 9.741367277579323326e-06
1.692846423211605611e+02 9.527934954084747582e-06
1.701850925462731254e+02 9.345037819202642009e-06
1.710855427713856898e+02 9.147515872857139808e-06
1.719859929964982541e+02 8.961342144723298859e-06
1.728864432216107900e+02 8.852469499806188966e-06
1.737868934467233544e+02 8.845076492793953717e-06
1.746873436718359187e+02 8.920417659687155445e-06
1.755877938969484546e+02 9.035603022581810515e-06
1.764882441220610190e+02 9.142762798491832954e-06
1.773886943471735833e+02 9.205308224409500576e-06
1.782891445722861476e+02 9.281112981373944225e-06
1.791895947973986836e+02 9.493957081573338523e-06
1.800900450225112479e+02 9.854901696722091021e-06
1.809904952476238122e+02 1.022286682547905074e-05
1.818909454727363482e+02 1.044248058192982972e-05
1.827913956978489125e+02 1.047828471823500840e-05
1.836918459229614768e+02 1.041954271264460295e-05
1.845922961480740412e+02 1.036098291341047105e-05
1.854927463731865771e+02 1.030965968927923409e-05
1.863931965982991414e+02 1.022867909799922686e-05
1.872936468234117058e+02 1.011730894108793708e-05
1.881940970485242417e+02 1.000847825545852728e-05
1.890945472736368060e+02 9.904882333057084934e-06
1.899949974987493704e+02 9.776703054518059952e-06
1.908954477238619347e+02 9.648408802143054738e-06
1.917958979489744706e+02 9.604472659190813798e-06
1.926963481740870350e+02 9.673174917932728486e-06
1.935967983991995993e+02 9.802169308589148668e-06
1.944972486243121352e+02 9.946406350611444841e-06
1.953976988494246996e+02 1.014052394936820532e-05
1.962981490745372639e+02 1.041535496899267049e-05
1.971985992996498283e+02 1.070519740118230924e-05
1.980990495247623642e+02 1.087820203181269142e-05
1.989994997498749285e+02 1.084883124911292343e-05
1.998999499749874929e+02 1.064360094223567873e-05
2.008004002001000288e+02 1.037544067935636506e-05
2.017008504252125931e+02 1.011799821767379283e-05
2.026013006503251574e+02 9.852290035283026796e-06
2.035017508754377218e+02 9.572030547211384652e-06
2.044022011005502577e+02 9.307375400007839868e-06
2.053026513256628220e+02 9.071640612404489610e-06
2.062031015507753864e+02 8.900832738510624007e-06
2.071035517758879223e+02 8.869021766337285652e-06
2.080040020010004866e+02 8.987331963440535400e-06
2.089044522261130510e+02 9.137375201500137488e-06
2.098049024512256153e+02 9.196967089753277982e-06
2.107053526763381512e+02 9.179441938199915898e-06
2.116058029014507156e+02 9.159503133148660600e-06
2.125062531265632799e+02 9.180553439984818112e-06
2.134067033516758158e+02 9.245718951995590749e-06
2.143071535767883802e+02 9.359432695901633785e-06
2.152076038019009445e+02 9.507411288962033861e-06
2.161080540270135089e+02 9.646611917607971477e-06
2.170085042521260448e+02 9.768079256184945247e-06
2.179089544772386091e+02 9.856019692223952992e-06
2.188094047023511735e+02 9.865916125625711499e-06
2.197098549274637094e+02 9.784072043613033711e-06
2.206103051525762737e+02 9.643925202470172582e-06
2.215107553776888381e+02 9.507217620648541123e-06
2.224112056028014024e+02 9.453020773543503591e-06
2.233116558279139383e+02 9.526557820437175166e-06
2.242121060530265027e+02 9.685441971340486434e-06
2.251125562781390670e+02 9.841934108524625326e-06
2.260130065032516029e+02 9.960053765387781463e-06
2.269134567283641672e+02 1.007680430987598632e-05
2.278139069534767316e+02 1.023488046782241184e-05
2.287143571785892959e+02 1.042659850344999093e-05
2.296148074037018318e+02 1.058813559021734530e-05
2.305152576288143962e+02 1.065976331865633377e-05
2.314157078539269605e+02 1.064139117023353401e-05
2.323161580790394964e+02 1.058612786817631334e-05
2.332166083041520608e+02 1.052323033558799918e-05
2.341170585292646251e+02 1.045184475981886304e-05
2.350175087543771895e+02 1.033760266317873491e-05
2.359179589794897254e+02 1.015163103138252595e-05
2.368184092046022897e+02 9.961767439157048597e-06
2.377188594297148541e+02 9.859705684802246600e-06
2.386193096548273900e+02 9.842258501115966332e-06
2.395197598799399543e+02 9.835903932677348107e-06
2.404202101050525187e+02 9.819509567541069656e-06
2.413206603301650830e+02 9.841025555002019267e-06
2.422211105552776189e+02 9.915915681413806754e-06
2.431215607803901833e+02 1.001127097537515050e-05
2.440220110055027476e+02 1.013362330367696333e-05
2.449224612306152835e+02 1.033079519668301453e-05
2.458229114557278479e+02 1.062343380423919027e-05
2.467233616808404122e+02 1.101111482660369194e-05
2.476238119059529765e+02 1.142655822064742927e-05
2.485242621310655124e+02 1.167794942443901396e-05
2.494247123561780768e+02 1.164678564433048943e-05
2.503251625812906411e+02 1.142527741632840392e-05
2.512256128064031770e+02 1.118638963174663364e-05
2.521260630315157414e+02 1.104785510499950175e-05
2.530265132566283057e+02 1.103758097250877204e-05
2.539269634817408701e+02 1.111192428966091248e-05
2.548274137068534060e+02 1.116126973783458918e-05
2.557278639319659703e+02 1.108411496737351959e-05
2.566283141570785347e+02 1.089064194411555824e-05
2.575287643821910706e+02 1.071761036205737695e-05
2.584292146073036633e+02 1.070599560469355842e-05
2.593296648324161993e+02 1.086515051028854178e-05
2.602301150575287352e+02 1.109227160898052365e-05
2.611305652826413279e+02 1.128664893156357529e-05
2.620310155077538639e+02 1.141525356754006780e-05
2.629314657328663998e+02 1.148478863579550125e-05
2.638319159579789925e+02 1.150987181776228249e-05
2.647323661830915285e+02 1.149517917212162706e-05
2.656328164082040644e+02 1.143121881857643578e-05
2.665332666333166571e+02 1.134290015260466038e-05
2.674337168584291931e+02 1.130269542810366428e-05
2.683341670835417858e+02 1.138341168164279007e-05
2.692346173086543217e+02 1.159360760277068446e-05
2.701350675337668577e+02 1.185323389603569439e-05
2.710355177588794504e+02 1.199989694972063946e-05
2.719359679839919863e+02 1.189577098569359440e-05
2.728364182091045222e+02 1.156833959459285372e-05
2.737368684342171150e+02 1.116131072558498723e-05
2.746373186593296509e+02 1.081319880565834014e-05
2.755377688844421868e+02 1.054606076306357553e-05
2.764382191095547796e+02 1.030072113289395212e-05
2.773386693346673155e+02 1.006379204357866595e-05
2.782391195597798514e+02 9.869518273622508036e-06
2.791395697848924442e+02 9.738245695316274109e-06
2.800400200100049801e+02 9.675229046088813776e-06
2.809404702351175729e+02 9.655913547183599759e-06
2.818409204602301088e+02 9.638268001094832090e-06
2.827413706853426447e+02 9.624591472360592638e-06
2.836418209104552375e+02 9.647765523214760715e-06
2.845422711355677734e+02 9.705072692300966146e-06
2.854427213606803093e+02 9.768801225329694937e-06
2.863431715857929021e+02 9.828205605906655687e-06
2.872436218109054380e+02 9.886365713093921070e-06
2.881440720360179739e+02 9.963817079500038296e-06
2.890445222611305667e+02 1.005081786156517328e-05
2.899449724862431026e+02 1.009983709678306602e-05
2.908454227113556385e+02 1.010618323509027610e-05
2.917458729364682313e+02 1.012198070609902739e-05
2.926463231615807672e+02 1.014868950918066099e-05
2.935467733866933600e+02 1.013815130686985196e-05
2.944472236118058959e+02 1.009984363808728543e-05
2.953476738369184318e+02 1.006716783240339789e-05
2.962481240620310246e+02 1.002343185472677901e-05
2.971485742871435605e+02 9.951973483445894467e-06
2.980490245122560964e+02 9.893795226842441479e-06
2.989494747373686891e+02 9.882828002140926158e-06
2.998499249624812251e+02 9.917864573788201079e-06
3.007503751875937610e+02 1.002460112650189389e-05
3.016508254127063537e+02 1.019958542176601264e-05
3.025512756378188897e+02 1.035136981241684088e-05
3.034517258629314256e+02 1.036541060567851843e-05
3.043521760880440183e+02 1.018890085099777801e-05
3.052526263131565543e+02 9.884723233098805005e-06
3.061530765382691470e+02 9.576981163396031441e-06
3.070535267633816829e+02 9.324065834344465173e-06
3.079539769884942189e+02 9.112540059396652975e-06
3.088544272136068116e+02 8.928521688444190056e-06
3.097548774387193475e+02 8.767850643261486848e-06
3.106553276638318835e+02 8.655278011139035292e-06
3.115557778889444762e+02 8.629115082967986255e-06
3.124562281140570121e+02 8.684104423262520978e-06
3.133566783391695481e+02 8.785424074249081544e-06
3.142571285642821408e+02 8.900491730362106608e-06
3.151575787893946767e+02 9.015115886217696481e-06
3.160580290145072127e+02 9.139635208958915355e-06
3.169584792396198054e+02 9.271580819895761346e-06
3.178589294647323413e+02 9.416013710778173515e-06
3.187593796898449341e+02 9.613206615302582710e-06
3.196598299149574700e+02 9.859791882837586001e-06
3.205602801400700059e+02 1.007123042470887558e-05
3.214607303651825987e+02 1.016145098869828011e-05
3.223611805902951346e+02 1.010987418099020048e-05
3.232616308154076705e+02 9.956513025452607408e-06
3.241620810405202633e+02 9.779201481638457097e-06
3.250625312656327992e+02 9.657182633807217791e-06
3.259629814907453351e+02 9.618167281758874482e-06
3.268634317158579279e+02 9.651265348160888307e-06
3.277638819409704638e+02 9.735326699504804704e-06
3.286643321660829997e+02 9.824802453026351031e-06
3.295647823911955925e+02 9.845962349441227880e-06
3.304652326163081284e+02 9.766244212115864426e-06
3.313656828414207212e+02 9.638214060719938270e-06
3.322661330665332571e+02 9.528871524781185436e-06
3.331665832916457930e+02 9.478734571658217154e-06
3.340670335167583858e+02 9.511946612987649347e-06
3.349674837418709217e+02 9.634845005193253266e-06
3.358679339669834576e+02 9.805096003467083136e-06
3.367683841920960504e+02 9.928664471757044896e-06
3.376688344172085863e+02 9.922618466315186409e-06
3.385692846423211222e+02 9.789088663900523995e-06
3.394697348674337150e+02 9.615418693005113777e-06
3.403701850925462509e+02 9.494498923136536538e-06
3.412706353176587868e+02 9.463374197145956688e-06
3.421710855427713796e+02 9.491776428380992829e-06
3.430715357678839155e+02 9.517342702696341997e-06
3.439719859929965082e+02 9.517958189461074787e-06
3.448724362181090441e+02 9.523704988528489124e-06
3.457728864432215801e+02 9.557801804746959791e-06
3.466733366683341728e+02 9.605570216179177480e-06
3.475737868934467087e+02 9.656501285389268498e-06
3.484742371185592447e+02 9.734364655236259228e-06
3.493746873436718374e+02 9.847197072282240588e-06
3.502751375687843733e+02 9.952068021680719628e-06
3.511755877938969093e+02 1.000123658418667060e-05
3.520760380190095020e+02 9.994922819733204097e-06
3.529764882441220379e+02 9.966069058414113940e-06
3.538769384692345739e+02 9.949316256400862863e-06
3.547773886943471666e+02 9.943557164930975619e-06
3.556778389194597025e+02 9.897259494171476641e-06
3.565782891445722953e+02 9.784928170556158892e-06
3.574787393696848312e+02 9.669917823790104194e-06
3.583791895947973671e+02 9.638205805942253097e-06
3.592796398199099599e+02 9.717499985593627769e-06
3.601800900450224958e+02 9.870323626784820192e-06
3.610805402701350317e+02 1.001462310291741880e-05
3.619809904952476245e+02 1.009568366928898955e-05
3.628814407203601604e+02 1.013536747524687394e-05
3.637818909454726963e+02 1.015909776632330528e-05
3.646823411705852891e+02 1.018109323316680211e-05
3.655827913956978250e+02 1.024181924078752576e-05
3.664832416208103609e+02 1.038007849318369070e-05
3.673836918459229537e+02 1.057679387592862850e-05
3.682841420710354896e+02 1.075855350736016583e-05
3.691845922961480824e+02 1.086223273085316958e-05
3.700850425212606183e+02 1.086389888463360103e-05
3.709854927463731542e+02 1.077742723887270509e-05
3.718859429714857470e+02 1.065357737820857069e-05
3.727863931965982829e+02 1.052889806326033173e-05
3.736868434217108188e+02 1.042780832747913494e-05
3.745872936468234116e+02 1.040123360211715161e-05
3.754877438719359475e+02 1.048579814118197950e-05
3.763881940970484834e+02 1.063616614751437265e-05
3.772886443221610762e+02 1.077236192650640176e-05
3.781890945472736121e+02 1.088325045659452598e-05
3.790895447723861480e+02 1.097546765883591605e-05
3.799899949974987408e+02 1.101330900091757354e-05
3.808904452226112767e+02 1.100382942490246745e-05
3.817908954477238694e+02 1.102880570350289470e-05
3.826913456728364054e+02 1.112300314509169209e-05
3.835917958979489413e+02 1.123227937482387840e-05
3.844922461230615340e+02 1.130513012393714252e-05
3.853926963481740700e+02 1.132062744176839398e-05
3.862931465732866059e+02 1.126658854124542916e-05
3.871935967983991986e+02 1.115530231668900041e-05
3.880940470235117346e+02 1.102688820630810657e-05
3.889944972486242705e+02 1.092128566790529499e-05
3.898949474737368632e+02 1.085383984143895466e-05
3.907953976988493991e+02 1.081973542595311621e-05
3.916958479239619351e+02 1.082540121731241054e-05
3.925962981490745278e+02 1.089340842704886357e-05
3.934967483741870637e+02 1.102414515755156017e-05
3.943971985992996565e+02 1.118536889643096393e-05
3.952976488244121924e+02 1.133013188117267114e-05
3.961980990495247283e+02 1.142001364039871563e-05
3.970985492746373211e+02 1.145292732912142005e-05
3.979989994997498570e+02 1.148143107136433644e-05
3.988994497248623929e+02 1.155376742362384095e-05
3.997998999499749857e+02 1.166001757036477491e-05
4.007003501750875216e+02 1.176007998824466473e-05
4.016008004002000575e+02 1.184812785154423098e-05
4.025012506253126503e+02 1.191735865655058113e-05
4.034017008504251862e+02 1.194235102936682744e-05
4.043021510755377221e+02 1.192138207638455179e-05
4.052026013006503149e+02 1.187086268857687549e-05
4.061030515257628508e+02 1.180027262208511444e-05
4.070035017508754436e+02 1.172174098073681611e-05
4.079039519759879795e+02 1.167166998825063320e-05
4.088044022011005154e+02 1.168941074691873097e-05
4.097048524262131082e+02 1.175746954678140308e-05
4.106053026513256441e+02 1.183085112420705788e-05
4.115057528764381800e+02 1.190959219753284030e-05
4.124062031015507728e+02 1.200632892993076633e-05
4.133066533266633087e+02 1.210834829198360570e-05
4.142071035517758446e+02 1.217095780378071742e-05
4.151075537768884374e+02 1.216377351808785106e-05
4.160080040020009733e+02 1.213387545240855140e-05
4.169084542271135092e+02 1.214669648337222540e-05
4.178089044522261020e+02 1.223963583717600579e-05
4.187093546773386379e+02 1.242239180766008800e-05
4.196098049024512306e+02 1.266132106356841255e-05
4.205102551275637666e+02 1.290463427110281666e-05
4.214107053526763025e+02 1.315417989580521388e-05
4.223111555777888952e+02 1.343022769645687545e-05
4.232116058029014312e+02 1.370714223899904627e-05
4.241120560280139671e+02 1.393617147016302645e-05
4.250125062531265598e+02 1.410215308254216642e-05
4.259129564782390958e+02 1.422569296279319098e-05
4.268134067033516317e+02 1.432819036552137332e-05
4.277138569284642244e+02 1.443017385083941742e-05
4.286143071535767604e+02 1.455514530055265871e-05
4.295147573786892963e+02 1.467766448698477767e-05
4.304152076038018890e+02 1.475349850522837135e-05
4.313156578289144250e+02 1.479914827818036837e-05
4.322161080540270177e+02 1.487328833137825155e-05
4.331165582791395536e+02 1.500850116336582469e-05
4.340170085042520896e+02 1.513603623724335136e-05
4.349174587293646823e+02 1.513881722670195423e-05
4.358179089544772182e+02 1.501707360263960001e-05
4.367183591795897541e+02 1.489091900858685274e-05
4.376188094047023469e+02 1.484899254758369613e-05
4.385192596298148828e+02 1.490317186225811941e-05
4.394197098549274187e+02 1.502470980527533082e-05
4.403201600800400115e+02 1.519773481151422306e-05
4.412206103051525474e+02 1.542481526172364596e-05
4.421210605302650833e+02 1.565536289724861650e-05
4.430215107553776761e+02 1.583302825599847182e-05
4.439219609804902120e+02 1.596325474714167851e-05
4.448224112056028048e+02 1.604782013670939358e-05
4.457228614307153407e+02 1.607444024131016860e-05
4.466233116558278766e+02 1.606127381967000292e-05
4.475237618809404694e+02 1.604458019681572601e-05
4.484242121060530053e+02 1.609215296793493381e-05
4.493246623311655412e+02 1.625784163029474718e-05
4.502251125562781340e+02 1.650829954613350153e-05
4.511255627813906699e+02 1.674953132849574258e-05
4.520260130065032058e+02 1.692247265721714578e-05
4.529264632316157986e+02 1.704333511071750174e-05
4.538269134567283345e+02 1.716064333018225938e-05
4.547273636818408704e+02 1.729706878521133611e-05
4.556278139069534632e+02 1.743461638088710568e-05
4.565282641320659991e+02 1.751355621030182207e-05
4.574287143571785919e+02 1.751663232027467210e-05
4.583291645822911278e+02 1.749094823612876062e-05
4.592296148074036637e+02 1.745482894946327369e-05
4.601300650325162565e+02 1.741594680072598424e-05
4.610305152576287924e+02 1.741724249116561183e-05
4.619309654827413283e+02 1.750859638473441565e-05
4.628314157078539210e+02 1.769673054236735771e-05
4.637318659329664570e+02 1.793341828442424063e-05
4.646323161580789929e+02 1.814669019576265274e-05
4.655327663831915856e+02 1.829928213043273351e-05
4.664332166083041216e+02 1.843598536937302986e-05
4.673336668334167143e+02 1.858806386641456668e-05
4.682341170585292502e+02 1.872160553625616669e-05
4.691345672836417862e+02 1.882091749626727407e-05
4.700350175087543789e+02 1.887406828508230651e-05
4.709354677338669148e+02 1.886986076948964672e-05
4.718359179589794508e+02 1.880689537971477103e-05
4.727363681840920435e+02 1.869689774345941082e-05
4.736368184092045794e+02 1.859915169464930671e-05
4.745372686343171154e+02 1.859441949691896786e-05
4.754377188594297081e+02 1.872687729561293900e-05
4.763381690845422440e+02 1.898591393610207629e-05
4.772386193096547800e+02 1.931346101027911139e-05
4.781390695347673727e+02 1.963049337926153174e-05
4.790395197598799086e+02 1.989612507329018224e-05
4.799399699849925014e+02 2.010190622317071949e-05
4.808404202101050373e+02 2.022474147268324491e-05
4.817408704352175732e+02 2.023917506008031722e-05
4.826413206603301660e+02 2.015589979595414853e-05
4.835417708854427019e+02 2.003267475621418073e-05
4.844422211105552378e+02 1.995332224269661094e-05
4.853426713356678306e+02 2.000742261273260339e-05
4.862431215607803665e+02 2.023719940866982301e-05
4.871435717858929024e+02 2.060437121369217850e-05
4.880440220110054952e+02 2.104044955733157555e-05
4.889444722361180311e+02 2.149748005384399121e-05
4.898449224612305670e+02 2.197256366128033881e-05
4.907453726863431598e+02 2.242411473576465893e-05
4.916458229114556957e+02 2.273340491942383459e-05
4.925462731365682885e+02 2.284571750589498850e-05
4.934467233616808244e+02 2.284929041266592150e-05
4.943471735867933603e+02 2.285291906784902433e-05
4.952476238119059531e+02 2.289588515858315612e-05
4.961480740370184890e+02 2.294714948850423957e-05
4.970485242621310249e+02 2.297426476044443444e-05
4.979489744872436177e+02 2.301645365034178032e-05
4.988494247123561536e+02 2.310124508692968840e-05
4.997498749374686895e+02 2.318678741646945166e-05
5.006503251625812823e+02 2.323537324799941964e-05
5.015507753876938182e+02 2.329738758464869910e-05
5.024512256128063541e+02 2.345915924232914172e-05
5.033516758379189469e+02 2.368205911604265927e-05
5.042521260630314828e+02 2.379979685336324572e-05
5.051525762881440755e+02 2.372649113928677477e-05
5.060530265132566115e+02 2.356876882661732161e-05
5.069534767383691474e+02 2.344950167567436269e-05
5.078539269634817401e+02 2.338785930463339505e-05
5.087543771885942760e+02 2.337445930229814666e-05
5.096548274137068120e+02 2.343522842314066081e-05
5.105552776388194047e+02 2.356840171806468879e-05
5.114557278639319406e+02 2.373046623646829823e-05
5.123561780890445334e+02 2.389510681125314804e-05
5.132566283141570693e+02 2.408017664560532209e-05
5.141570785392696052e+02 2.429272381852722057e-05
5.150575287643821412e+02 2.451867061791424248e-05
5.159579789894946771e+02 2.474745195260187112e-05
5.168584292146073267e+02 2.495603736838034197e-05
5.177588794397198626e+02 2.510175033915147100e-05
5.186593296648323985e+02 2.520141087594353666e-05
5.195597798899449344e+02 2.534925276867656873e-05
5.204602301150574704e+02 2.556135548907078524e-05
5.213606803401700063e+02 2.573039325220259063e-05
5.222611305652826559e+02 2.576671065458733522e-05
5.231615807903951918e+02 2.566727102225205159e-05
5.240620310155077277e+02 2.547776713937192089e-05
5.249624812406202636e+02 2.523375540762709348e-05
5.258629314657327996e+02 2.497463922350790828e-05
5.267633816908454492e+02 2.477279965007018559e-05
5.276638319159579851e+02 2.470284873944112621e-05
5.285642821410705210e+02 2.478480492681522912e-05
5.294647323661830569e+02 2.498890321790743388e-05
5.303651825912955928e+02 2.527641093446767400e-05
5.312656328164081287e+02 2.558760377825263559e-05
5.321660830415207784e+02 2.586261074359184992e-05
5.330665332666333143e+02 2.611171809091670013e-05
5.339669834917458502e+02 2.642003697014003101e-05
5.348674337168583861e+02 2.686055004348162473e-05
5.357678839419709220e+02 2.740865373210418858e-05
5.366683341670835716e+02 2.794711679881070688e-05
5.375687843921961075e+02 2.837289967212782441e-05
5.384692346173086435e+02 2.867063965473951698e-05
5.393696848424211794e+02 2.888028192090714595e-05
5.402701350675337153e+02 2.909968492193022775e-05
5.411705852926462512e+02 2.942221897809198030e-05
5.420710355177589008e+02 2.983541880419215690e-05
5.429714857428714367e+02 3.026999452520197270e-05
5.438719359679839727e+02 3.070905534657936381e-05
5.447723861930965086e+02 3.119333385595124392e-05
5.456728364182090445e+02 3.175638892478678413e-05
5.465732866433215804e+02 3.236029157759246253e-05
5.474737368684342300e+02 3.295151719126915800e-05
5.483741870935467659e+02 3.355202316158827498e-05
5.492746373186593019e+02 3.423685323912260066e-05
5.501750875437718378e+02 3.502542063878219238e-05
5.510755377688843737e+02 3.583465655730316325e-05
5.519759879939970233e+02 3.656411734823241327e-05
5.528764382191095592e+02 3.718487310870816423e-05
5.537768884442220951e+02 3.771401517533545361e-05
5.546773386693346310e+02 3.818544037393703798e-05
5.555777888944471670e+02 3.865603303059636910e-05
5.564782391195597029e+02 3.909300210154309448e-05
5.573786893446723525e+02 3.934499899979930824e-05
5.582791395697848884e+02 3.941335960357815373e-05
5.591795897948974243e+02 3.949324683498463111e-05
5.600800400200099602e+02 3.969043897576502063e-05
5.609804902451224962e+02 3.999440108003036358e-05
5.618809404702351458e+02 4.036049946325870878e-05
5.627813906953476817e+02 4.070209787550842256e-05
5.636818409204602176e+02 4.100936980210793514e-05
5.645822911455727535e+02 4.140953383297628045e-05
5.654827413706852894e+02 4.206885685193637964e-05
5.663831915957978254e+02 4.308213302134974564e-05
5.672836418209104750e+02 4.437558298435852964e-05
5.681840920460230109e+02 4.566813786525891967e-05
5.690845422711355468e+02 4.669101291485687114e-05
5.699849924962480827e+02 4.742219600409492027e-05
5.708854427213606186e+02 4.790649629831743008e-05
5.717858929464731546e+02 4.810809816055481284e-05
5.726863431715858042e+02 4.802887522773496056e-05
5.735867933966983401e+02 4.776758667026098778e-05
5.744872436218108760e+02 4.744919377605356545e-05
5.753876938469234119e+02 4.714151768940878502e-05
5.762881440720359478e+02 4.685511382633670034e-05
5.771885942971485974e+02 4.662293148733508879e-05
5.780890445222611334e+02 4.648230166499630022e-05
5.789894947473736693e+02 4.642599633453288569e-05
5.798899449724862052e+02 4.636689581655096013e-05
5.807903951975987411e+02 4.617926971573267132e-05
5.816908454227112770e+02 4.591650506160742379e-05
5.825912956478239266e+02 4.581622307374585268e-05
5.834917458729364625e+02 4.603094653765804525e-05
5.843921960980489985e+02 4.649772287665049835e-05
5.852926463231615344e+02 4.705827334573258006e-05
5.861930965482740703e+02 4.762899477722828219e-05
5.870935467733867199e+02 4.824827784625267466e-05
5.879939969984992558e+02 4.895036806169983541e-05
5.888944472236117917e+02 4.960972087493954047e-05
5.897948974487243277e+02 5.002030775731709311e-05
5.906953476738368636e+02 5.020373672100382332e-05
5.915957978989493995e+02 5.045282727702430026e-05
5.924962481240620491e+02 5.100360660009996353e-05
5.933966983491745850e+02 5.184217462035032057e-05
5.942971485742871209e+02 5.275427062154165888e-05
5.951975987993996569e+02 5.339968174623964950e-05
5.960980490245121928e+02 5.345863968375018588e-05
5.969984992496247287e+02 5.287280604669420515e-05
5.978989494747373783e+02 5.194533302107998270e-05
5.987993996998499142e+02 5.113679536355930172e-05
5.996998499249624501e+02 5.069965678651368129e-05
6.006003001500749860e+02 5.049728591967242685e-05
6.015007503751875220e+02 5.033452994875413334e-05
6.024012006003001716e+02 5.025411845069839085e-05
6.033016508254127075e+02 5.033624809955155081e-05
6.042021010505252434e+02 5.058117028289207126e-05
6.051025512756377793e+02 5.095545398185298092e-05
6.060030015007503152e+02 5.138955986218238350e-05
6.069034517258628512e+02 5.190327254686031194e-05
6.078039019509755008e+02 5.258906901937619331e-05
6.087043521760880367e+02 5.342509067130941355e-05
6.096048024012005726e+02 5.420821567261575289e-05
6.105052526263131085e+02 5.464824705852742699e-05
6.114057028514256444e+02 5.467942301662237774e-05
6.123061530765382940e+02 5.448759601141191120e-05
6.132066033016508300e+02 5.422378979764518427e-05
6.141070535267633659e+02 5.394370108134074261e-05
6.150075037518759018e+02 5.368043975427812519e-05
6.159079539769884377e+02 5.339340043802036389e-05
6.168084042021009736e+02 5.305742854172932130e-05
6.177088544272136232e+02 5.282729895971483399e-05
6.186093046523261592e+02 5.284668302192902255e-05
6.195097548774386951e+02 5.312274771233391977e-05
6.204102051025512310e+02 5.358679495411445626e-05
6.213106553276637669e+02 5.423328442943980640e-05
6.222111055527763028e+02 5.503315396514909472e-05
6.231115557778889524e+02 5.574520623259835009e-05
6.240120060030014884e+02 5.612082165639711400e-05
6.249124562281140243e+02 5.620384465536484712e-05
6.258129064532265602e+02 5.624003001063590030e-05
6.267133566783390961e+02 5.639169660300781691e-05
6.276138069034517457e+02 5.654924460256554821e-05
6.285142571285642816e+02 5.650945818346727207e-05
6.294147073536768175e+02 5.624671492171418508e-05
6.303151575787893535e+02 5.593580310845965736e-05
6.312156078039018894e+02 5.581769385053155256e-05
6.321160580290144253e+02 5.605090597830936195e-05
6.330165082541270749e+02 5.651811763285367684e-05
6.339169584792396108e+02 5.688799913784116678e-05
6.348174087043521467e+02 5.701567687508095724e-05
6.357178589294646827e+02 5.705981729719615840e-05
6.366183091545772186e+02 5.707468586650837926e-05
6.375187593796898682e+02 5.696774808097038466e-05
6.384192096048024041e+02 5.677957275226275171e-05
6.393196598299149400e+02 5.678697054250592211e-05
6.402201100550274759e+02 5.728210696535640409e-05
6.411205602801400119e+02 5.822886962799247274e-05
6.420210105052525478e+02 5.922703113750298380e-05
6.429214607303651974e+02 5.982322063362095126e-05
6.438219109554777333e+02 5.991779586517748108e-05
6.447223611805902692e+02 5.966146771270120034e-05
6.456228114057028051e+02 5.923374001353645842e-05
6.465232616308153411e+02 5.886403054443452607e-05
6.474237118559278770e+02 5.876539835427857685e-05
6.483241620810405266e+02 5.903554804963458450e-05
6.492246123061530625e+02 5.947590299633433186e-05
6.501250625312655984e+02 5.967634940889895897e-05
6.510255127563781343e+02 5.950129017212852473e-05
6.519259629814906702e+02 5.919405522136072395e-05
6.528264132066033198e+02 5.902849098542719907e-05
6.537268634317158558e+02 5.901602549691711028e-05
6.546273136568283917e+02 5.894998879630207413e-05
6.555277638819409276e+02 5.863785263615172680e-05
6.564282141070534635e+02 5.798886049572301047e-05
6.573286643321659994e+02 5.707421827132082699e-05
6.582291145572786490e+02 5.608117214152127998e-05
6.591295647823911850e+02 5.510907233343588919e-05
6.600300150075037209e+02 5.423623990959766802e-05
6.609304652326162568e+02 5.354928926072630483e-05
6.618309154577287927e+02 5.300245645504973399e-05
6.627313656828414423e+02 5.247581176432416443e-05
6.636318159079539782e+02 5.195740810911073223e-05
6.645322661330665142e+02 5.161169142913146985e-05
6.654327163581790501e+02 5.161172967088376398e-05
6.663331665832915860e+02 5.186133049345325973e-05
6.672336168084041219e+02 5.202395860123497747e-05
6.681340670335167715e+02 5.180731197482722501e-05
6.690345172586293074e+02 5.109750951939485823e-05
6.699349674837418434e+02 4.996681455209141536e-05
6.708354177088543793e+02 4.871845028200221943e-05
6.717358679339669152e+02 4.765645669747891933e-05
6.726363181590794511e+02 4.692090061586607529e-05
6.735367683841921007e+02 4.661337587367689198e-05
6.744372186093046366e+02 4.677917252842785794e-05
6.753376688344171725e+02 4.728824090546891859e-05
6.762381190595297085e+02 4.782900809306182350e-05
6.771385692846422444e+02 4.814589932235598590e-05
6.780390195097548940e+02 4.825722358511390613e-05
6.789394697348674299e+02 4.830812343314902930e-05
6.798399199599799658e+02 4.836593130420313688e-05
6.807403701850925017e+02 4.844255235429519089e-05
6.816408204102050377e+02 4.867233166585207432e-05
6.825412706353175736e+02 4.912388589753073886e-05
6.834417208604302232e+02 4.952813226415411459e-05
6.843421710855427591e+02 4.954222272309160506e-05
6.852426213106552950e+02 4.911116861598121500e-05
6.861430715357678309e+02 4.840521241679827735e-05
6.870435217608803669e+02 4.761457526079501521e-05
6.879439719859930165e+02 4.697831229549561917e-05
6.888444222111055524e+02 4.670249099142788856e-05
6.897448724362180883e+02 4.681119843542030657e-05
6.906453226613306242e+02 4.717779516148305074e-05
6.915457728864431601e+02 4.753728025077737365e-05
6.924462231115556961e+02 4.750446597230698211e-05
6.933466733366683457e+02 4.687465838038431463e-05
6.942471235617808816e+02 4.583992408495743881e-05
6.951475737868934175e+02 4.480691226825099662e-05
6.960480240120059534e+02 4.412021186056768834e-05
6.969484742371184893e+02 4.386400525099312734e-05
6.978489244622311389e+02 4.385607617114731276e-05
6.987493746873436749e+02 4.385337518747252242e-05
6.996498249124562108e+02 4.381532818148240312e-05
7.005502751375687467e+02 4.387622582620488162e-05
7.014507253626812826e+02 4.411388153001334937e-05
7.023511755877938185e+02 4.433450501340600484e-05
7.032516258129064681e+02 4.422381121458113175e-05
7.041520760380190040e+02 4.370841285847343094e-05
7.050525262631315400e+02 4.298306480728381204e-05
7.059529764882440759e+02 4.228953216846446158e-05
7.068534267133566118e+02 4.172565696978966363e-05
7.077538769384691477e+02 4.132572019608166049e-05
7.086543271635817973e+02 4.120259224491756649e-05
7.095547773886943332e+02 4.126533080232400874e-05
7.104552276138068692e+02 4.111901718774415855e-05
7.113556778389194051e+02 4.051150919977553744e-05
7.122561280640319410e+02 3.960697337942792920e-05
7.131565782891445906e+02 3.870722281862317880e-05
7.140570285142571265e+02 3.797027027538135745e-05
7.149574787393696624e+02 3.745159035931499306e-05
7.158579289644821984e+02 3.715812511760453545e-05
7.167583791895947343e+02 3.701113947535281860e-05
7.176588294147072702e+02 3.690987786335491388e-05
7.185592796398199198e+02 3.686788887885001910e-05
7.194597298649324557e+02 3.694517903548368991e-05
7.203601800900449916e+02 3.711993340230310986e-05
7.212606303151575275e+02 3.731816191278946806e-05
7.221610805402700635e+02 3.741992743704919834e-05
7.230615307653827131e+02 3.728025427541482650e-05
7.239619809904952490e+02 3.686839223085634190e-05
7.248624312156077849e+02 3.632069853078593962e-05
7.257628814407203208e+02 3.584468438877394221e-05
7.266633316658328567e+02 3.552159682861643632e-05
7.275637818909453927e+02 3.523002980925727594e-05
7.284642321160580423e+02 3.478424086464745906e-05
7.293646823411705782e+02 3.415606606091479806e-05
7.302651325662831141e+02 3.351814351842928461e-05
7.311655827913956500e+02 3.304862674659950374e-05
7.320660330165081859e+02 3.276584719972168772e-05
7.329664832416207219e+02 3.254515943675442889e-05
7.338669334667333715e+02 3.229473655138162590e-05
7.347673836918459074e+02 3.206369794308053505e-05
7.356678339169584433e+02 3.195147935684538194e-05
7.365682841420709792e+02 3.195226039648991513e-05
7.374687343671835151e+02 3.189205372897778841e-05
7.383691845922961647e+02 3.160339983878052915e-05
7.392696348174087007e+02 3.108322916321945437e-05
7.401700850425212366e+02 3.042881657352672302e-05
7.410705352676337725e+02 2.973295310911608822e-05
7.419709854927463084e+02 2.900767407015360209e-05
7.428714357178588443e+02 2.821212494888551442e-05
7.437718859429714939e+02 2.741721722622538559e-05
7.446723361680840299e+02 2.681592318831701820e-05
7.455727863931965658e+02 2.650092571208172420e-05
7.464732366183091017e+02 2.638390917267970217e-05
7.473736868434216376e+02 2.632191756909329816e-05
7.482741370685342872e+02 2.621944416703487222e-05
7.491745872936468231e+02 2.603826631786388372e-05
7.500750375187593590e+02 2.580932315099992988e-05
7.509754877438718950e+02 2.564351979459822783e-05
7.518759379689844309e+02 2.558826079255667127e-05
7.527763881940969668e+02 2.553281467455864386e-05
7.536768384192096164e+02 2.535530206019259031e-05
7.545772886443221523e+02 2.512468878832920419e-05
7.554777388694346882e+02 2.499779092240416397e-05
7.563781890945472242e+02 2.498823844184024217e-05
7.572786393196597601e+02 2.496098521223140908e-05
7.581790895447722960e+02 2.482336570911310793e-05
7.590795397698849456e+02 2.461705878125568922e-05
7.599799899949974815e+02 2.441548605647147514e-05
7.608804402201100174e+02 2.426298759380663607e-05
7.617808904452225534e+02 2.417511560768521701e-05
7.626813406703350893e+02 2.411632941358214679e-05
7.635817908954477389e+02 2.403162258848327783e-05
7.644822411205602748e+02 2.387780636256075730e-05
7.653826913456728107e+02 2.363554641569970473e-05
7.662831415707853466e+02 2.333249054204488047e-05
7.671835917958978825e+02 2.304490491118836226e-05
7.680840420210104185e+02 2.284519481418776716e-05
7.689844922461230681e+02 2.274629168566070055e-05
7.698849424712356040e+02 2.271976157952216384e-05
7.707853926963481399e+02 2.273485179217964324e-05
7.716858429214606758e+02 2.273604033679591226e-05
7.725862931465732117e+02 2.263300131844107196e-05
7.734867433716858613e+02 2.243476413859920047e-05
7.743871935967983973e+02 2.229554438487721981e-05
7.752876438219109332e+02 2.231988654866688034e-05
7.761880940470234691e+02 2.244624037651053752e-05
7.770885442721360050e+02 2.251722636807833964e-05
7.779889944972485409e+02 2.244225776506195987e-05
7.788894447223611905e+02 2.232528661691141517e-05
7.797898949474737265e+02 2.231086772086301215e-05
7.806903451725862624e+02 2.239983118666844333e-05
7.815907953976987983e+02 2.252944310479354991e-05
7.824912456228113342e+02 2.266424944985753775e-05
7.833916958479238701e+02 2.284324329520720726e-05
7.842921460730365197e+02 2.312435823299164195e-05
7.851925962981490557e+02 2.348841680711481950e-05
7.860930465232615916e+02 2.388138736879156804e-05
7.869934967483741275e+02 2.422332538098029915e-05
7.878939469734866634e+02 2.435353147864244305e-05
7.887943971985993130e+02 2.415733563173521286e-05
7.896948474237118489e+02 2.371943903171062855e-05
7.905952976488243849e+02 2.321417823047252710e-05
7.914957478739369208e+02 2.276175672870744452e-05
7.923961980990494567e+02 2.240306671591235817e-05
7.932966483241619926e+02 2.213174992722399676e-05
7.941970985492746422e+02 2.191266166448538813e-05
7.950975487743871781e+02 2.173822178531162704e-05
7.959979989994997140e+02 2.165816785247465129e-05
7.968984492246122500e+02 2.166753377258249754e-05
7.977988994497247859e+02 2.166971097632835002e-05
7.986993496748374355e+02 2.158338290019878774e-05
7.995997998999499714e+02 2.141096541328146933e-05
8.005002501250625073e+02 2.124338319580961008e-05
8.014007003501750432e+02 2.114479158270286173e-05
8.023011505752875792e+02 2.110654785269647433e-05
8.032016008004001151e+02 2.110761130677274929e-05
8.041020510255127647e+02 2.109979750419703874e-05
8.050025012506253006e+02 2.100946517041551778e-05
8.059029514757378365e+02 2.083023344574426428e-05
8.068034017008503724e+02 2.067889864493418678e-05
8.077038519259629084e+02 2.067716899682345809e-05
8.086043021510754443e+02 2.081347440359021877e-05
8.095047523761880939e+02 2.095759045114648173e-05
8.104052026013006298e+02 2.101257122936737759e-05
8.113056528264131657e+02 2.100711625692775741e-05
8.122061030515257016e+02 2.097182056890249557e-05
8.131065532766382375e+02 2.088177141790528138e-05
8.140070035017508872e+02 2.078416651411887204e-05
8.149074537268634231e+02 2.078920978554476434e-05
8.158079039519759590e+02 2.095087272856933805e-05
8.167083541770884949e+02 2.126310182585318233e-05
8.176088044022010308e+02 2.166887660722960831e-05
8.185092546273135667e+02 2.208465017917163797e-05
8.194097048524262163e+02 2.244787593308855103e-05
8.203101550775387523e+02 2.272945424163326571e-05
8.212106053026512882e+02 2.280746281988835087e-05
8.221110555277638241e+02 2.253479771743078559e-05
8.230115057528763600e+02 2.199057023056886373e-05
8.239119559779890096e+02 2.140011137294831739e-05
8.248124062031015455e+02 2.091081798082969521e-05
8.257128564282140815e+02 2.056618236684759147e-05
8.266133066533266174e+02 2.036183729589972167e-05
8.275137568784391533e+02 2.026623853483138513e-05
8.284142071035516892e+02 2.023508848157362221e-05
8.293146573286643388e+02 2.022859100730770574e-05
8.302151075537768747e+02 2.022220772657087266e-05
8.311155577788894107e+02 2.022253578239491844e-05
8.320160080040019466e+02 2.028196424875578025e-05
8.329164582291144825e+02 2.044983514994824807e-05
8.338169084542270184e+02 2.071965662348165417e-05
8.347173586793396680e+02 2.104692179017991709e-05
8.356178089044522039e+02 2.140174456993446263e-05
8.365182591295647399e+02 2.171814999851368562e-05
8.374187093546772758e+02 2.189094337501436253e-05
8.383191595797898117e+02 2.191904524307215156e-05
8.392196098049024613e+02 2.190190364550758268e-05
8.401200600300149972e+02 2.195983429820535797e-05
8.410205102551275331e+02 2.213830313195328889e-05
8.419209604802400690e+02 2.236280186000533967e-05
8.428214107053526050e+02 2.251711078404341563e-05
8.437218609304651409e+02 2.253208224800020985e-05
8.446223111555777905e+02 2.240390245485857264e-05
8.455227613806903264e+02 2.222589007533681057e-05
8.464232116058028623e+02 2.216283777958178092e-05
8.473236618309153982e+02 2.231233345634969675e-05
8.482241120560279342e+02 2.260327358275783123e-05
8.491245622811405838e+02 2.285988426655077954e-05
8.500250125062531197e+02 2.299708809623976583e-05
8.509254627313656556e+02 2.305190817552037555e-05
8.518259129564781915e+02 2.308207440187277877e-05
8.527263631815907274e+02 2.314427513356486421e-05
8.536268134067032634e+02 2.328527616540256967e-05
8.545272636318159130e+02 2.351655312931803714e-05
8.554277138569284489e+02 2.383737785539394535e-05
8.563281640820409848e+02 2.424468330429908875e-05
8.572286143071535207e+02 2.470146197828154325e-05
8.581290645322660566e+02 2.513740041464400434e-05
8.590295147573785925e+02 2.557149877634841905e-05
8.599299649824912422e+02 2.609207655516557144e-05
8.608304152076037781e+02 2.671883287102172323e-05
8.617308654327163140e+02 2.738931458310445074e-05
8.626313156578288499e+02 2.798044201171802882e-05
8.635317658829413858e+02 2.835184719495092499e-05
8.644322161080540354e+02 2.845708318560356617e-05
8.653326663331665713e+02 2.830897751109335466e-05
8.662331165582791073e+02 2.795357748982980206e-05
8.671335667833916432e+02 2.749518594149075090e-05
8.680340170085041791e+02 2.704770328386461690e-05
8.689344672336167150e+02 2.670132398023310750e-05
8.698349174587293646e+02 2.647980885643883345e-05
8.707353676838419005e+02 2.631643676303067000e-05
8.716358179089544365e+02 2.612255477884996332e-05
8.725362681340669724e+02 2.589195224000398105e-05
8.734367183591795083e+02 2.571545107649005058e-05
8.743371685842921579e+02 2.565525123125369361e-05
8.752376188094046938e+02 2.565700507037359333e-05
8.761380690345172297e+02 2.564015905174242392e-05
8.770385192596297657e+02 2.560120788599902486e-05
8.779389694847423016e+02 2.552839176097542281e-05
8.788394197098548375e+02 2.537372814476892579e-05
8.797398699349674871e+02 2.518584453374657229e-05
8.806403201600800230e+02 2.507517061289024664e-05
8.815407703851925589e+02 2.510017784335005588e-05
8.824412206103050949e+02 2.526090629256835509e-05
8.833416708354176308e+02 2.549350847068615383e-05
8.842421210605301667e+02 2.567574859173366294e-05
8.851425712856428163e+02 2.571390114906136693e-05
8.860430215107553522e+02 2.560015025089230334e-05
8.869434717358678881e+02 2.543439412039907768e-05
8.878439219609804240e+02 2.540069703335197046e-05
8.887443721860929600e+02 2.562162463343796128e-05
8.896448224112056096e+02 2.606150969158021837e-05
8.905452726363181455e+02 2.654471468159772779e-05
8.914457228614306814e+02 2.685735270053215827e-05
8.923461730865432173e+02 2.692360298039469304e-05
8.932466233116557532e+02 2.683561400358855264e-05
8.941470735367682892e+02 2.678311048722476431e-05
8.950475237618809388e+02 2.693149945008410434e-05
8.959479739869934747e+02 2.730603522518357845e-05
8.968484242121060106e+02 2.786402858540683775e-05
8.977488744372185465e+02 2.859093428000297052e-05
8.986493246623310824e+02 2.952775922924953149e-05
8.995497748874437320e+02 3.067898882848286068e-05
9.004502251125562680e+02 3.186521357669556861e-05
9.013506753376688039e+02 3.278413775105640086e-05
9.022511255627813398e+02 3.326314565747820853e-05
9.031515757878938757e+02 3.337932550273960320e-05
9.040520260130064116e+02 3.335541119722327944e-05
9.049524762381190612e+02 3.337677617163644403e-05
9.058529264632315972e+02 3.349910785414777158e-05
9.067533766883441331e+02 3.372787707421953727e-05
9.076538269134566690e+02 3.401837077814706857e-05
9.085542771385692049e+02 3.423503009518620371e-05
9.094547273636817408e+02 3.432963804099170688e-05
9.103551775887943904e+02 3.435962284506389618e-05
9.112556278139069263e+02 3.438290526190929521e-05
9.121560780390194623e+02 3.452020466485764059e-05
9.130565282641319982e+02 3.484160921989411014e-05
9.139569784892445341e+02 3.523944601995602095e-05
9.148574287143571837e+02 3.561368778612620834e-05
9.157578789394697196e+02 3.600449060248215168e-05
9.166583291645822555e+02 3.648304249139775271e-05
9.175587793896947915e+02 3.707227799593808460e-05
9.184592296148073274e+02 3.773525331879454026e-05
9.193596798399198633e+02 3.837845638213139746e-05
9.202601300650325129e+02 3.895506301311644874e-05
9.211605802901450488e+02 3.948578553515510396e-05
9.220610305152575847e+02 3.999751039058612150e-05
9.229614807403701207e+02 4.050905431966551358e-05
9.238619309654826566e+02 4.109844446630584705e-05
9.247623811905953062e+02 4.193721255661509920e-05
9.256628314157078421e+02 4.305613869016790024e-05
9.265632816408203780e+02 4.415208622921381931e-05
9.274637318659329139e+02 4.491695403469820789e-05
9.283641820910454499e+02 4.535617109801005209e-05
9.292646323161579858e+02 4.560491203562979095e-05
9.301650825412706354e+02 4.576902485095081416e-05
9.310655327663831713e+02 4.588328549040101466e-05
9.319659829914957072e+02 4.589400245956801546e-05
9.328664332166082431e+02 4.577775745872523079e-05
9.337668834417207790e+02 4.560683592732204248e-05
9.346673336668334287e+02 4.546255462924915004e-05
9.355677838919459646e+02 4.537398620274677997e-05
9.364682341170585005e+02 4.535031570276041338e-05
9.373686843421710364e+02 4.536424797657154277e-05
9.382691345672835723e+02 4.538098467973240114e-05
9.391695847923961082e+02 4.552872692380632744e-05
9.400700350175087578e+02 4.602606481399697962e-05
9.409704852426212938e+02 4.690411461394371239e-05
9.418709354677338297e+02 4.803513688993962691e-05
9.427713856928463656e+02 4.928574981719854490e-05
9.436718359179589015e+02 5.055785976165897902e-05
9.445722861430714374e+02 5.178348978253731049e-05
9.454727363681840870e+02 5.286637229291485141e-05
9.463731865932966230e+02 5.372879394318517347e-05
9.472736368184091589e+02 5.449446109061215396e-05
9.481740870435216948e+02 5.535352935888345909e-05
9.490745372686342307e+02 5.628674176238471964e-05
9.499749874937468803e+02 5.711457860000583413e-05
9.508754377188594162e+02 5.768999321484587429e-05
9.517758879439719522e+02 5.788403622661425474e-05
9.526763381690844881e+02 5.760498221516540209e-05
9.535767883941970240e+02 5.697864708738338709e-05
9.544772386193095599e+02 5.628043382533411224e-05
9.553776888444222095e+02 5.575583454229542817e-05
9.562781390695347454e+02 5.553318800109366117e-05
9.571785892946472813e+02 5.566388420858599375e-05
9.580790395197598173e+02 5.612606456377538481e-05
9.589794897448723532e+02 5.680960642113295215e-05
9.598799399699850028e+02 5.764036812810177695e-05
9.607803901950975387e+02 5.860057368270250644e-05
9.616808404202100746e+02 5.959345579957940511e-05
9.625812906453226105e+02 6.045803515975012782e-05
9.634817408704351465e+02 6.109078845741615024e-05
9.643821910955476824e+02 6.161304902606396460e-05
9.652826413206603320e+02 6.233808392222799782e-05
9.661830915457728679e+02 6.348329758429736164e-05
9.670835417708854038e+02 6.499502623085938685e-05
9.679839919959979397e+02 6.663781583947936686e-05
9.688844422211104757e+02 6.807349431585189273e-05
9.697848924462230116e+02 6.902306164431564861e-05
9.706853426713356612e+02 6.963491810045888911e-05
9.715857928964481971e+02 7.034356743194732282e-05
9.724862431215607330e+02 7.147200581657372695e-05
9.733866933466732689e+02 7.292811383950932905e-05
9.742871435717858049e+02 7.426411749710150464e-05
9.751875937968984545e+02 7.508984003800088297e-05
9.760880440220109904e+02 7.546262571707464714e-05
9.769884942471235263e+02 7.587532660484387907e-05
9.778889444722360622e+02 7.666026856848734265e-05
9.787893946973485981e+02 7.783720002285352566e-05
9.796898449224611340e+02 7.940829137580283535e-05
9.805902951475737837e+02 8.129028696180592344e-05
9.814907453726863196e+02 8.322557777403638167e-05
9.823911955977988555e+02 8.500146230882381338e-05
9.832916458229113914e+02 8.662928988867748886e-05
9.841920960480239273e+02 8.821994933883229423e-05
9.850925462731365769e+02 8.976645551657420213e-05
9.859929964982491128e+02 9.120295005763977617e-05
9.868934467233616488e+02 9.272629972131740564e-05
9.877938969484741847e+02 9.471236212948340666e-05
9.886943471735867206e+02 9.717785359818628340e-05
9.895947973986992565e+02 9.959255122581876535e-05
9.904952476238119061e+02 1.012569589624064527e-04
9.913956978489244420e+02 1.019312298664785098e-04
9.922961480740369780e+02 1.018869867205557465e-04
9.931965982991495139e+02 1.016614544507403190e-04
9.940970485242620498e+02 1.017030496779791767e-04
9.949974987493745857e+02 1.023845034382728957e-04
9.958979489744872353e+02 1.039322360103124966e-04
9.967983991995997712e+02 1.061080573106955175e-04
9.976988494247123072e+02 1.084463944631995023e-04
9.985992996498248431e+02 1.106708733180316429e-04
9.994997498749373790e+02 1.127797796160249886e-04
1.000400200100050029e+03 1.147700966814317684e-04
1.001300650325162565e+03 1.166308906781174956e-04
1.002201100550275100e+03 1.183093937603500723e-04
1.003101550775387636e+03 1.198062021146857305e-04
1.004002001000500172e+03 1.213066862560987076e-04
1.004902451225612708e+03 1.229139018205461576e-04
1.005802901450725358e+03 1.244329158987753103e-04
1.006703351675837894e+03 1.255706466164946747e-04
1.007603801900950430e+03 1.263666263874163988e-04
1.008504252126062966e+03 1.272673696433255239e-04
1.009404702351175501e+03 1.286117257995148281e-04
1.010305152576288151e+03 1.303190364580030902e-04
1.011205602801400687e+03 1.319725933388074784e-04
1.012106053026513223e+03 1.332666139523914703e-04
1.013006503251625759e+03 1.344935793721394176e-04
1.013906953476738295e+03 1.359734063193566132e-04
1.014807403701850831e+03 1.378946696082504714e-04
1.015707853926963480e+03 1.404104880361883043e-04
1.016608304152076016e+03 1.430966158426605589e-04
1.017508754377188552e+03 1.453372539429253303e-04
1.018409204602301088e+03 1.469144946876312411e-04
1.019309654827413624e+03 1.479944379245164263e-04
1.020210105052526160e+03 1.489665526320601186e-04
1.021110555277638809e+03 1.499756678808487160e-04
1.022011005502751345e+03 1.513527493939762869e-04
1.022911455727863881e+03 1.538514423455610469e-04
1.023811905952976417e+03 1.578960806958643590e-04
1.024712356178089067e+03 1.630850468843323959e-04
1.025612806403201603e+03 1.685098400220417895e-04
1.026513256628314139e+03 1.734899718809608331e-04
1.027413706853426675e+03 1.777923469498715776e-04
1.028314157078539210e+03 1.812540851932074653e-04
1.029214607303651746e+03 1.840596716735896660e-04
1.030115057528764282e+03 1.867590871150017547e-04
1.031015507753876818e+03 1.896865871633542869e-04
1.031915957978989354e+03 1.929012539704452755e-04
1.032816408204101890e+03 1.966483169982776488e-04
1.033716858429214653e+03 2.017216828083103289e-04
1.034617308654327189e+03 2.089981292455061503e-04
1.035517758879439725e+03 2.184792461620568772e-04
1.036418209104552261e+03 2.288244575689173837e-04
1.037318659329664797e+03 2.382455362064282917e-04
1.038219109554777333e+03 2.460005044343751461e-04
1.039119559779889869e+03 2.527717257599932234e-04
1.040020010005002405e+03 2.595919107159587436e-04
1.040920460230114941e+03 2.666834573738723719e-04
1.041820910455227477e+03 2.729610615514695463e-04
1.042721360680340013e+03 2.773377952769647296e-04
1.043621810905452776e+03 2.800335372396968014e-04
1.044522261130565312e+03 2.822219333737692047e-04
1.045422711355677848e+03 2.855570442396483796e-04
1.046323161580790384e+03 2.911616922268178177e-04
1.047223611805902920e+03 2.985427858975698429e-04
1.048124062031015455e+03 3.060799933993541585e-04
1.049024512256127991e+03 3.123667301735568824e-04
1.049924962481240527e+03 3.169032740394410398e-04
1.050825412706353063e+03 3.201939601470766205e-04
1.051725862931465599e+03 3.236762088135013301e-04
1.052626313156578135e+03 3.285211172095687865e-04
1.053526763381690898e+03 3.341538142370066057e-04
1.054427213606803434e+03 3.396476180716203556e-04
1.055327663831915970e+03 3.456796979884859062e-04
1.056228114057028506e+03 3.532554279843048073e-04
1.057128564282141042e+03 3.620107498242216594e-04
1.058029014507253578e+03 3.706906800175381188e-04
1.058929464732366114e+03 3.783337868962542770e-04
1.059829914957478650e+03 3.846920953970909521e-04
1.060730365182591186e+03 3.907190702792171086e-04
1.061630815407703722e+03 3.987494601088161189e-04
1.062531265632816257e+03 4.110333131206253413e-04
1.063431715857929021e+03 4.275224540968239491e-04
1.064332166083041557e+03 4.449923544563627641e-04
1.065232616308154093e+03 4.590458513726053836e-04
1.066133066533266629e+03 4.671192380950816799e-04
1.067033516758379164e+03 4.701994483885709310e-04
1.067933966983491700e+03 4.713328133874955203e-04
1.068834417208604236e+03 4.725534858070968756e-04
1.069734867433716772e+03 4.746023661417938795e-04
1.070635317658829308e+03 4.773940118626322586e-04
1.071535767883941844e+03 4.801377713147455813e-04
1.072436218109054380e+03 4.823021011346554374e-04
1.073336668334167143e+03 4.839988222384972020e-04
1.074237118559279679e+03 4.852852127944310692e-04
1.075137568784392215e+03 4.862927764353267707e-04
1.076038019009504751e+03 4.885739966340521545e-04
1.076938469234617287e+03 4.938456022894034897e-04
1.077838919459729823e+03 5.018671358863780211e-04
1.078739369684842359e+03 5.120484414820625782e-04
1.079639819909954895e+03 5.245689702299164781e-04
1.080540270135067431e+03 5.382256064262869307e-04
1.081440720360179967e+03 5.493434830923381480e-04
1.082341170585292502e+03 5.537711123741873151e-04
1.083241620810405038e+03 5.507083787793112068e-04
1.084142071035517802e+03 5.440576932527474430e-04
1.085042521260630338e+03 5.377798182778388818e-04
1.085942971485742873e+03 5.329676257366187378e-04
1.086843421710855409e+03 5.294556710807097385e-04
1.087743871935967945e+03 5.270379584160721480e-04
1.088644322161080481e+03 5.256783227566844607e-04
1.089544772386193017e+03 5.247672916027688265e-04
1.090445222611305553e+03 5.236584087299001652e-04
1.091345672836418089e+03 5.231940298246045293e-04
1.092246123061530625e+03 5.255464951907450706e-04
1.093146573286643161e+03 5.321308475762333897e-04
1.094047023511755924e+03 5.418308907455536864e-04
1.094947473736868460e+03 5.519482924370788064e-04
1.095847923961980996e+03 5.598896817545686438e-04
1.096748374187093532e+03 5.645437044110438504e-04
1.097648824412206068e+03 5.674179431595519421e-04
1.098549274637318604e+03 5.693517686075141729e-04
1.099449724862431140e+03 5.678951714927955603e-04
1.100350175087543676e+03 5.617631555128632832e-04
1.101250625312656211e+03 5.524350387669181616e-04
1.102151075537768747e+03 5.421202077924857938e-04
1.103051525762881283e+03 5.327460385297181104e-04
1.103951975987994047e+03 5.242638071408569364e-04
1.104852426213106583e+03 5.153659420371038647e-04
1.105752876438219118e+03 5.056552636304224337e-04
1.106653326663331654e+03 4.957093150370666312e-04
1.107553776888444190e+03 4.860270855530724799e-04
1.108454227113556726e+03 4.763697063215897908e-04
1.109354677338669262e+03 4.667751815393374388e-04
1.110255127563781798e+03 4.581492117286502718e-04
1.111155577788894334e+03 4.506215092550784358e-04
1.112056028014006870e+03 4.440821287449092051e-04
1.112956478239119406e+03 4.398871117916843877e-04
1.113856928464232169e+03 4.388695260061030836e-04
1.114757378689344705e+03 4.394232608366171002e-04
1.115657828914457241e+03 4.377081925623188779e-04
1.116558279139569777e+03 4.306552740039798813e-04
1.117458729364682313e+03 4.190185344619564681e-04
1.118359179589794849e+03 4.062792391754532642e-04
1.119259629814907385e+03 3.942011586630692305e-04
1.120160080040019920e+03 3.812301164779222313e-04
1.121060530265132456e+03 3.660891278441572418e-04
1.121960980490244992e+03 3.501800187919606208e-04
1.122861430715357528e+03 3.358044681291024705e-04
1.123761880940470292e+03 3.236604738465609214e-04
1.124662331165582827e+03 3.132912042253940214e-04
1.125562781390695363e+03 3.041111470967525600e-04
1.126463231615807899e+03 2.961022475044568897e-04
1.127363681840920435e+03 2.895360272763456387e-04
1.128264132066032971e+03 2.838121450761109409e-04
1.129164582291145507e+03 2.780710284793982165e-04
1.130065032516258043e+03 2.725848614751692810e-04
1.130965482741370579e+03 2.682204160029930703e-04
1.131865932966483115e+03 2.651504162850658471e-04
1.132766383191595651e+03 2.624832538681115242e-04
1.133666833416708187e+03 2.586102604207404115e-04
1.134567283641820950e+03 2.519972423277649573e-04
1.135467733866933486e+03 2.420955949247542954e-04
1.136368184092046022e+03 2.303941249476437877e-04
1.137268634317158558e+03 2.185430393649579871e-04
1.138169084542271094e+03 2.061188116832671018e-04
1.139069534767383630e+03 1.923911749420412762e-04
1.139969984992496165e+03 1.786880248542964172e-04
1.140870435217608701e+03 1.666019829378002719e-04
1.141770885442721237e+03 1.563859690179799397e-04
1.142671335667833773e+03 1.476892172661006472e-04
1.143571785892946309e+03 1.398493619165025676e-04
1.144472236118059072e+03 1.322559972608913391e-04
1.145372686343171608e+03 1.250170817896385106e-04
1.146273136568284144e+03 1.186526275920502703e-04
1.147173586793396680e+03 1.134756274964387280e-04
1.148074037018509216e+03 1.092908538787252192e-04
1.148974487243621752e+03 1.055852723847369577e-04
1.149874937468734288e+03 1.022406238735311748e-04
1.150775387693846824e+03 9.935178059762319301e-05
1.151675837918959360e+03 9.670682209747037228e-05
1.152576288144071896e+03 9.405214542393523661e-05
1.153476738369184432e+03 9.149491371636340998e-05
1.154377188594297195e+03 8.926603429121065419e-05
1.155277638819409731e+03 8.720064769580163349e-05
1.156178089044522267e+03 8.504810651495630898e-05
1.157078539269634803e+03 8.312953293947943610e-05
1.157978989494747339e+03 8.209023849909647080e-05
1.158879439719859874e+03 8.209045088868054021e-05
1.159779889944972410e+03 8.257962577195664242e-05
1.160680340170084946e+03 8.271813454586783132e-05
1.161580790395197482e+03 8.219323184510896529e-05
1.162481240620310018e+03 8.150896818365681513e-05
1.163381690845422554e+03 8.110807983469829705e-05
1.164282141070535317e+03 8.095612679099912937e-05
1.165182591295647853e+03 8.088104999901033051e-05
1.166083041520760389e+03 8.067203368758713293e-05
1.166983491745872925e+03 8.020789313849420584e-05
1.167883941970985461e+03 7.965209744961990917e-05
1.168784392196097997e+03 7.932439460110992714e-05
1.169684842421210533e+03 7.948020382664641595e-05
1.170585292646323069e+03 8.009042536638020821e-05
1.171485742871435605e+03 8.089189486421133183e-05
1.172386193096548141e+03 8.160351013408804598e-05
1.173286643321660677e+03 8.203595152893501403e-05
1.174187093546773440e+03 8.212157660353078628e-05
1.175087543771885976e+03 8.206682096158523555e-05
1.175987993996998512e+03 8.212841239070805925e-05
1.176888444222111048e+03 8.253325950676055343e-05
1.177788894447223583e+03 8.360572087639328391e-05
1.178689344672336119e+03 8.568101804599963971e-05
1.179589794897448655e+03 8.891007618473282604e-05
1.180490245122561191e+03 9.309729998197532918e-05
1.181390695347673727e+03 9.757758524340814259e-05
1.182291145572786263e+03 1.015077554414909136e-04
1.183191595797898799e+03 1.046566918536819788e-04
1.184092046023011562e+03 1.074558650712662553e-04
1.184992496248124098e+03 1.100881056369038674e-04
1.185892946473236634e+03 1.124386341833076715e-04
1.186793396698349170e+03 1.146887558648466217e-04
1.187693846923461706e+03 1.171675901291436157e-04
1.188594297148574242e+03 1.199471215109317913e-04
1.189494747373686778e+03 1.229051033587485109e-04
1.190395197598799314e+03 1.259251739307997331e-04
1.191295647823911850e+03 1.290496125525980315e-04
1.192196098049024386e+03 1.323590722473771324e-04
1.193096548274136921e+03 1.355413224046346011e-04
1.193996998499249457e+03 1.383104203533534662e-04
1.194897448724362221e+03 1.406120200240343527e-04
1.195797898949474757e+03 1.422908423950376992e-04
1.196698349174587293e+03 1.432907528137800015e-04
1.197598799399699828e+03 1.441095267576311516e-04
1.198499249624812364e+03 1.454982851750373475e-04
1.199399699849924900e+03 1.478082822430991773e-04
1.200300150075037436e+03 1.507706497388172412e-04
1.201200600300149972e+03 1.539644172844283163e-04
1.202101050525262508e+03 1.575102506371973043e-04
1.203001500750375044e+03 1.619345521925921597e-04
1.203901950975487580e+03 1.672212007372715083e-04
1.204802401200600343e+03 1.726089952393533437e-04
1.205702851425712879e+03 1.773621556686478130e-04
1.206603301650825415e+03 1.812245726471366171e-04
1.207503751875937951e+03 1.843404997483358537e-04
1.208404202101050487e+03 1.871352715476279739e-04
1.209304652326163023e+03 1.898742611384912616e-04
1.210205102551275559e+03 1.924212955282289972e-04
1.211105552776388095e+03 1.941359593787654332e-04
1.212006003001500630e+03 1.945599948497237787e-04
1.212906453226613166e+03 1.939516829847344286e-04
1.213806903451725702e+03 1.925813464313301472e-04
1.214707353676838466e+03 1.907948871170545826e-04
1.215607803901951002e+03 1.894449719345681310e-04
1.216508254127063537e+03 1.894580293638247544e-04
1.217408704352176073e+03 1.912167836980692426e-04
1.218309154577288609e+03 1.946849474195137266e-04
1.219209604802401145e+03 2.001072606520298131e-04
1.220110055027513681e+03 2.082035727859659409e-04
1.221010505252626217e+03 2.192423187337822594e-04
1.221910955477738753e+03 2.319987836193164324e-04
1.222811405702851289e+03 2.443064183739853193e-04
1.223711855927963825e+03 2.541597690353491860e-04
1.224612306153076588e+03 2.607748172408799704e-04
1.225512756378189124e+03 2.659549588797044742e-04
1.226413206603301660e+03 2.725275496946150773e-04
1.227313656828414196e+03 2.816296660711450537e-04
1.228214107053526732e+03 2.925324838865107457e-04
1.229114557278639268e+03 3.038054409276534748e-04
1.230015007503751804e+03 3.142852073016200198e-04
1.230915457728864340e+03 3.237795409445276204e-04
1.231815907953976875e+03 3.327762197150682557e-04
1.232716358179089411e+03 3.422749074054176198e-04
1.233616808404201947e+03 3.535195827277293527e-04
1.234517258629314711e+03 3.669938943129345539e-04
1.235417708854427246e+03 3.824493794447101193e-04
1.236318159079539782e+03 3.990813684399023087e-04
1.237218609304652318e+03 4.160575881648807361e-04
1.238119059529764854e+03 4.328352454355371948e-04
1.239019509754877390e+03 4.484216022158682728e-04
1.239919959979989926e+03 4.614341775855870104e-04
1.240820410205102462e+03 4.719991306824517494e-04
1.241720860430214998e+03 4.819823181220897544e-04
1.242621310655327534e+03 4.934258919091308879e-04
1.243521760880440070e+03 5.077174231617519271e-04
1.244422211105552606e+03 5.244324043108658431e-04
1.245322661330665369e+03 5.413565727837745109e-04
1.246223111555777905e+03 5.571412348501570463e-04
1.247123561780890441e+03 5.712963707762747003e-04
1.248024012006002977e+03 5.822491878201092527e-04
1.248924462231115513e+03 5.887380832281862786e-04
1.249824912456228049e+03 5.914464169993969558e-04
1.250725362681340584e+03 5.929372443830464379e-04
1.251625812906453120e+03 5.954076666450339346e-04
1.252526263131565656e+03 5.988910650115881768e-04
1.253426713356678192e+03 6.027772796895345319e-04
1.254327163581790728e+03 6.074978886904410348e-04
1.255227613806903491e+03 6.138741784026402470e-04
1.256128064032016027e+03 6.215639110727469744e-04
1.257028514257128563e+03 6.288117898771999502e-04
1.257928964482241099e+03 6.336326014742548092e-04
1.258829414707353635e+03 6.357283530862666140e-04
1.259729864932466171e+03 6.372186078713363254e-04
1.260630315157578707e+03 6.411701059572770664e-04
1.261530765382691243e+03 6.491686867214667899e-04
1.262431215607803779e+03 6.597620633387843480e-04
1.263331665832916315e+03 6.709910276444877326e-04
1.264232116058028851e+03 6.833427513885238606e-04
1.265132566283141614e+03 6.982923030103083475e-04
1.266033016508254150e+03 7.157154848702049817e-04
1.266933466733366686e+03 7.338474397387757028e-04
1.267833916958479222e+03 7.506607154006300110e-04
1.268734367183591758e+03 7.642111391230285190e-04
1.269634817408704293e+03 7.733045527034017579e-04
1.270535267633816829e+03 7.785441191956138200e-04
1.271435717858929365e+03 7.812254655393946609e-04
1.272336168084041901e+03 7.820362660295153163e-04
1.273236618309154437e+03 7.824417486250080525e-04
1.274137068534266973e+03 7.856511229232951898e-04
1.275037518759379736e+03 7.946091896990799524e-04
1.275937968984492272e+03 8.107966278464097572e-04
1.276838419209604808e+03 8.338519303907782369e-04
1.277738869434717344e+03 8.598776635293321671e-04
1.278639319659829880e+03 8.829277534539651650e-04
1.279539769884942416e+03 8.999833558164837318e-04
1.280440220110054952e+03 9.121488983870089861e-04
1.281340670335167488e+03 9.221021525210314511e-04
1.282241120560280024e+03 9.326444248865632669e-04
1.283141570785392560e+03 9.460715939170210751e-04
1.284042021010505096e+03 9.624247181376930022e-04
1.284942471235617859e+03 9.792106905378047781e-04
1.285842921460730395e+03 9.943848545155978876e-04
1.286743371685842931e+03 1.007727349078807021e-03
1.287643821910955467e+03 1.019762842716117821e-03
1.288544272136068003e+03 1.031816847077724007e-03
1.289444722361180538e+03 1.045789309555709068e-03
1.290345172586293074e+03 1.061519197017073797e-03
1.291245622811405610e+03 1.076489351388446687e-03
1.292146073036518146e+03 1.088963108174971018e-03
1.293046523261630682e+03 1.099254195835706839e-03
1.293946973486743218e+03 1.108678873551807373e-03
1.294847423711855754e+03 1.118120860594757357e-03
1.295747873936968517e+03 1.127869806009322746e-03
1.296648324162081053e+03 1.138691054455843749e-03
1.297548774387193589e+03 1.151927382531575932e-03
1.298449224612306125e+03 1.168670334298496779e-03
1.299349674837418661e+03 1.188753683102503457e-03
1.300250125062531197e+03 1.210182184687732957e-03
1.301150575287643733e+03 1.231178822138805475e-03
1.302051025512756269e+03 1.250895219653400418e-03
1.302951475737868805e+03 1.268316745370837335e-03
1.303851925962981340e+03 1.282719140805330593e-03
1.304752376188093876e+03 1.294680661922460946e-03
1.305652826413206640e+03 1.307165027739827685e-03
1.306553276638319176e+03 1.321877263920644184e-03
1.307453726863431712e+03 1.336695917588814767e-03
1.308354177088544247e+03 1.351008723249947025e-03
1.309254627313656783e+03 1.367069298662821957e-03
1.310155077538769319e+03 1.387330853484623023e-03
1.311055527763881855e+03 1.413266859292009120e-03
1.311955977988994391e+03 1.443986045403979589e-03
1.312856428214106927e+03 1.476884617104397886e-03
1.313756878439219463e+03 1.510854059762674903e-03
1.314657328664331999e+03 1.547181467201768496e-03
1.315557778889444762e+03 1.587019573869502759e-03
1.316458229114557298e+03 1.628419070791391286e-03
1.317358679339669834e+03 1.669074969801009022e-03
1.318259129564782370e+03 1.710270344983815666e-03
1.319159579789894906e+03 1.754470833023365510e-03
1.320060030015007442e+03 1.802217488815031042e-03
1.320960480240119978e+03 1.852416633535256983e-03
1.321860930465232514e+03 1.903773515824978965e-03
1.322761380690345050e+03 1.954474146695471190e-03
1.323661830915457585e+03 2.001075901722336719e-03
1.324562281140570121e+03 2.041456965910164005e-03
1.325462731365682885e+03 2.078878027276557898e-03
1.326363181590795421e+03 2.119478763618178399e-03
1.327263631815907956e+03 2.170875243089349059e-03
1.328164082041020492e+03 2.239623356589085131e-03
1.329064532266133028e+03 2.325896698942920508e-03
1.329964982491245564e+03 2.425229775982115470e-03
1.330865432716358100e+03 2.531222754038560830e-03
1.331765882941470636e+03 2.636154783212478741e-03
1.332666333166583172e+03 2.733457168970369281e-03
1.333566783391695708e+03 2.821593918543627722e-03
1.334467233616808244e+03 2.903505634884627311e-03
1.335367683841921007e+03 2.984177172664547774e-03
1.336268134067033543e+03 3.072397275866208931e-03
1.337168584292146079e+03 3.175716427247602617e-03
1.338069034517258615e+03 3.291821307114004697e-03
1.338969484742371151e+03 3.412936169959071651e-03
1.339869934967483687e+03 3.537195073874706622e-03
1.340770385192596223e+03 3.668877609226683500e-03
1.341670835417708759e+03 3.811054026063099513e-03
1.342571285642821294e+03 3.957142038358658562e-03
1.343471735867933830e+03 4.096544992171424586e-03
1.344372186093046366e+03 4.229679624801616772e-03
1.345272636318158902e+03 4.369286045623724420e-03
1.346173086543271666e+03 4.525632446652111916e-03
1.347073536768384201e+03 4.696746053913633881e-03
1.347973986993496737e+03 4.873338729188633582e-03
1.348874437218609273e+03 5.052363924980129636e-03
1.349774887443721809e+03 5.244773818487641695e-03
1.350675337668834345e+03 5.464787947882665184e-03
1.351575787893946881e+03 5.717900737131996654e-03
1.352476238119059417e+03 6.001549059469144139e-03
1.353376688344171953e+03 6.310792847007260301e-03
1.354277138569284489e+03 6.632837762893337846e-03
1.355177588794397025e+03 6.959466574056144723e-03
1.356078039019509788e+03 7.296673828251479602e-03
1.356978489244622324e+03 7.644261286186227779e-03
1.357878939469734860e+03 7.991163358156482682e-03
1.358779389694847396e+03 8.333206060442433297e-03
1.359679839919959932e+03 8.680169368813498570e-03
1.360580290145072468e+03 9.035376894317733928e-03
1.361480740370185003e+03 9.387476056445680228e-03
1.362381190595297539e+03 9.734547835611988970e-03
1.363281640820410075e+03 1.007836802970192396e-02
1.364182091045522611e+03 1.042541003250033183e-02
1.365082541270635147e+03 1.079080111078021403e-02
1.365982991495747910e+03 1.115396844916460330e-02
1.366883441720860446e+03 1.146947681094536917e-02
1.367783891945972982e+03 1.172596503294512371e-02
1.368684342171085518e+03 1.195333166515284359e-02
1.369584792396198054e+03 1.220989026611357837e-02
1.370485242621310590e+03 1.257216952058710230e-02
1.371385692846423126e+03 1.307988688709907366e-02
1.372286143071535662e+03 1.366882399039441240e-02
1.373186593296648198e+03 1.422246842373018141e-02
1.374087043521760734e+03 1.470637662443384508e-02
1.374987493746873270e+03 1.518221060085641130e-02
1.375887943971986033e+03 1.569540188620466986e-02
1.376788394197098569e+03 1.625071159426193235e-02
1.377688844422211105e+03 1.685019443035538911e-02
1.378589294647323641e+03 1.748836277159464617e-02
1.379489744872436177e+03 1.818126402723641011e-02
1.380390195097548713e+03 1.897230870328037167e-02
1.381290645322661248e+03 1.988431729779754215e-02
1.382191095547773784e+03 2.090016119190181779e-02
1.383091545772886320e+03 2.201985046763714135e-02
1.383991995997998856e+03 2.325391121221623975e-02
1.384892446223111392e+03 2.457005803624450618e-02
1.385792896448224155e+03 2.594226447403590735e-02
1.386693346673336691e+03 2.742715007856686912e-02
1.387593796898449227e+03 2.912875910382650702e-02
1.388494247123561763e+03 3.110208267382525912e-02
1.389394697348674299e+03 3.324872483392752459e-02
1.390295147573786835e+03 3.537897580798823188e-02
1.391195597798899371e+03 3.737442861242076114e-02
1.392096048024011907e+03 3.919726098262932279e-02
1.392996498249124443e+03 4.083550232197811353e-02
1.393896948474236979e+03 4.220392338897478030e-02
1.394797398699349515e+03 4.316758168336921192e-02
1.395697848924462278e+03 4.378996009470128431e-02
1.396598299149574814e+03 4.431274775082066214e-02
1.397498749374687350e+03 4.480791244489298192e-02
1.398399199599799886e+03 4.516197977686924742e-02
1.399299649824912422e+03 4.530369764316431735e-02
1.400200100050024957e+03 4.521727746612529825e-02
1.401100550275137493e+03 4.474938078307672679e-02
1.402001000500250029e+03 4.372850774612607738e-02
1.402901450725362565e+03 4.213427465287160334e-02
1.403801900950475101e+03 3.999885325100496075e-02
1.404702351175587637e+03 3.727060678306643587e-02
1.405602801400700173e+03 3.396567996183797594e-02
1.406503251625812936e+03 3.038180713476445333e-02
1.407403701850925472e+03 2.694828621773335750e-02
1.408304152076038008e+03 2.392031181861161218e-02
1.409204602301150544e+03 2.133795458121529043e-02
1.410105052526263080e+03 1.913823749259302778e-02
1.411005502751375616e+03 1.721558401726708265e-02
1.411905952976488152e+03 1.550012960422552516e-02
1.412806403201600688e+03 1.399136453566790679e-02
1.413706853426713224e+03 1.267727582889036260e-02
1.414607303651825760e+03 1.153041424604304109e-02
1.415507753876938295e+03 1.054778809741020555e-02
1.416408204102051059e+03 9.725578514364112415e-03
1.417308654327163595e+03 9.037302047418349291e-03
1.418209104552276131e+03 8.455271785837374654e-03
1.419109554777388666e+03 7.959947248766363614e-03
1.420010005002501202e+03 7.531093113980646958e-03
1.420910455227613738e+03 7.145068610110684275e-03
1.421810905452726274e+03 6.771834764637001298e-03
1.422711355677838810e+03 6.392487765286585487e-03
1.423611805902951346e+03 6.010537158596871571e-03
1.424512256128063882e+03 5.637205850975512446e-03
1.425412706353176418e+03 5.282957531425930622e-03
1.426313156578289181e+03 4.959438183475961895e-03
1.427213606803401717e+03 4.674904872205422161e-03
1.428114057028514253e+03 4.432116586419745929e-03
1.429014507253626789e+03 4.228070779181910405e-03
1.429914957478739325e+03 4.046024364069250936e-03
1.430815407703851861e+03 3.867346919609495563e-03
1.431715857928964397e+03 3.690103400672279342e-03
1.432616308154076933e+03 3.519319417882752193e-03
1.433516758379189469e+03 3.357894220737448442e-03
1.434417208604302004e+03 3.211613364823991210e-03
1.435317658829414540e+03 3.087852540155493122e-03
1.436218109054527304e+03 2.982605664643202606e-03
1.437118559279639840e+03 2.880093143582580523e-03
1.438019009504752376e+03 2.770150797768607120e-03
1.438919459729864911e+03 2.656631776158749261e-03
1.439819909954977447e+03 2.550489599038272947e-03
1.440720360180089983e+03 2.458234861354987016e-03
1.441620810405202519e+03 2.378540683594513195e-03
1.442521260630315055e+03 2.309242897917548453e-03
1.443421710855427591e+03 2.249122423079018100e-03
1.444322161080540127e+03 2.195261875228373717e-03
1.445222611305652663e+03 2.145669665855343741e-03
1.446123061530765426e+03 2.099429570146982456e-03
1.447023511755877962e+03 2.057905167882525654e-03
1.447923961980990498e+03 2.024246668355668497e-03
1.448824412206103034e+03 1.998557566490419008e-03
1.449724862431215570e+03 1.974160865115274967e-03
1.450625312656328106e+03 1.942926785086877437e-03
1.451525762881440642e+03 1.903402118887225804e-03
1.452426213106553178e+03 1.858455120015526122e-03
1.453326663331665713e+03 1.809499568363185729e-03
1.454227113556778249e+03 1.756811658730678561e-03
1.455127563781890785e+03 1.701416874853200166e-03
1.456028014007003321e+03 1.648563919057646635e-03
1.456928464232116085e+03 1.602733122367714117e-03
1.457828914457228620e+03 1.563153292609880405e-03
1.458729364682341156e+03 1.526947478184371727e-03
1.459629814907453692e+03 1.490471300470885526e-03
1.460530265132566228e+03 1.451496593898722121e-03
1.461430715357678764e+03 1.410392985771413612e-03
1.462331165582791300e+03 1.370961846027822853e-03
1.463231615807903836e+03 1.338692886313146190e-03
1.464132066033016372e+03 1.316081661718435016e-03
1.465032516258128908e+03 1.299609200643693030e-03
1.465932966483241444e+03 1.281760398361880002e-03
1.466833416708354207e+03 1.255687571237904974e-03
1.467733866933466743e+03 1.219493807702220090e-03
1.468634317158579279e+03 1.176381797921032630e-03
1.469534767383691815e+03 1.131942658015826870e-03
1.470435217608804351e+03 1.091249261140381102e-03
1.471335667833916887e+03 1.055756263487236295e-03
1.472236118059029423e+03 1.026008067759234766e-03
1.473136568284141958e+03 1.004916038523995638e-03
1.474037018509254494e+03 9.933324395031001286e-04
1.474937468734367030e+03 9.873492149128041285e-04
1.475837918959479566e+03 9.835104851390113687e-04
1.476738369184592329e+03 9.810171548330155929e-04
1.477638819409704865e+03 9.779391236969222148e-04
1.478539269634817401e+03 9.716800868017871603e-04
1.479439719859929937e+03 9.615932359682435957e-04
1.480340170085042473e+03 9.479554152019765327e-04
1.481240620310155009e+03 9.315585979012475830e-04
1.482141070535267545e+03 9.126093457279587295e-04
1.483041520760380081e+03 8.901992716780175860e-04
1.483941970985492617e+03 8.641498123382895542e-04
1.484842421210605153e+03 8.369332572647429202e-04
1.485742871435717689e+03 8.137339424495177017e-04
1.486643321660830452e+03 7.973231490440980907e-04
1.487543771885942988e+03 7.856994753904745447e-04
1.488444222111055524e+03 7.748433320984437914e-04
1.489344672336168060e+03 7.613826442964631959e-04
1.490245122561280596e+03 7.448292274707487464e-04
1.491145572786393132e+03 7.277061459432780264e-04
1.492046023011505667e+03 7.124856463807055854e-04
1.492946473236618203e+03 7.000605084134643935e-04
1.493846923461730739e+03 6.906609825866651944e-04
1.494747373686843275e+03 6.839819549416535941e-04
1.495647823911955811e+03 6.795601398456702601e-04
1.496548274137068574e+03 6.770539570371541128e-04
1.497448724362181110e+03 6.749236479161803588e-04
1.498349174587293646e+03 6.707965353380767985e-04
1.499249624812406182e+03 6.635490459822336855e-04
1.500150075037518718e+03 6.544337298652736336e-04
1.501050525262631254e+03 6.448042810352149715e-04
1.501950975487743790e+03 6.342901064570417771e-04
1.502851425712856326e+03 6.225452190869189186e-04
1.503751875937968862e+03 6.101635811820418833e-04
1.504652326163081398e+03 5.976591076124549221e-04
1.505552776388193934e+03 5.861529321245184622e-04
1.506453226613306470e+03 5.773948338388821188e-04
1.507353676838419233e+03 5.716616977995281216e-04
1.508254127063531769e+03 5.672761726293398810e-04
1.509154577288644305e+03 5.626138841912270731e-04
1.510055027513756841e+03 5.567989359678754196e-04
1.510955477738869376e+03 5.494137495132057382e-04
1.511855927963981912e+03 5.403945068321845419e-04
1.512756378189094448e+03 5.296479528250770371e-04
1.513656828414206984e+03 5.174873202408965863e-04
1.514557278639319520e+03 5.054611676243152708e-04
1.515457728864432056e+03 4.965144384222316618e-04
1.516358179089544592e+03 4.922897133686191971e-04
1.517258629314657355e+03 4.908664063924249874e-04
1.518159079539769891e+03 4.891589040832330362e-04
1.519059529764882427e+03 4.855532662213288405e-04
1.519959979989994963e+03 4.793104008263705113e-04
1.520860430215107499e+03 4.705087609085949912e-04
1.521760880440220035e+03 4.609987446129534426e-04
1.522661330665332571e+03 4.536638956360294623e-04
1.523561780890445107e+03 4.503051356198361816e-04
1.524462231115557643e+03 4.503153288758534310e-04
1.525362681340670179e+03 4.513595079059741413e-04
1.526263131565782714e+03 4.515863558693750069e-04
1.527163581790895478e+03 4.500534518216268878e-04
1.528064032016008014e+03 4.456474586800611339e-04
1.528964482241120550e+03 4.385421872523849744e-04
1.529864932466233086e+03 4.306688142102501563e-04
1.530765382691345621e+03 4.232142563037905730e-04
1.531665832916458157e+03 4.167865280077484081e-04
1.532566283141570693e+03 4.119526963436999758e-04
1.533466733366683229e+03 4.083230429971937913e-04
1.534367183591795765e+03 4.051290681805026967e-04
1.535267633816908301e+03 4.026915933949535599e-04
1.536168084042020837e+03 4.019558915881268511e-04
1.537068534267133600e+03 4.033240280503256692e-04
1.537968984492246136e+03 4.062714649091007327e-04
1.538869434717358672e+03 4.093146006616525017e-04
1.539769884942471208e+03 4.103242647613930365e-04
1.540670335167583744e+03 4.076286551563471365e-04
1.541570785392696280e+03 4.013272186939438016e-04
1.542471235617808816e+03 3.933508579707306954e-04
1.543371685842921352e+03 3.861878730604794015e-04
1.544272136068033888e+03 3.815973964000778139e-04
1.545172586293146423e+03 3.803731634301554072e-04
1.546073036518258959e+03 3.817414847654176436e-04
1.546973486743371723e+03 3.840009597057939027e-04
1.547873936968484259e+03 3.859198618744134478e-04
1.548774387193596795e+03 3.872201724858030073e-04
1.549674837418709330e+03 3.885301212163046755e-04
1.550575287643821866e+03 3.902936128270370533e-04
1.551475737868934402e+03 3.915325395503149535e-04
1.552376188094046938e+03 3.910571072919180190e-04
1.553276638319159474e+03 3.891801904863513399e-04
1.554177088544272010e+03 3.872061262312225427e-04
1.555077538769384546e+03 3.859510428651770570e-04
1.555977988994497082e+03 3.853367111674901434e-04
1.556878439219609618e+03 3.849559527101100516e-04
1.557778889444722381e+03 3.839718800920996077e-04
1.558679339669834917e+03 3.827693555266466771e-04
1.559579789894947453e+03 3.833401646606944481e-04
1.560480240120059989e+03 3.865827539489555200e-04
1.561380690345172525e+03 3.911948450569247004e-04
1.562281140570285061e+03 3.954470214853770594e-04
1.563181590795397597e+03 3.985787678514996868e-04
1.564082041020510133e+03 4.006150348951099125e-04
1.564982491245622668e+03 4.014073481773112561e-04
1.565882941470735204e+03 3.997085146638622842e-04
1.566783391695847740e+03 3.933272830739802280e-04
1.567683841920960504e+03 3.807875887835459510e-04
1.568584292146073039e+03 3.623769169526205240e-04
1.569484742371185575e+03 3.387577280700581500e-04
1.570385192596298111e+03 3.113667171731389501e-04
1.571285642821410647e+03 2.823747328553228718e-04
1.572186093046523183e+03 2.531283977329822164e-04
1.573086543271635719e+03 2.242504071287239656e-04
1.573986993496748255e+03 1.965831158066452366e-04
1.574887443721860791e+03 1.715305985203743270e-04
1.575787893946973327e+03 1.502723242591177261e-04
1.576688344172085863e+03 1.331000002366319044e-04
1.577588794397198626e+03 1.195710608905149855e-04
1.578489244622311162e+03 1.089875404415597822e-04
1.579389694847423698e+03 1.006691460741083023e-04
1.580290145072536234e+03 9.403877354030041387e-05
1.581190595297648770e+03 8.865192108321570989e-05
1.582091045522761306e+03 8.418747485892053505e-05
1.582991495747873842e+03 8.041869819657179415e-05
1.583891945972986377e+03 7.718492330839990848e-05
1.584792396198098913e+03 7.437055037214342968e-05
1.585692846423211449e+03 7.189081368327886797e-05
1.586593296648323985e+03 6.968235330830354029e-05
1.587493746873436749e+03 6.769694608187707590e-05
1.588394197098549284e+03 6.589727739981821346e-05
1.589294647323661820e+03 6.425403802420896976e-05
1.590195097548774356e+03 6.274389337839381044e-05
1.591095547773886892e+03 6.134803739689135226e-05
1.591995997998999428e+03 6.005114514135126056e-05
1.592896448224111964e+03 5.884060227196024890e-05
1.593796898449224500e+03 5.770592996886058328e-05
1.594697348674337036e+03 5.663835000461571250e-05
1.595597798899449572e+03 5.563045178219589690e-05
1.596498249124562108e+03 5.467593455999839345e-05
1.597398699349674871e+03 5.376940581160782125e-05
1.598299149574787407e+03 5.290622198126165111e-05
1.599199599799899943e+03 5.208236160238847458e-05
1.600100050025012479e+03 5.129432336708578078e-05
1.601000500250125015e+03 5.053904361043514001e-05
1.601900950475237551e+03 4.981382903255817112e-05
1.602801400700350086e+03 4.911630147663231604e-05
1.603701850925462622e+03 4.844435231760382143e-05
1.604602301150575158e+03 4.779610456661744416e-05
1.605502751375687694e+03 4.716988121112197124e-05
1.606403201600800230e+03 4.656417862610117114e-05
1.607303651825912766e+03 4.597764413378318101e-05
1.608204102051025529e+03 4.540905697599394890e-05
1.609104552276138065e+03 4.485731210868449265e-05
1.610005002501250601e+03 4.432140634201552109e-05
1.610905452726363137e+03 4.380042643913934522e-05
1.611805902951475673e+03 4.329353885800638654e-05
1.612706353176588209e+03 4.279998087733127729e-05
1.613606803401700745e+03 4.231905289340050805e-05
1.614507253626813281e+03 4.185011171115243458e-05
1.615407703851925817e+03 4.139256468273413818e-05
1.616308154077038353e+03 4.094586457098815417e-05
1.617208604302150889e+03 4.050950503515595612e-05
1.618109054527263652e+03 4.008301665238726900e-05
1.619009504752376188e+03 3.966596340208579618e-05
1.619909954977488724e+03 3.925793955126929193e-05
1.620810405202601260e+03 3.885856688837374001e-05
1.621710855427713796e+03 3.846749226067393756e-05
1.622611305652826331e+03 3.808438537696212298e-05
1.623511755877938867e+03 3.770893684257087855e-05
1.624412206103051403e+03 3.734085639841508577e-05
1.625312656328163939e+03 3.697987133961059820e-05
1.626213106553276475e+03 3.662572509252350175e-05
1.627113556778389011e+03 3.627817593189956957e-05
1.628014007003501774e+03 3.593699582212094728e-05
1.628914457228614310e+03 3.560196936868930914e-05
1.629814907453726846e+03 3.527289286777369803e-05
1.630715357678839382e+03 3.494957344318871327e-05
1.631615807903951918e+03 3.463182826146542947e-05
1.632516258129064454e+03 3.431948381679947752e-05
1.633416708354176990e+03 3.401237527863923134e-05
1.634317158579289526e+03 3.371034589552449035e-05
1.635217608804402062e+03 3.341324644952399655e-05
1.636118059029514598e+03 3.312093475625850963e-05
1.637018509254627133e+03 3.283327520605829579e-05
1.637918959479739897e+03 3.255013834230396013e-05
1.638819409704852433e+03 3.227140047341777720e-05
1.639719859929964969e+03 3.199694331536120440e-05
1.640620310155077505e+03 3.172665366182585308e-05
1.641520760380190040e+03 3.146042307959581220e-05
1.642421210605302576e+03 3.119814762682774273e-05
1.643321660830415112e+03 3.093972759221397972e-05
1.644222111055527648e+03 3.068506725320968305e-05
1.645122561280640184e+03 3.043407465167594095e-05
1.646023011505752720e+03 3.018666138546300025e-05
1.646923461730865256e+03 2.994274241458771843e-05
1.647823911955978019e+03 2.970223588080241349e-05
1.648724362181090555e+03 2.946506293945462597e-05
1.649624812406203091e+03 2.923114760264294295e-05
1.650525262631315627e+03 2.900041659277497949e-05
1.651425712856428163e+03 2.877279920569732031e-05
1.652326163081540699e+03 2.854822718266032341e-05
1.653226613306653235e+03 2.832663459043352193e-05
1.654127063531765771e+03 2.810795770895401191e-05
1.655027513756878307e+03 2.789213492594293963e-05
1.655927963981990843e+03 2.767910663797121652e-05
1.656828414207103378e+03 2.746881515750337235e-05
1.657728864432216142e+03 2.726120462548557786e-05
1.658629314657328678e+03 2.705622092908134760e-05
1.659529764882441214e+03 2.685381162418986847e-05
1.660430215107553749e+03 2.665392586241360607e-05
1.661330665332666285e+03 2.645651432216521542e-05
1.662231115557778821e+03 2.626152914363407234e-05
1.663131565782891357e+03 2.606892386734737906e-05
1.664032016008003893e+03 2.587865337608907435e-05
1.664932466233116429e+03 2.569067383995222683e-05
1.665832916458228965e+03 2.550494266432133225e-05
1.666733366683341501e+03 2.532141844059449803e-05
1.667633816908454037e+03 2.514006089947028774e-05
1.668534267133566800e+03 2.496083086663595816e-05
1.669434717358679336e+03 2.478369022071026431e-05
1.670335167583791872e+03 2.460860185329624046e-05
1.671235617808904408e+03 2.443552963101849125e-05
1.672136068034016944e+03 2.426443835942337593e-05
1.673036518259129480e+03 2.409529374863041964e-05
1.673936968484242016e+03 2.392806238063020435e-05
1.674837418709354552e+03 2.376271167813515570e-05
1.675737868934467087e+03 2.359920987488719603e-05
1.676638319159579623e+03 2.343752598734613577e-05
1.677538769384692159e+03 2.327762978767245974e-05
1.678439219609804923e+03 2.311949177793661729e-05
1.679339669834917459e+03 2.296308316548646396e-05
1.680240120060029994e+03 2.280837583940384175e-05
1.681140570285142530e+03 2.265534234799780581e-05
1.682041020510255066e+03 2.250395587727240321e-05
1.682941470735367602e+03 2.235419023032184088e-05
1.683841920960480138e+03 2.220601980759773848e-05
1.684742371185592674e+03 2.205941958800983107e-05
1.685642821410705210e+03 2.191436511081088206e-05
1.686543271635817746e+03 2.177083245822800496e-05
1.687443721860930282e+03 2.162879823880333799e-05
1.688344172086043045e+03 2.148823957140388820e-05
1.689244622311155581e+03 2.134913406987457178e-05
1.690145072536268117e+03 2.121145982829300360e-05
1.691045522761380653e+03 2.107519540680503949e-05
1.691945972986493189e+03 2.094031981800840655e-05
1.692846423211605725e+03 2.080681251385759414e-05
1.693746873436718261e+03 2.067465337306896179e-05
1.694647323661830796e+03 2.054382268899733626e-05
1.695547773886943332e+03 2.041430115796573721e-05
1.696448224112055868e+03 2.028606986802716775e-05
1.697348674337168404e+03 2.015911028813479331e-05
1.698249124562281168e+03 2.003340425770620101e-05
1.699149574787393703e+03 1.990893397656290134e-05
1.700050025012506239e+03 1.978568199522632906e-05
1.700950475237618775e+03 1.966363120555527635e-05
1.701850925462731311e+03 1.954276483171315718e-05
1.702751375687843847e+03 1.942306642144475039e-05
1.703651825912956383e+03 1.930451983765336845e-05
1.704552276138068919e+03 1.918710925026517039e-05
1.705452726363181455e+03 1.907081912836663604e-05
1.706353176588293991e+03 1.895563423260476280e-05
1.707253626813406527e+03 1.884153960783891259e-05
1.708154077038519290e+03 1.872852057603494733e-05
1.709054527263631826e+03 1.861656272938949666e-05
1.709954977488744362e+03 1.850565192367641245e-05
1.710855427713856898e+03 1.839577427180677396e-05
1.711755877938969434e+03 1.828691613759325825e-05
1.712656328164081970e+03 1.817906412970991096e-05
1.713556778389194506e+03 1.807220509584175414e-05
1.714457228614307041e+03 1.796632611701583530e-05
1.715357678839419577e+03 1.786141450210389206e-05
1.716258129064532113e+03 1.775745778249720514e-05
1.717158579289644649e+03 1.765444370693757298e-05
1.718059029514757185e+03 1.755236023650756929e-05
1.718959479739869948e+03 1.745119553976707633e-05
1.719859929964982484e+03 1.735093798803507767e-05
1.720760380190095020e+03 1.725157615081021519e-05
1.721660830415207556e+03 1.715309879132245326e-05
1.722561280640320092e+03 1.705549486221608383e-05
1.723461730865432628e+03 1.695875350135481611e-05
1.724362181090545164e+03 1.686286402774602003e-05
1.725262631315657700e+03 1.676781593758229057e-05
1.726163081540770236e+03 1.667359890039089696e-05
1.727063531765882772e+03 1.658020275529390521e-05
1.727963981990995308e+03 1.648761750736932796e-05
1.728864432216108071e+03 1.639583332411229875e-05
1.729764882441220607e+03 1.630484053199538305e-05
1.730665332666333143e+03 1.621462961311834607e-05
1.731565782891445679e+03 1.612519120195080629e-05
1.732466233116558215e+03 1.603651608216091699e-05
1.733366683341670750e+03 1.594859518352835466e-05
1.734267133566783286e+03 1.586141957893869034e-05
1.735167583791895822e+03 1.577498048145640293e-05
1.736068034017008358e+03 1.568926924147430159e-05
1.736968484242120894e+03 1.560427734393641643e-05
1.737868934467233430e+03 1.551999640563220595e-05
1.738769384692346193e+03 1.543641817256029237e-05
1.739669834917458729e+03 1.535353451735825534e-05
1.740570285142571265e+03 1.527133743679832481e-05
1.741470735367683801e+03 1.518981904934426700e-05
1.742371185592796337e+03 1.510897159277060682e-05
1.743271635817908873e+03 1.502878742184012794e-05
1.744172086043021409e+03 1.494925900603765984e-05
1.745072536268133945e+03 1.487037892736147498e-05
1.745972986493246481e+03 1.479213987816562314e-05
1.746873436718359017e+03 1.471453465905658767e-05
1.747773886943471553e+03 1.463755617683923061e-05
1.748674337168584316e+03 1.456119744251207404e-05
1.749574787393696852e+03 1.448545156931054898e-05
1.750475237618809388e+03 1.441031177079599248e-05
1.751375687843921924e+03 1.433577135898953745e-05
1.752276138069034459e+03 1.426182374254963663e-05
1.753176588294146995e+03 1.418846242499232942e-05
1.754077038519259531e+03 1.411568100295151247e-05
1.754977488744372067e+03 1.404347316448039299e-05
1.755877938969484603e+03 1.397183268739073491e-05
1.756778389194597139e+03 1.390075343763047069e-05
1.757678839419709675e+03 1.383022936769755245e-05
1.758579289644822438e+03 1.376025451508968687e-05
1.759479739869934974e+03 1.369082300078849351e-05
1.760380190095047510e+03 1.362192902777781375e-05
1.761280640320160046e+03 1.355356687959419017e-05
1.762181090545272582e+03 1.348573091890973968e-05
1.763081540770385118e+03 1.341841558614566567e-05
1.763981990995497654e+03 1.335161539811638185e-05
1.764882441220610190e+03 1.328532494670267413e-05
1.765782891445722726e+03 1.321953889755360229e-05
1.766683341670835262e+03 1.315425198881675861e-05
1.767583791895947797e+03 1.308945902989414251e-05
1.768484242121060333e+03 1.302515490022671230e-05
1.769384692346173097e+03 1.296133454810259799e-05
1.770285142571285633e+03 1.289799298949156867e-05
1.771185592796398169e+03 1.283512530690386573e-05
1.772086043021510704e+03 1.277272664827182115e-05
1.772986493246623240e+03 1.271079222585631938e-05
1.773886943471735776e+03 1.264931731517443668e-05
1.774787393696848312e+03 1.258829725394978939e-05
1.775687843921960848e+03 1.252772744108441218e-05
1.776588294147073384e+03 1.246760333565121396e-05
1.777488744372185920e+03 1.240792045590744716e-05
1.778389194597298456e+03 1.234867437832723514e-05
1.779289644822411219e+03 1.228986073665468927e-05
1.780190095047523755e+03 1.223147522097492054e-05
1.781090545272636291e+03 1.217351357680408892e-05
1.781990995497748827e+03 1.211597160419786566e-05
1.782891445722861363e+03 1.205884515687657022e-05
1.783791895947973899e+03 1.200213014136842863e-05
1.784692346173086435e+03 1.194582251616887463e-05
1.785592796398198971e+03 1.188991829091707785e-05
1.786493246623311506e+03 1.183441352558779298e-05
1.787393696848424042e+03 1.177930432969918246e-05
1.788294147073536578e+03 1.172458686153557219e-05
1.789194597298649342e+03 1.167025732738546076e-05
1.790095047523761878e+03 1.161631198079447530e-05
1.790995497748874413e+03 1.156274712183135479e-05
1.791895947973986949e+03 1.150955909636897322e-05
1.792796398199099485e+03 1.145674429537837152e-05
1.793696848424212021e+03 1.140429915423636065e-05
1.794597298649324557e+03 1.135222015204611138e-05
1.795497748874437093e+03 1.130050381096997015e-05
1.796398199099549629e+03 1.124914669557523795e-05
1.797298649324662165e+03 1.119814541219155859e-05
1.798199099549774701e+03 1.114749660828112936e-05
1.799099549774887464e+03 1.109719697181883898e-05
1.800000000000000000e+03 1.104724323068543112e-05
