0.000000000000000000e+00 1.867415086795111336e-03
9.004502251125562351e-01 2.504850765928558730e-03
1.800900450225112470e+00 3.361529438788358765e-03
2.701350675337668594e+00 4.343252599793291993e-03
3.601800900450224940e+00 5.077354320229815823e-03
4.502251125562780842e+00 5.092254741923773337e-03
5.402701350675337189e+00 4.391256709853244393e-03
6.303151575787893535e+00 3.425905145475984914e-03
7.203601800900449881e+00 2.563095039990974117e-03
8.104052026013006227e+00 1.912544175397945046e-03
9.004502251125561685e+00 1.449741582448065306e-03
9.904952476238118919e+00 1.122678692964168036e-03
1.080540270135067438e+01 8.881861059678294651e-04
1.170585292646323161e+01 7.166640894832900215e-04
1.260630315157578707e+01 5.886374094847145102e-04
1.350675337668834430e+01 4.911821463931150249e-04
1.440720360180089976e+01 4.156148579743649705e-04
1.530765382691345522e+01 3.560225217297519583e-04
1.620810405202601245e+01 3.083197670826724334e-04
1.710855427713856969e+01 2.696492011297799379e-04
1.800900450225112337e+01 2.379760687750246155e-04
1.890945472736368060e+01 2.117979687328897821e-04
1.980990495247623784e+01 1.899048132916073895e-04
2.071035517758879507e+01 1.712034853311253390e-04
2.161080540270134875e+01 1.548248405880777074e-04
2.251125562781390599e+01 1.403695498648831425e-04
2.341170585292646322e+01 1.277218744860722792e-04
2.431215607803901690e+01 1.167303708169087161e-04
2.521260630315157414e+01 1.071760913041981754e-04
2.611305652826413137e+01 9.884368966923231571e-05
2.701350675337668861e+01 9.155252901046456422e-05
2.791395697848924229e+01 8.514967426143324751e-05
2.881440720360179952e+01 7.947967260549875196e-05
2.971485742871435676e+01 7.436425780417432480e-05
3.061530765382691044e+01 6.965071034083165956e-05
3.151575787893946767e+01 6.528634013131391330e-05
3.241620810405202491e+01 6.130553642689461340e-05
3.331665832916458214e+01 5.773948656410047675e-05
3.421710855427713938e+01 5.456717245019031195e-05
3.511755877938969661e+01 5.171638414170598420e-05
3.601800900450224674e+01 4.907940396674177378e-05
3.691845922961480397e+01 4.657676526746249996e-05
3.781890945472736121e+01 4.422733581032630519e-05
3.871935967983991844e+01 4.209759349035489053e-05
3.961980990495247568e+01 4.021404099627529495e-05
4.052026013006503291e+01 3.854132982766432167e-05
4.142071035517759015e+01 3.697842367696340998e-05
4.232116058029014027e+01 3.540709408831062385e-05
4.322161080540269751e+01 3.382468289210335252e-05
4.412206103051525474e+01 3.233004951327473681e-05
4.502251125562781198e+01 3.097720927189868409e-05
4.592296148074036921e+01 2.974414888925512395e-05
4.682341170585292645e+01 2.860107667689713425e-05
4.772386193096548368e+01 2.756363184058838140e-05
4.862431215607803381e+01 2.666383096500105453e-05
4.952476238119059104e+01 2.591590913859324687e-05
5.042521260630314828e+01 2.531033245015364196e-05
5.132566283141570551e+01 2.481609638353591562e-05
5.222611305652826275e+01 2.438998093909112449e-05
5.312656328164081998e+01 2.399031623895999190e-05
5.402701350675337721e+01 2.359176229483779248e-05
5.492746373186592734e+01 2.312189314049571901e-05
5.582791395697848458e+01 2.248019823056390633e-05
5.672836418209104181e+01 2.173304685613441719e-05
5.762881440720359905e+01 2.107017786952116451e-05
5.852926463231615628e+01 2.059859203767630439e-05
5.942971485742871351e+01 2.030525364589524828e-05
6.033016508254127075e+01 2.011527308210938489e-05
6.123061530765382088e+01 1.994403403927916119e-05
6.213106553276637811e+01 1.964694799262131425e-05
6.303151575787893535e+01 1.906565979642986129e-05
6.393196598299149258e+01 1.824871661971128037e-05
6.483241620810404982e+01 1.737134998497824096e-05
6.573286643321659994e+01 1.654029795146550616e-05
6.663331665832916428e+01 1.582459264698236835e-05
6.753376688344171441e+01 1.526599330900271157e-05
6.843421710855427875e+01 1.487164790958983233e-05
6.933466733366682888e+01 1.463865343582491172e-05
7.023511755877939322e+01 1.456636940348889986e-05
7.113556778389194335e+01 1.464120475498115277e-05
7.203601800900449348e+01 1.480947055275629894e-05
7.293646823411705782e+01 1.499850974985077869e-05
7.383691845922960795e+01 1.515925545306819541e-05
7.473736868434217229e+01 1.518004184576568856e-05
7.563781890945472242e+01 1.490694557129661038e-05
7.653826913456728676e+01 1.438940795596487300e-05
7.743871935967983688e+01 1.384917627981231172e-05
7.833916958479238701e+01 1.344276650233545903e-05
7.923961980990495135e+01 1.318756396618046005e-05
8.014007003501750148e+01 1.300025580163549487e-05
8.104052026013006582e+01 1.278524153727606944e-05
8.194097048524261595e+01 1.250763156515384527e-05
8.284142071035518029e+01 1.217632685971100276e-05
8.374187093546773042e+01 1.181623354527325587e-05
8.464232116058028055e+01 1.149662431848495737e-05
8.554277138569284489e+01 1.130505992005238207e-05
8.644322161080539502e+01 1.129080837592090180e-05
8.734367183591795936e+01 1.144833955471256165e-05
8.824412206103050949e+01 1.169719947838871063e-05
8.914457228614307382e+01 1.186631252510849710e-05
9.004502251125562395e+01 1.181241672851980325e-05
9.094547273636817408e+01 1.153352315467370514e-05
9.184592296148073842e+01 1.112767387081757618e-05
9.274637318659328855e+01 1.074020266470384163e-05
9.364682341170585289e+01 1.045897138251308247e-05
9.454727363681840302e+01 1.024576535163816776e-05
9.544772386193096736e+01 1.001137746806739543e-05
9.634817408704351749e+01 9.736570018157368093e-06
9.724862431215606762e+01 9.473139145450187846e-06
9.814907453726863196e+01 9.283157404569400507e-06
9.904952476238118209e+01 9.217994208744391020e-06
9.994997498749374643e+01 9.307425290395896501e-06
1.008504252126062966e+02 9.547254432743728736e-06
1.017508754377188609e+02 9.894366900789337591e-06
1.026513256628314110e+02 1.027650525618074180e-05
1.035517758879439612e+02 1.062415840545535523e-05
1.044522261130565255e+02 1.088035615785437602e-05
1.053526763381690756e+02 1.102874209530534340e-05
1.062531265632816400e+02 1.113763953875571597e-05
1.071535767883941901e+02 1.127776399375427774e-05
1.080540270135067544e+02 1.140994475317158753e-05
1.089544772386193046e+02 1.138960288504959755e-05
1.098549274637318547e+02 1.108439390162719648e-05
1.107553776888444190e+02 1.050696014809971125e-05
1.116558279139569692e+02 9.831065356893397726e-06
1.125562781390695335e+02 9.246125108648641208e-06
1.134567283641820836e+02 8.839669738452962262e-06
1.143571785892946480e+02 8.595875887469920780e-06
1.152576288144071981e+02 8.431424359411789540e-06
1.161580790395197482e+02 8.260753453050014109e-06
1.170585292646323126e+02 8.079509143353296726e-06
1.179589794897448627e+02 7.923886173204150384e-06
1.188594297148574270e+02 7.783896561685473104e-06
1.197598799399699772e+02 7.647216930407081946e-06
1.206603301650825415e+02 7.544391763328503951e-06
1.215607803901950916e+02 7.501473827190867985e-06
1.224612306153076418e+02 7.523590486415428853e-06
1.233616808404202061e+02 7.617972109999416817e-06
1.242621310655327562e+02 7.795209784666369551e-06
1.251625812906453206e+02 8.038596896497157690e-06
1.260630315157578707e+02 8.298692261629007978e-06
1.269634817408704350e+02 8.536057487946912474e-06
1.278639319659829852e+02 8.746319994143406822e-06
1.287643821910955353e+02 8.896288827467048967e-06
1.296648324162080996e+02 8.915374455493222619e-06
1.305652826413206640e+02 8.818399638216844552e-06
1.314657328664331999e+02 8.723924697218052261e-06
1.323661830915457642e+02 8.718552419316111989e-06
1.332666333166583286e+02 8.786109122756156784e-06
1.341670835417708929e+02 8.889833751887458578e-06
1.350675337668834288e+02 9.036844307235770271e-06
1.359679839919959932e+02 9.219005567121722582e-06
1.368684342171085575e+02 9.393283954273966399e-06
1.377688844422210934e+02 9.524424772867395086e-06
1.386693346673336578e+02 9.641568222696918664e-06
1.395697848924462221e+02 9.810210702195214594e-06
1.404702351175587864e+02 1.004290872132420842e-05
1.413706853426713224e+02 1.033631286112487934e-05
1.422711355677838867e+02 1.070272319901974690e-05
1.431715857928964510e+02 1.108866648860266967e-05
1.440720360180089870e+02 1.135768840323812900e-05
1.449724862431215513e+02 1.134729894517821622e-05
1.458729364682341156e+02 1.100771070395711933e-05
1.467733866933466800e+02 1.053023846470020675e-05
1.476738369184592159e+02 1.013989822281537319e-05
1.485742871435717802e+02 9.859686727503399773e-06
1.494747373686843446e+02 9.582779304438494836e-06
1.503751875937968805e+02 9.280338847163136743e-06
1.512756378189094448e+02 9.035926381381131841e-06
1.521760880440220092e+02 8.899856217243466925e-06
1.530765382691345735e+02 8.860811855523281977e-06
1.539769884942471094e+02 8.899298319911841143e-06
1.548774387193596738e+02 8.986035437770395663e-06
1.557778889444722381e+02 9.059392671808201802e-06
1.566783391695847740e+02 9.105683769461400665e-06
1.575787893946973384e+02 9.201412394423545663e-06
1.584792396198099027e+02 9.413788899893053142e-06
1.593796898449224670e+02 9.724357724943429507e-06
1.602801400700350030e+02 1.005998543135021638e-05
1.611805902951475673e+02 1.035632151004612068e-05
1.620810405202601316e+02 1.057731051541168815e-05
1.629814907453726676e+02 1.069959002019631579e-05
1.638819409704852319e+02 1.067113452779060508e-05
1.647823911955977962e+02 1.049149554894646000e-05
1.656828414207103606e+02 1.026726778784055407e-05
1.665832916458228965e+02 1.010664723111205637e-05
1.674837418709354608e+02 1.002512422811245311e-05
1.683841920960480252e+02 9.977753391641533873e-06
1.692846423211605611e+02 9.931693453733521210e-06
1.701850925462731254e+02 9.881900041006897212e-06
1.710855427713856898e+02 9.830777756047467893e-06
1.719859929964982541e+02 9.761872996049504375e-06
1.728864432216107900e+02 9.720426424324035274e-06
1.737868934467233544e+02 9.808573432819460932e-06
1.746873436718359187e+02 9.997961041213299259e-06
1.755877938969484546e+02 1.013847822929863344e-05
1.764882441220610190e+02 1.014008902699480750e-05
1.773886943471735833e+02 1.000600030269147284e-05
1.782891445722861476e+02 9.784384870098210334e-06
1.791895947973986836e+02 9.555959518176077369e-06
1.800900450225112479e+02 9.374420807693477063e-06
1.809904952476238122e+02 9.247766857848416309e-06
1.818909454727363482e+02 9.177547436332576824e-06
1.827913956978489125e+02 9.168680325390023603e-06
1.836918459229614768e+02 9.231422760716654049e-06
1.845922961480740412e+02 9.355474590251129158e-06
1.854927463731865771e+02 9.498958370742629779e-06
1.863931965982991414e+02 9.611231286130630027e-06
1.872936468234117058e+02 9.645680631475877904e-06
1.881940970485242417e+02 9.606150911122554600e-06
1.890945472736368060e+02 9.581085792111469293e-06
1.899949974987493704e+02 9.651505705760265105e-06
1.908954477238619347e+02 9.810757701877912304e-06
1.917958979489744706e+02 1.004479658241939189e-05
1.926963481740870350e+02 1.039069370422974278e-05
1.935967983991995993e+02 1.085158600376869484e-05
1.944972486243121352e+02 1.135553219381465443e-05
1.953976988494246996e+02 1.182261233810887822e-05
1.962981490745372639e+02 1.218370142296828846e-05
1.971985992996498283e+02 1.242267825691482564e-05
1.980990495247623642e+02 1.260350234874131069e-05
1.989994997498749285e+02 1.279385382051468285e-05
1.998999499749874929e+02 1.301276811179041832e-05
2.008004002001000288e+02 1.323309073599904692e-05
2.017008504252125931e+02 1.342695791957608391e-05
2.026013006503251574e+02 1.361958053921597120e-05
2.035017508754377218e+02 1.384641145193055657e-05
2.044022011005502577e+02 1.410138729857286922e-05
2.053026513256628220e+02 1.430506731219276401e-05
2.062031015507753864e+02 1.436856867261957392e-05
2.071035517758879223e+02 1.428554435310225309e-05
2.080040020010004866e+02 1.408887747868280824e-05
2.089044522261130510e+02 1.386610197346551698e-05
2.098049024512256153e+02 1.378639362542979543e-05
2.107053526763381512e+02 1.398744172063997812e-05
2.116058029014507156e+02 1.445243814768909296e-05
2.125062531265632799e+02 1.504747313088557810e-05
2.134067033516758158e+02 1.559453329644406382e-05
2.143071535767883802e+02 1.590178776912058525e-05
2.152076038019009445e+02 1.590895386532196516e-05
2.161080540270135089e+02 1.567585892158505209e-05
2.170085042521260448e+02 1.530473701225043142e-05
2.179089544772386091e+02 1.493782917541081860e-05
2.188094047023511735e+02 1.470571939741271641e-05
2.197098549274637094e+02 1.464451530370356448e-05
2.206103051525762737e+02 1.468094219145248729e-05
2.215107553776888381e+02 1.475254722656196718e-05
2.224112056028014024e+02 1.484700310569825843e-05
2.233116558279139383e+02 1.493894729783913285e-05
2.242121060530265027e+02 1.498137157965336285e-05
2.251125562781390670e+02 1.497408308887147745e-05
2.260130065032516029e+02 1.500578948912081640e-05
2.269134567283641672e+02 1.511152653446299581e-05
2.278139069534767316e+02 1.522210989956737648e-05
2.287143571785892959e+02 1.528247708269844419e-05
2.296148074037018318e+02 1.531655264203470799e-05
2.305152576288143962e+02 1.537950455854470794e-05
2.314157078539269605e+02 1.550124423168526994e-05
2.323161580790394964e+02 1.568843111055935344e-05
2.332166083041520608e+02 1.590399586860680037e-05
2.341170585292646251e+02 1.608996532758410144e-05
2.350175087543771895e+02 1.625993214611531199e-05
2.359179589794897254e+02 1.643813684727460866e-05
2.368184092046022897e+02 1.654873855120758176e-05
2.377188594297148541e+02 1.647382759995193416e-05
2.386193096548273900e+02 1.615750450819055249e-05
2.395197598799399543e+02 1.571617775302647704e-05
2.404202101050525187e+02 1.535728993836018132e-05
2.413206603301650830e+02 1.518226531223736388e-05
2.422211105552776189e+02 1.513155557678699853e-05
2.431215607803901833e+02 1.508619642548910533e-05
2.440220110055027476e+02 1.506229730911535833e-05
2.449224612306152835e+02 1.515362402730700971e-05
2.458229114557278479e+02 1.532041719889671547e-05
2.467233616808404122e+02 1.542430628532101924e-05
2.476238119059529765e+02 1.547072183483094458e-05
2.485242621310655124e+02 1.559722371207534016e-05
2.494247123561780768e+02 1.584122244268513100e-05
2.503251625812906411e+02 1.613615202673886686e-05
2.512256128064031770e+02 1.638619139869219559e-05
2.521260630315157414e+02 1.648578299838800222e-05
2.530265132566283057e+02 1.637617231855146056e-05
2.539269634817408701e+02 1.610915675060792390e-05
2.548274137068534060e+02 1.584277194364583778e-05
2.557278639319659703e+02 1.568142529909893502e-05
2.566283141570785347e+02 1.558178232043913478e-05
2.575287643821910706e+02 1.549496619166355942e-05
2.584292146073036633e+02 1.541670883295741742e-05
2.593296648324161993e+02 1.531527976209120067e-05
2.602301150575287352e+02 1.517882125366149733e-05
2.611305652826413279e+02 1.509784409181805474e-05
2.620310155077538639e+02 1.510499818243415752e-05
2.629314657328663998e+02 1.513019474721578260e-05
2.638319159579789925e+02 1.518283565191823408e-05
2.647323661830915285e+02 1.533086987685874363e-05
2.656328164082040644e+02 1.553401339739301487e-05
2.665332666333166571e+02 1.570687854234146079e-05
2.674337168584291931e+02 1.588062002048883567e-05
2.683341670835417858e+02 1.617699473884330732e-05
2.692346173086543217e+02 1.662838718524686045e-05
2.701350675337668577e+02 1.708471087375893055e-05
2.710355177588794504e+02 1.736391711208894875e-05
2.719359679839919863e+02 1.742564635919488598e-05
2.728364182091045222e+02 1.730454637757045813e-05
2.737368684342171150e+02 1.699623037733846714e-05
2.746373186593296509e+02 1.652612394389762302e-05
2.755377688844421868e+02 1.598823344917780172e-05
2.764382191095547796e+02 1.554194929695748128e-05
2.773386693346673155e+02 1.535087330356674391e-05
2.782391195597798514e+02 1.547015782104549744e-05
2.791395697848924442e+02 1.578966565743153706e-05
2.800400200100049801e+02 1.609233763279204632e-05
2.809404702351175729e+02 1.621266323693005388e-05
2.818409204602301088e+02 1.615142108401509063e-05
2.827413706853426447e+02 1.596205619384457469e-05
2.836418209104552375e+02 1.568870366522182044e-05
2.845422711355677734e+02 1.543893418369280489e-05
2.854427213606803093e+02 1.528221175545999263e-05
2.863431715857929021e+02 1.514412527972312504e-05
2.872436218109054380e+02 1.493517476895375795e-05
2.881440720360179739e+02 1.466736808060933750e-05
2.890445222611305667e+02 1.441574871916509701e-05
2.899449724862431026e+02 1.420778268230715894e-05
2.908454227113556385e+02 1.404382280311133902e-05
2.917458729364682313e+02 1.399235442306767413e-05
2.926463231615807672e+02 1.414455718822324759e-05
2.935467733866933600e+02 1.450457874074149811e-05
2.944472236118058959e+02 1.495014568726479737e-05
2.953476738369184318e+02 1.530190660251418288e-05
2.962481240620310246e+02 1.545001161851695257e-05
2.971485742871435605e+02 1.544938222297449694e-05
2.980490245122560964e+02 1.544824360013522324e-05
2.989494747373686891e+02 1.554464411069018143e-05
2.998499249624812251e+02 1.574110779371854540e-05
3.007503751875937610e+02 1.595604952338448219e-05
3.016508254127063537e+02 1.607480151575012509e-05
3.025512756378188897e+02 1.597811622646362238e-05
3.034517258629314256e+02 1.565422755209152527e-05
3.043521760880440183e+02 1.524074940887634125e-05
3.052526263131565543e+02 1.489020256413692515e-05
3.061530765382691470e+02 1.467360301911918817e-05
3.070535267633816829e+02 1.458024563924688621e-05
3.079539769884942189e+02 1.462449936708120192e-05
3.088544272136068116e+02 1.485754975913223225e-05
3.097548774387193475e+02 1.521510345235227640e-05
3.106553276638318835e+02 1.552269556179947707e-05
3.115557778889444762e+02 1.568518150636830837e-05
3.124562281140570121e+02 1.572170686640103865e-05
3.133566783391695481e+02 1.566916475731428289e-05
3.142571285642821408e+02 1.557438951861549290e-05
3.151575787893946767e+02 1.548483737913855990e-05
3.160580290145072127e+02 1.542830470439874189e-05
3.169584792396198054e+02 1.540636563923100788e-05
3.178589294647323413e+02 1.543022743980642893e-05
3.187593796898449341e+02 1.555594147610013677e-05
3.196598299149574700e+02 1.581884149316616385e-05
3.205602801400700059e+02 1.617372082168758225e-05
3.214607303651825987e+02 1.650134486711043457e-05
3.223611805902951346e+02 1.669112791279504438e-05
3.232616308154076705e+02 1.675425329231019386e-05
3.241620810405202633e+02 1.676582464537313240e-05
3.250625312656327992e+02 1.676823957024185162e-05
3.259629814907453351e+02 1.673073890508484110e-05
3.268634317158579279e+02 1.659706617353964373e-05
3.277638819409704638e+02 1.634683287738568339e-05
3.286643321660829997e+02 1.603195830966414609e-05
3.295647823911955925e+02 1.576102805909211207e-05
3.304652326163081284e+02 1.561569146042126102e-05
3.313656828414207212e+02 1.557574258844381956e-05
3.322661330665332571e+02 1.554196783672860612e-05
3.331665832916457930e+02 1.544695448293497480e-05
3.340670335167583858e+02 1.532614984054066288e-05
3.349674837418709217e+02 1.524108246397552539e-05
3.358679339669834576e+02 1.520582102312808566e-05
3.367683841920960504e+02 1.521819480221439741e-05
3.376688344172085863e+02 1.528375848607564308e-05
3.385692846423211222e+02 1.536066385813382457e-05
3.394697348674337150e+02 1.540986254894178770e-05
3.403701850925462509e+02 1.546719030468204987e-05
3.412706353176587868e+02 1.558240519334752383e-05
3.421710855427713796e+02 1.576338893955741156e-05
3.430715357678839155e+02 1.601394685827188703e-05
3.439719859929965082e+02 1.634106446668047978e-05
3.448724362181090441e+02 1.673752076506549268e-05
3.457728864432215801e+02 1.721432336562632711e-05
3.466733366683341728e+02 1.775879153751084411e-05
3.475737868934467087e+02 1.827293044079287057e-05
3.484742371185592447e+02 1.868973004217492617e-05
3.493746873436718374e+02 1.906696573912600130e-05
3.502751375687843733e+02 1.944313996745307714e-05
3.511755877938969093e+02 1.974918620659225633e-05
3.520760380190095020e+02 1.982187090552773342e-05
3.529764882441220379e+02 1.956198725532682777e-05
3.538769384692345739e+02 1.907449815001225184e-05
3.547773886943471666e+02 1.852910416063247953e-05
3.556778389194597025e+02 1.804607794393669142e-05
3.565782891445722953e+02 1.772395127584290071e-05
3.574787393696848312e+02 1.760602072151298323e-05
3.583791895947973671e+02 1.768728669158287995e-05
3.592796398199099599e+02 1.793786494896433106e-05
3.601800900450224958e+02 1.827547144359175971e-05
3.610805402701350317e+02 1.864663154237759858e-05
3.619809904952476245e+02 1.906629120225179574e-05
3.628814407203601604e+02 1.950275464452046455e-05
3.637818909454726963e+02 1.984650404178946626e-05
3.646823411705852891e+02 1.996646804671472946e-05
3.655827913956978250e+02 1.974062423776778039e-05
3.664832416208103609e+02 1.918813950198239068e-05
3.673836918459229537e+02 1.851493428945998521e-05
3.682841420710354896e+02 1.795877269972689580e-05
3.691845922961480824e+02 1.763562726672317194e-05
3.700850425212606183e+02 1.750739823319846927e-05
3.709854927463731542e+02 1.745943869356648265e-05
3.718859429714857470e+02 1.740040142789071748e-05
3.727863931965982829e+02 1.734620079938180442e-05
3.736868434217108188e+02 1.740879578942023078e-05
3.745872936468234116e+02 1.764651800898121275e-05
3.754877438719359475e+02 1.797762504093708592e-05
3.763881940970484834e+02 1.825576474190401590e-05
3.772886443221610762e+02 1.843090327976380321e-05
3.781890945472736121e+02 1.859087498979603814e-05
3.790895447723861480e+02 1.882629396436966739e-05
3.799899949974987408e+02 1.914783731344037922e-05
3.808904452226112767e+02 1.949932042024087137e-05
3.817908954477238694e+02 1.979517903272893196e-05
3.826913456728364054e+02 1.996421920473268435e-05
3.835917958979489413e+02 1.998561014465654210e-05
3.844922461230615340e+02 1.992041156990926936e-05
3.853926963481740700e+02 1.989063852380822006e-05
3.862931465732866059e+02 2.002390653246262337e-05
3.871935967983991986e+02 2.034028318763220336e-05
3.880940470235117346e+02 2.068259591285292361e-05
3.889944972486242705e+02 2.089549678655934083e-05
3.898949474737368632e+02 2.101943275295666198e-05
3.907953976988493991e+02 2.117573629335417731e-05
3.916958479239619351e+02 2.139918474774715661e-05
3.925962981490745278e+02 2.162478257228064735e-05
3.934967483741870637e+02 2.174551063451748105e-05
3.943971985992996565e+02 2.175815126330310929e-05
3.952976488244121924e+02 2.172010965333680399e-05
3.961980990495247283e+02 2.163007485037449936e-05
3.970985492746373211e+02 2.150164202776420433e-05
3.979989994997498570e+02 2.138992217191672092e-05
3.988994497248623929e+02 2.133134738774540706e-05
3.997998999499749857e+02 2.129638692144482891e-05
4.007003501750875216e+02 2.122635495828592873e-05
4.016008004002000575e+02 2.117141953928155471e-05
4.025012506253126503e+02 2.127930557604399195e-05
4.034017008504251862e+02 2.160529541938332990e-05
4.043021510755377221e+02 2.200766528495792657e-05
4.052026013006503149e+02 2.230464703161865752e-05
4.061030515257628508e+02 2.247826817698854777e-05
4.070035017508754436e+02 2.261403575561344670e-05
4.079039519759879795e+02 2.275664293047937028e-05
4.088044022011005154e+02 2.291452359851781919e-05
4.097048524262131082e+02 2.311337052219203007e-05
4.106053026513256441e+02 2.332927437092456311e-05
4.115057528764381800e+02 2.345282338262991178e-05
4.124062031015507728e+02 2.343470522229791330e-05
4.133066533266633087e+02 2.333343556913756306e-05
4.142071035517758446e+02 2.322490921907129546e-05
4.151075537768884374e+02 2.313333358226753549e-05
4.160080040020009733e+02 2.304363412981077098e-05
4.169084542271135092e+02 2.292428919492004509e-05
4.178089044522261020e+02 2.275064864055035009e-05
4.187093546773386379e+02 2.254303603539955936e-05
4.196098049024512306e+02 2.235275580808037950e-05
4.205102551275637666e+02 2.224457204855552725e-05
4.214107053526763025e+02 2.225964041206599989e-05
4.223111555777888952e+02 2.236110821078733408e-05
4.232116058029014312e+02 2.244067077293138599e-05
4.241120560280139671e+02 2.242833114131417071e-05
4.250125062531265598e+02 2.238752253102168071e-05
4.259129564782390958e+02 2.239023992553340061e-05
4.268134067033516317e+02 2.243100145343232405e-05
4.277138569284642244e+02 2.248925318196200271e-05
4.286143071535767604e+02 2.255700984418322922e-05
4.295147573786892963e+02 2.267980884222466087e-05
4.304152076038018890e+02 2.292862347734738482e-05
4.313156578289144250e+02 2.326132144342196929e-05
4.322161080540270177e+02 2.358231519066029329e-05
4.331165582791395536e+02 2.390967295121279818e-05
4.340170085042520896e+02 2.425867445406247144e-05
4.349174587293646823e+02 2.457071806987382235e-05
4.358179089544772182e+02 2.481623946237598510e-05
4.367183591795897541e+02 2.499480643963029937e-05
4.376188094047023469e+02 2.506001263806118467e-05
4.385192596298148828e+02 2.490396443805766672e-05
4.394197098549274187e+02 2.452321301025522931e-05
4.403201600800400115e+02 2.406343594076604326e-05
4.412206103051525474e+02 2.366427601820668937e-05
4.421210605302650833e+02 2.345959256173710527e-05
4.430215107553776761e+02 2.356466200190385319e-05
4.439219609804902120e+02 2.403395900732298112e-05
4.448224112056028048e+02 2.483897237400295324e-05
4.457228614307153407e+02 2.580334982001094093e-05
4.466233116558278766e+02 2.661614066836574008e-05
4.475237618809404694e+02 2.702037454530954055e-05
4.484242121060530053e+02 2.706261440214561114e-05
4.493246623311655412e+02 2.708405566388435683e-05
4.502251125562781340e+02 2.742161454188566218e-05
4.511255627813906699e+02 2.812992827600774558e-05
4.520260130065032058e+02 2.892732106060670234e-05
4.529264632316157986e+02 2.949288294254022945e-05
4.538269134567283345e+02 2.982789830203632023e-05
4.547273636818408704e+02 3.019621465898419157e-05
4.556278139069534632e+02 3.076104392322525835e-05
4.565282641320659991e+02 3.138274606304840893e-05
4.574287143571785919e+02 3.183214406037409959e-05
4.583291645822911278e+02 3.204050371290964480e-05
4.592296148074036637e+02 3.212666161760561524e-05
4.601300650325162565e+02 3.231360459444622418e-05
4.610305152576287924e+02 3.264069079915689006e-05
4.619309654827413283e+02 3.288455353623097002e-05
4.628314157078539210e+02 3.284342561466677124e-05
4.637318659329664570e+02 3.250023842062997668e-05
4.646323161580789929e+02 3.200209144821468567e-05
4.655327663831915856e+02 3.152828375520339612e-05
4.664332166083041216e+02 3.115690142619838580e-05
4.673336668334167143e+02 3.085805784878949462e-05
4.682341170585292502e+02 3.062506138582622397e-05
4.691345672836417862e+02 3.051953736075039642e-05
4.700350175087543789e+02 3.061405538463274762e-05
4.709354677338669148e+02 3.090597030587203013e-05
4.718359179589794508e+02 3.128997223880126494e-05
4.727363681840920435e+02 3.163788539226873337e-05
4.736368184092045794e+02 3.194098955524130609e-05
4.745372686343171154e+02 3.233372494465291583e-05
4.754377188594297081e+02 3.282732704976640145e-05
4.763381690845422440e+02 3.328633617101769889e-05
4.772386193096547800e+02 3.366190670382297956e-05
4.781390695347673727e+02 3.394215007343729399e-05
4.790395197598799086e+02 3.413702933108996089e-05
4.799399699849925014e+02 3.434311541698297740e-05
4.808404202101050373e+02 3.459620457496007280e-05
4.817408704352175732e+02 3.480700073843001548e-05
4.826413206603301660e+02 3.481671321817350558e-05
4.835417708854427019e+02 3.457117748720137324e-05
4.844422211105552378e+02 3.426671804157054507e-05
4.853426713356678306e+02 3.424963992461105321e-05
4.862431215607803665e+02 3.464145255537610403e-05
4.871435717858929024e+02 3.513293963349435259e-05
4.880440220110054952e+02 3.533003230265871231e-05
4.889444722361180311e+02 3.519022529955686336e-05
4.898449224612305670e+02 3.498088602515651006e-05
4.907453726863431598e+02 3.498263118981522244e-05
4.916458229114556957e+02 3.528604997276220282e-05
4.925462731365682885e+02 3.578389819572337042e-05
4.934467233616808244e+02 3.631168665233332551e-05
4.943471735867933603e+02 3.679169840501550205e-05
4.952476238119059531e+02 3.727938602370622543e-05
4.961480740370184890e+02 3.784887124413642708e-05
4.970485242621310249e+02 3.840793303705378723e-05
4.979489744872436177e+02 3.875299339765593499e-05
4.988494247123561536e+02 3.878612599664081877e-05
4.997498749374686895e+02 3.857666108440898072e-05
5.006503251625812823e+02 3.822441175413789143e-05
5.015507753876938182e+02 3.777322757384767103e-05
5.024512256128063541e+02 3.726926096884498885e-05
5.033516758379189469e+02 3.685390667943952946e-05
5.042521260630314828e+02 3.667773355599014278e-05
5.051525762881440755e+02 3.667168414742016149e-05
5.060530265132566115e+02 3.666382361999329667e-05
5.069534767383691474e+02 3.669562661287362914e-05
5.078539269634817401e+02 3.689568877159643046e-05
5.087543771885942760e+02 3.723102917737385162e-05
5.096548274137068120e+02 3.760604098145447545e-05
5.105552776388194047e+02 3.802896857826503299e-05
5.114557278639319406e+02 3.855206035514793518e-05
5.123561780890445334e+02 3.910627564959467001e-05
5.132566283141570693e+02 3.958273791126615688e-05
5.141570785392696052e+02 3.991339376593014285e-05
5.150575287643821412e+02 4.007888345256046793e-05
5.159579789894946771e+02 4.015201868788770832e-05
5.168584292146073267e+02 4.025051207004066967e-05
5.177588794397198626e+02 4.047067252075691514e-05
5.186593296648323985e+02 4.076486806495722786e-05
5.195597798899449344e+02 4.102417758607930428e-05
5.204602301150574704e+02 4.123572639765759457e-05
5.213606803401700063e+02 4.145038607302698667e-05
5.222611305652826559e+02 4.174638644047378762e-05
5.231615807903951918e+02 4.224536959925225145e-05
5.240620310155077277e+02 4.298832164344818587e-05
5.249624812406202636e+02 4.387039147610485434e-05
5.258629314657327996e+02 4.475323386418799429e-05
5.267633816908454492e+02 4.549201811756233878e-05
5.276638319159579851e+02 4.596091227163636654e-05
5.285642821410705210e+02 4.612079764960939367e-05
5.294647323661830569e+02 4.607158812490058663e-05
5.303651825912955928e+02 4.605907242799998599e-05
5.312656328164081287e+02 4.632753801957900105e-05
5.321660830415207784e+02 4.693745765277341993e-05
5.330665332666333143e+02 4.774903519498139621e-05
5.339669834917458502e+02 4.854581110092601740e-05
5.348674337168583861e+02 4.923194698429074462e-05
5.357678839419709220e+02 4.988954657205907947e-05
5.366683341670835716e+02 5.065012655992815084e-05
5.375687843921961075e+02 5.162088701067902902e-05
5.384692346173086435e+02 5.283390484184127909e-05
5.393696848424211794e+02 5.422956764561361802e-05
5.402701350675337153e+02 5.568397162078724677e-05
5.411705852926462512e+02 5.698967894781044113e-05
5.420710355177589008e+02 5.796410080629060444e-05
5.429714857428714367e+02 5.867416931523312669e-05
5.438719359679839727e+02 5.933313901535401327e-05
5.447723861930965086e+02 6.009826576198592433e-05
5.456728364182090445e+02 6.095946224442945033e-05
5.465732866433215804e+02 6.176893009385894112e-05
5.474737368684342300e+02 6.249558708283233063e-05
5.483741870935467659e+02 6.322804730666364392e-05
5.492746373186593019e+02 6.397818260419321681e-05
5.501750875437718378e+02 6.472056929202852043e-05
5.510755377688843737e+02 6.547525612963431263e-05
5.519759879939970233e+02 6.625736396331150153e-05
5.528764382191095592e+02 6.710010924492687079e-05
5.537768884442220951e+02 6.808310803918373800e-05
5.546773386693346310e+02 6.927291458908125068e-05
5.555777888944471670e+02 7.061132481645619459e-05
5.564782391195597029e+02 7.183837860010951388e-05
5.573786893446723525e+02 7.277919779464752498e-05
5.582791395697848884e+02 7.347858099004442149e-05
5.591795897948974243e+02 7.411312435823982458e-05
5.600800400200099602e+02 7.480172139989274831e-05
5.609804902451224962e+02 7.545852168838760655e-05
5.618809404702351458e+02 7.600736574280386021e-05
5.627813906953476817e+02 7.650705039912838383e-05
5.636818409204602176e+02 7.694989171906650488e-05
5.645822911455727535e+02 7.721551166889849271e-05
5.654827413706852894e+02 7.719464410425942356e-05
5.663831915957978254e+02 7.698260488055809264e-05
5.672836418209104750e+02 7.691315762716789683e-05
5.681840920460230109e+02 7.707320647862485970e-05
5.690845422711355468e+02 7.716249929958651646e-05
5.699849924962480827e+02 7.701423952148948003e-05
5.708854427213606186e+02 7.681509116388994301e-05
5.717858929464731546e+02 7.686470831907154264e-05
5.726863431715858042e+02 7.731240234645306449e-05
5.735867933966983401e+02 7.822191838505724746e-05
5.744872436218108760e+02 7.956746447492406358e-05
5.753876938469234119e+02 8.095111709498615073e-05
5.762881440720359478e+02 8.183307614725199742e-05
5.771885942971485974e+02 8.210314466553765643e-05
5.780890445222611334e+02 8.196000398483434832e-05
5.789894947473736693e+02 8.164498371198284960e-05
5.798899449724862052e+02 8.131045200585020809e-05
5.807903951975987411e+02 8.101830247149555239e-05
5.816908454227112770e+02 8.083985028990385146e-05
5.825912956478239266e+02 8.073605754700503780e-05
5.834917458729364625e+02 8.056905400265188563e-05
5.843921960980489985e+02 8.034922305633232867e-05
5.852926463231615344e+02 8.012282505497739823e-05
5.861930965482740703e+02 7.987533539890673078e-05
5.870935467733867199e+02 7.971483573781963639e-05
5.879939969984992558e+02 7.960264526318838220e-05
5.888944472236117917e+02 7.935387381499134981e-05
5.897948974487243277e+02 7.903399918097342046e-05
5.906953476738368636e+02 7.887732883212073681e-05
5.915957978989493995e+02 7.902610263815161139e-05
5.924962481240620491e+02 7.944581395775062935e-05
5.933966983491745850e+02 7.987763593061131934e-05
5.942971485742871209e+02 7.985916475725405922e-05
5.951975987993996569e+02 7.908651424549297134e-05
5.960980490245121928e+02 7.779231150739246176e-05
5.969984992496247287e+02 7.648603081795311484e-05
5.978989494747373783e+02 7.549675260928309173e-05
5.987993996998499142e+02 7.509155085639991297e-05
5.996998499249624501e+02 7.531000414266245916e-05
6.006003001500749860e+02 7.572260855669958482e-05
6.015007503751875220e+02 7.605327785782515278e-05
6.024012006003001716e+02 7.638633341215603494e-05
6.033016508254127075e+02 7.675926829356774300e-05
6.042021010505252434e+02 7.723224096167439622e-05
6.051025512756377793e+02 7.785344784514156089e-05
6.060030015007503152e+02 7.854105247443666691e-05
6.069034517258628512e+02 7.919287877426229878e-05
6.078039019509755008e+02 7.973361358928684616e-05
6.087043521760880367e+02 8.024160676003387887e-05
6.096048024012005726e+02 8.078024526466291786e-05
6.105052526263131085e+02 8.117623829918249384e-05
6.114057028514256444e+02 8.114015517852333690e-05
6.123061530765382940e+02 8.052628720867765209e-05
6.132066033016508300e+02 7.962933947308850776e-05
6.141070535267633659e+02 7.904116426551617851e-05
6.150075037518759018e+02 7.899141279766748436e-05
6.159079539769884377e+02 7.923501096241295318e-05
6.168084042021009736e+02 7.957353552836756046e-05
6.177088544272136232e+02 8.004549308541899567e-05
6.186093046523261592e+02 8.070714825069435236e-05
6.195097548774386951e+02 8.144816851924450833e-05
6.204102051025512310e+02 8.205404139334096850e-05
6.213106553276637669e+02 8.241225025468975642e-05
6.222111055527763028e+02 8.267023737263374888e-05
6.231115557778889524e+02 8.302919423402778138e-05
6.240120060030014884e+02 8.342401307534869851e-05
6.249124562281140243e+02 8.366788592459403100e-05
6.258129064532265602e+02 8.346479107811695245e-05
6.267133566783390961e+02 8.244894998950389917e-05
6.276138069034517457e+02 8.081353824391257512e-05
6.285142571285642816e+02 7.933978740187257953e-05
6.294147073536768175e+02 7.853262798841941720e-05
6.303151575787893535e+02 7.826032951318634889e-05
6.312156078039018894e+02 7.813785144021219984e-05
6.321160580290144253e+02 7.783288634985596082e-05
6.330165082541270749e+02 7.719185611776491001e-05
6.339169584792396108e+02 7.629851118918727344e-05
6.348174087043521467e+02 7.529360040099243123e-05
6.357178589294646827e+02 7.439807538335567363e-05
6.366183091545772186e+02 7.384959838132165581e-05
6.375187593796898682e+02 7.365605441635735310e-05
6.384192096048024041e+02 7.367915918112566171e-05
6.393196598299149400e+02 7.375118756434338946e-05
6.402201100550274759e+02 7.372864857467369972e-05
6.411205602801400119e+02 7.364582685351209537e-05
6.420210105052525478e+02 7.379389431722531293e-05
6.429214607303651974e+02 7.444559445541099898e-05
6.438219109554777333e+02 7.558712793642074134e-05
6.447223611805902692e+02 7.694543717138560210e-05
6.456228114057028051e+02 7.822511939405763285e-05
6.465232616308153411e+02 7.933263781326050485e-05
6.474237118559278770e+02 8.012476445204119973e-05
6.483241620810405266e+02 8.022940404139662000e-05
6.492246123061530625e+02 7.947828654330786700e-05
6.501250625312655984e+02 7.809105009909142838e-05
6.510255127563781343e+02 7.654017247838066740e-05
6.519259629814906702e+02 7.532531733691628093e-05
6.528264132066033198e+02 7.460030885470850216e-05
6.537268634317158558e+02 7.421317777877737892e-05
6.546273136568283917e+02 7.397746614225618304e-05
6.555277638819409276e+02 7.379388046561800602e-05
6.564282141070534635e+02 7.365989341424382451e-05
6.573286643321659994e+02 7.356147604075951479e-05
6.582291145572786490e+02 7.335281885109191154e-05
6.591295647823911850e+02 7.300090425338838008e-05
6.600300150075037209e+02 7.251282548140262029e-05
6.609304652326162568e+02 7.182209159715438574e-05
6.618309154577287927e+02 7.100455407887288435e-05
6.627313656828414423e+02 7.021713377665023451e-05
6.636318159079539782e+02 6.963637363386730326e-05
6.645322661330665142e+02 6.946035549859323906e-05
6.654327163581790501e+02 6.966914142316483192e-05
6.663331665832915860e+02 6.988549971679592352e-05
6.672336168084041219e+02 6.984239654484566582e-05
6.681340670335167715e+02 6.966001187825008624e-05
6.690345172586293074e+02 6.948699446148582076e-05
6.699349674837418434e+02 6.927616163486543686e-05
6.708354177088543793e+02 6.897630411615439025e-05
6.717358679339669152e+02 6.868295237695085250e-05
6.726363181590794511e+02 6.862528478101718272e-05
6.735367683841921007e+02 6.896779848429454530e-05
6.744372186093046366e+02 6.959149598023107953e-05
6.753376688344171725e+02 7.029430027243980812e-05
6.762381190595297085e+02 7.083515878895620859e-05
6.771385692846422444e+02 7.080147176749964721e-05
6.780390195097548940e+02 7.001406132151588287e-05
6.789394697348674299e+02 6.861514790683171316e-05
6.798399199599799658e+02 6.681432794299680181e-05
6.807403701850925017e+02 6.494214975710778609e-05
6.816408204102050377e+02 6.346050844612583809e-05
6.825412706353175736e+02 6.263926919235030335e-05
6.834417208604302232e+02 6.230233309812318167e-05
6.843421710855427591e+02 6.209734062043827986e-05
6.852426213106552950e+02 6.182574588517442387e-05
6.861430715357678309e+02 6.132717786508624328e-05
6.870435217608803669e+02 6.056585232879817742e-05
6.879439719859930165e+02 5.989103617648959229e-05
6.888444222111055524e+02 5.970776921919140461e-05
6.897448724362180883e+02 6.001858529854383728e-05
6.906453226613306242e+02 6.048911016576551054e-05
6.915457728864431601e+02 6.080875111171285682e-05
6.924462231115556961e+02 6.081044824429526026e-05
6.933466733366683457e+02 6.054959395412344607e-05
6.942471235617808816e+02 6.017475346016685404e-05
6.951475737868934175e+02 5.964276822098566811e-05
6.960480240120059534e+02 5.898982213619459268e-05
6.969484742371184893e+02 5.847543206684703392e-05
6.978489244622311389e+02 5.824036058238965562e-05
6.987493746873436749e+02 5.812629076171594542e-05
6.996498249124562108e+02 5.795340578651776269e-05
7.005502751375687467e+02 5.777203841797451232e-05
7.014507253626812826e+02 5.754828350987277626e-05
7.023511755877938185e+02 5.707949019649376856e-05
7.032516258129064681e+02 5.625915785028468035e-05
7.041520760380190040e+02 5.515810472894687851e-05
7.050525262631315400e+02 5.394122004426068942e-05
7.059529764882440759e+02 5.280720228793297057e-05
7.068534267133566118e+02 5.188592767818469268e-05
7.077538769384691477e+02 5.113256128966445023e-05
7.086543271635817973e+02 5.044338560776784184e-05
7.095547773886943332e+02 4.984731595221787199e-05
7.104552276138068692e+02 4.950121970371721379e-05
7.113556778389194051e+02 4.953584216754748344e-05
7.122561280640319410e+02 4.982426639417265396e-05
7.131565782891445906e+02 4.997451075035620624e-05
7.140570285142571265e+02 4.966622280707197495e-05
7.149574787393696624e+02 4.885802831059503050e-05
7.158579289644821984e+02 4.777146709528609522e-05
7.167583791895947343e+02 4.668556115690873930e-05
7.176588294147072702e+02 4.574737827297369579e-05
7.185592796398199198e+02 4.501844651561770158e-05
7.194597298649324557e+02 4.452277066621825171e-05
7.203601800900449916e+02 4.427933558958016671e-05
7.212606303151575275e+02 4.433637357251877533e-05
7.221610805402700635e+02 4.459989475321802079e-05
7.230615307653827131e+02 4.486134293874275466e-05
7.239619809904952490e+02 4.495194239251031141e-05
7.248624312156077849e+02 4.480786446358413043e-05
7.257628814407203208e+02 4.444009973142158855e-05
7.266633316658328567e+02 4.390397020432853446e-05
7.275637818909453927e+02 4.336117227384818205e-05
7.284642321160580423e+02 4.295156812610143678e-05
7.293646823411705782e+02 4.272704009098061739e-05
7.302651325662831141e+02 4.260270899772020998e-05
7.311655827913956500e+02 4.238403256189116433e-05
7.320660330165081859e+02 4.196356080047161706e-05
7.329664832416207219e+02 4.141781317814060773e-05
7.338669334667333715e+02 4.088533035109918353e-05
7.347673836918459074e+02 4.041056926361405211e-05
7.356678339169584433e+02 3.996381197676488807e-05
7.365682841420709792e+02 3.955205206754333456e-05
7.374687343671835151e+02 3.927272121148162807e-05
7.383691845922961647e+02 3.911137835984667338e-05
7.392696348174087007e+02 3.884237241196900498e-05
7.401700850425212366e+02 3.832873011006048626e-05
7.410705352676337725e+02 3.768016856570051307e-05
7.419709854927463084e+02 3.709575618487545524e-05
7.428714357178588443e+02 3.677313675374222293e-05
7.437718859429714939e+02 3.679356920683916557e-05
7.446723361680840299e+02 3.700077253828116749e-05
7.455727863931965658e+02 3.714879210635741141e-05
7.464732366183091017e+02 3.710189737364270928e-05
7.473736868434216376e+02 3.688639845424706031e-05
7.482741370685342872e+02 3.666198066576848027e-05
7.491745872936468231e+02 3.655067849137993551e-05
7.500750375187593590e+02 3.644348711765169941e-05
7.509754877438718950e+02 3.620258679578762978e-05
7.518759379689844309e+02 3.585243550572241527e-05
7.527763881940969668e+02 3.539415314778868789e-05
7.536768384192096164e+02 3.477006376802706022e-05
7.545772886443221523e+02 3.405496729205883193e-05
7.554777388694346882e+02 3.340840884648272691e-05
7.563781890945472242e+02 3.292319721308407574e-05
7.572786393196597601e+02 3.268180810619909825e-05
7.581790895447722960e+02 3.270285133678547777e-05
7.590795397698849456e+02 3.290732753963320802e-05
7.599799899949974815e+02 3.317762370032821827e-05
7.608804402201100174e+02 3.336134699419537517e-05
7.617808904452225534e+02 3.335183446680011583e-05
7.626813406703350893e+02 3.315873122984541548e-05
7.635817908954477389e+02 3.285911341132433637e-05
7.644822411205602748e+02 3.252900101108300852e-05
7.653826913456728107e+02 3.223937010344335620e-05
7.662831415707853466e+02 3.210614286977757321e-05
7.671835917958978825e+02 3.221857846151272159e-05
7.680840420210104185e+02 3.249052039550343870e-05
7.689844922461230681e+02 3.266845249086292762e-05
7.698849424712356040e+02 3.251505798377008459e-05
7.707853926963481399e+02 3.201508716421748495e-05
7.716858429214606758e+02 3.139040920404298111e-05
7.725862931465732117e+02 3.083850519638340969e-05
7.734867433716858613e+02 3.039866044851599183e-05
7.743871935967983973e+02 3.009267116259052013e-05
7.752876438219109332e+02 2.990539836842621090e-05
7.761880940470234691e+02 2.974421319794944609e-05
7.770885442721360050e+02 2.959972051223886370e-05
7.779889944972485409e+02 2.955521516980453797e-05
7.788894447223611905e+02 2.966985005137705636e-05
7.797898949474737265e+02 2.993167984676272948e-05
7.806903451725862624e+02 3.024801642700236269e-05
7.815907953976987983e+02 3.050291337022053160e-05
7.824912456228113342e+02 3.067172433509338840e-05
7.833916958479238701e+02 3.078146812326950011e-05
7.842921460730365197e+02 3.082246367731831957e-05
7.851925962981490557e+02 3.076072417603186170e-05
7.860930465232615916e+02 3.063714613630949969e-05
7.869934967483741275e+02 3.054292233232155441e-05
7.878939469734866634e+02 3.052030351986256287e-05
7.887943971985993130e+02 3.061331215095325158e-05
7.896948474237118489e+02 3.079744351300848121e-05
7.905952976488243849e+02 3.092992760945020457e-05
7.914957478739369208e+02 3.088769679246964770e-05
7.923961980990494567e+02 3.064491806107450889e-05
7.932966483241619926e+02 3.024697192952811612e-05
7.941970985492746422e+02 2.980846728592500481e-05
7.950975487743871781e+02 2.954140372404390864e-05
7.959979989994997140e+02 2.962519502357423325e-05
7.968984492246122500e+02 3.004906153113512664e-05
7.977988994497247859e+02 3.054556993456037479e-05
7.986993496748374355e+02 3.075052936261484107e-05
7.995997998999499714e+02 3.055432612466747906e-05
8.005002501250625073e+02 3.010256510745507369e-05
8.014007003501750432e+02 2.952596430596090074e-05
8.023011505752875792e+02 2.895221525394133961e-05
8.032016008004001151e+02 2.853746609915003738e-05
8.041020510255127647e+02 2.838376966889948177e-05
8.050025012506253006e+02 2.851602019224319819e-05
8.059029514757378365e+02 2.888012962266490809e-05
8.068034017008503724e+02 2.933029591939244340e-05
8.077038519259629084e+02 2.975324194675508193e-05
8.086043021510754443e+02 3.010954038357391304e-05
8.095047523761880939e+02 3.029316948858836199e-05
8.104052026013006298e+02 3.019708079225741828e-05
8.113056528264131657e+02 2.985797968682964214e-05
8.122061030515257016e+02 2.941007932140335255e-05
8.131065532766382375e+02 2.901659772064498375e-05
8.140070035017508872e+02 2.875647202761490880e-05
8.149074537268634231e+02 2.852420659465866086e-05
8.158079039519759590e+02 2.823987473415876919e-05
8.167083541770884949e+02 2.798669260681548661e-05
8.176088044022010308e+02 2.779932565233409801e-05
8.185092546273135667e+02 2.756231545618591071e-05
8.194097048524262163e+02 2.722028277360505528e-05
8.203101550775387523e+02 2.686880706776122814e-05
8.212106053026512882e+02 2.665444948735467447e-05
8.221110555277638241e+02 2.669317984262893130e-05
8.230115057528763600e+02 2.694986320786704848e-05
8.239119559779890096e+02 2.728476282469761622e-05
8.248124062031015455e+02 2.759377206247503944e-05
8.257128564282140815e+02 2.788498771079401921e-05
8.266133066533266174e+02 2.827017380680468134e-05
8.275137568784391533e+02 2.880702982372064541e-05
8.284142071035516892e+02 2.941467123367148275e-05
8.293146573286643388e+02 2.996363668403996324e-05
8.302151075537768747e+02 3.038502582924402175e-05
8.311155577788894107e+02 3.063514529512487009e-05
8.320160080040019466e+02 3.063434511163547522e-05
8.329164582291144825e+02 3.036400379638628340e-05
8.338169084542270184e+02 2.997826717656014895e-05
8.347173586793396680e+02 2.970169409062001722e-05
8.356178089044522039e+02 2.965044728387370899e-05
8.365182591295647399e+02 2.985001848385610541e-05
8.374187093546772758e+02 3.021191114461981481e-05
8.383191595797898117e+02 3.054744273743693970e-05
8.392196098049024613e+02 3.073521260027273027e-05
8.401200600300149972e+02 3.086039289103464017e-05
8.410205102551275331e+02 3.107913581503451013e-05
8.419209604802400690e+02 3.144324279979639208e-05
8.428214107053526050e+02 3.190385691484900463e-05
8.437218609304651409e+02 3.231426054104073704e-05
8.446223111555777905e+02 3.249465780729218219e-05
8.455227613806903264e+02 3.250909252813472753e-05
8.464232116058028623e+02 3.269443281806397062e-05
8.473236618309153982e+02 3.322191404350634925e-05
8.482241120560279342e+02 3.385978124006316952e-05
8.491245622811405838e+02 3.423662141070434229e-05
8.500250125062531197e+02 3.424735393735076078e-05
8.509254627313656556e+02 3.400800964539802974e-05
8.518259129564781915e+02 3.364147158871193412e-05
8.527263631815907274e+02 3.317781843176703053e-05
8.536268134067032634e+02 3.265942167273250485e-05
8.545272636318159130e+02 3.223365305507140644e-05
8.554277138569284489e+02 3.201039993996434538e-05
8.563281640820409848e+02 3.202112738964240426e-05
8.572286143071535207e+02 3.231538550056096211e-05
8.581290645322660566e+02 3.296056298013435632e-05
8.590295147573785925e+02 3.396864947220763341e-05
8.599299649824912422e+02 3.516009039667488214e-05
8.608304152076037781e+02 3.616575867755758924e-05
8.617308654327163140e+02 3.671876055848208217e-05
8.626313156578288499e+02 3.686477801144710781e-05
8.635317658829413858e+02 3.680310762680030084e-05
8.644322161080540354e+02 3.670931007807856031e-05
8.653326663331665713e+02 3.664940727566244199e-05
8.662331165582791073e+02 3.664086487893114926e-05
8.671335667833916432e+02 3.673393533126780925e-05
8.680340170085041791e+02 3.697288549498005248e-05
8.689344672336167150e+02 3.729601098732324404e-05
8.698349174587293646e+02 3.760980587218099020e-05
8.707353676838419005e+02 3.794288556432340678e-05
8.716358179089544365e+02 3.838425000039872312e-05
8.725362681340669724e+02 3.889069190094715566e-05
8.734367183591795083e+02 3.924724845300856560e-05
8.743371685842921579e+02 3.934115910549621534e-05
8.752376188094046938e+02 3.932327676699665949e-05
8.761380690345172297e+02 3.938185570246353906e-05
8.770385192596297657e+02 3.951938138040512696e-05
8.779389694847423016e+02 3.962748589757781416e-05
8.788394197098548375e+02 3.959913486225063756e-05
8.797398699349674871e+02 3.938187945873333111e-05
8.806403201600800230e+02 3.906066624017930647e-05
8.815407703851925589e+02 3.872926346173758934e-05
8.824412206103050949e+02 3.842940865760769320e-05
8.833416708354176308e+02 3.821359071143740803e-05
8.842421210605301667e+02 3.804970561558252556e-05
8.851425712856428163e+02 3.791455660566585804e-05
8.860430215107553522e+02 3.797711100597220849e-05
8.869434717358678881e+02 3.840970318230896199e-05
8.878439219609804240e+02 3.922939013274402887e-05
8.887443721860929600e+02 4.032664368068546683e-05
8.896448224112056096e+02 4.153060455294816582e-05
8.905452726363181455e+02 4.262226827971929443e-05
8.914457228614306814e+02 4.346307490001004309e-05
8.923461730865432173e+02 4.405337283383183456e-05
8.932466233116557532e+02 4.426208952265199770e-05
8.941470735367682892e+02 4.401959213482116960e-05
8.950475237618809388e+02 4.367579885825966494e-05
8.959479739869934747e+02 4.364016552850231138e-05
8.968484242121060106e+02 4.402717871162831084e-05
8.977488744372185465e+02 4.476285108915827190e-05
8.986493246623310824e+02 4.573270165354161916e-05
8.995497748874437320e+02 4.683921298059163520e-05
9.004502251125562680e+02 4.802320914753901347e-05
9.013506753376688039e+02 4.921447632797952809e-05
9.022511255627813398e+02 5.028735432379799171e-05
9.031515757878938757e+02 5.120233241477489393e-05
9.040520260130064116e+02 5.198773545404661685e-05
9.049524762381190612e+02 5.268660817132933381e-05
9.058529264632315972e+02 5.335840645615112538e-05
9.067533766883441331e+02 5.393494170025906094e-05
9.076538269134566690e+02 5.419293338789652685e-05
9.085542771385692049e+02 5.412578842686890457e-05
9.094547273636817408e+02 5.402984173666327465e-05
9.103551775887943904e+02 5.413484509020114019e-05
9.112556278139069263e+02 5.438022504715300950e-05
9.121560780390194623e+02 5.468829091714558666e-05
9.130565282641319982e+02 5.530558148833293489e-05
9.139569784892445341e+02 5.643096572655969498e-05
9.148574287143571837e+02 5.777619066114898203e-05
9.157578789394697196e+02 5.885410789595594600e-05
9.166583291645822555e+02 5.947254958971672921e-05
9.175587793896947915e+02 5.985760563223675018e-05
9.184592296148073274e+02 6.031647611281166832e-05
9.193596798399198633e+02 6.089787624806062508e-05
9.202601300650325129e+02 6.164705407215417181e-05
9.211605802901450488e+02 6.263727530506337719e-05
9.220610305152575847e+02 6.386077200745049530e-05
9.229614807403701207e+02 6.524996221396877911e-05
9.238619309654826566e+02 6.659834466219036414e-05
9.247623811905953062e+02 6.775442714445679710e-05
9.256628314157078421e+02 6.888949727512394842e-05
9.265632816408203780e+02 7.009020879354879035e-05
9.274637318659329139e+02 7.112692102346834452e-05
9.283641820910454499e+02 7.197329281460642097e-05
9.292646323161579858e+02 7.284624208651707905e-05
9.301650825412706354e+02 7.392430004827300362e-05
9.310655327663831713e+02 7.535727525819812861e-05
9.319659829914957072e+02 7.707060572292115397e-05
9.328664332166082431e+02 7.880542460178475061e-05
9.337668834417207790e+02 8.021029173570538308e-05
9.346673336668334287e+02 8.105929432039171852e-05
9.355677838919459646e+02 8.144770386816664056e-05
9.364682341170585005e+02 8.164210429675649531e-05
9.373686843421710364e+02 8.188235738447909300e-05
9.382691345672835723e+02 8.243199272092942406e-05
9.391695847923961082e+02 8.358491186927536503e-05
9.400700350175087578e+02 8.529033744837313672e-05
9.409704852426212938e+02 8.715965608130280776e-05
9.418709354677338297e+02 8.903039072258844540e-05
9.427713856928463656e+02 9.119703157805398848e-05
9.436718359179589015e+02 9.390836136877729157e-05
9.445722861430714374e+02 9.679679172318227998e-05
9.454727363681840870e+02 9.928462486733510091e-05
9.463731865932966230e+02 1.012187771398221996e-04
9.472736368184091589e+02 1.027349970487133086e-04
9.481740870435216948e+02 1.039526370265058015e-04
9.490745372686342307e+02 1.048381269583261100e-04
9.499749874937468803e+02 1.053778914836904751e-04
9.508754377188594162e+02 1.055597949385017538e-04
9.517758879439719522e+02 1.054221149758328583e-04
9.526763381690844881e+02 1.051519182408595254e-04
9.535767883941970240e+02 1.048440201526143603e-04
9.544772386193095599e+02 1.047058803856104365e-04
9.553776888444222095e+02 1.052672058156152766e-04
9.562781390695347454e+02 1.067664623981205263e-04
9.571785892946472813e+02 1.087534527123726422e-04
9.580790395197598173e+02 1.106045121796477877e-04
9.589794897448723532e+02 1.122088002176702647e-04
9.598799399699850028e+02 1.138157355117381782e-04
9.607803901950975387e+02 1.155320045258945833e-04
9.616808404202100746e+02 1.170575037146732447e-04
9.625812906453226105e+02 1.179390534340702215e-04
9.634817408704351465e+02 1.181402341515552318e-04
9.643821910955476824e+02 1.181003635567961293e-04
9.652826413206603320e+02 1.180658877792643298e-04
9.661830915457728679e+02 1.178630307599786093e-04
9.670835417708854038e+02 1.175833460072571229e-04
9.679839919959979397e+02 1.176925353378141146e-04
9.688844422211104757e+02 1.185921974670998470e-04
9.697848924462230116e+02 1.203573980133426614e-04
9.706853426713356612e+02 1.227220809569619950e-04
9.715857928964481971e+02 1.252048130709357363e-04
9.724862431215607330e+02 1.273233536377931625e-04
9.733866933466732689e+02 1.289191003301364956e-04
9.742871435717858049e+02 1.305691267504987445e-04
9.751875937968984545e+02 1.331209927385132745e-04
9.760880440220109904e+02 1.365353962443381967e-04
9.769884942471235263e+02 1.400565865708639586e-04
9.778889444722360622e+02 1.433946542709638259e-04
9.787893946973485981e+02 1.468449053671593680e-04
9.796898449224611340e+02 1.508019179645864736e-04
9.805902951475737837e+02 1.554572277740425598e-04
9.814907453726863196e+02 1.606134876301071259e-04
9.823911955977988555e+02 1.657239422115828423e-04
9.832916458229113914e+02 1.700750159933582496e-04
9.841920960480239273e+02 1.734462829028484787e-04
9.850925462731365769e+02 1.759850118226105478e-04
9.859929964982491128e+02 1.778265747903722417e-04
9.868934467233616488e+02 1.792051676127257714e-04
9.877938969484741847e+02 1.804063241607456707e-04
9.886943471735867206e+02 1.814683658530794172e-04
9.895947973986992565e+02 1.820124845236462531e-04
9.904952476238119061e+02 1.816276155127688604e-04
9.913956978489244420e+02 1.805558351647328574e-04
9.922961480740369780e+02 1.798202848027939747e-04
9.931965982991495139e+02 1.806416526959161615e-04
9.940970485242620498e+02 1.838202579762576640e-04
9.949974987493745857e+02 1.890192512559397877e-04
9.958979489744872353e+02 1.948119165754192707e-04
9.967983991995997712e+02 1.996743275761069729e-04
9.976988494247123072e+02 2.032927387938841064e-04
9.985992996498248431e+02 2.062562241104546799e-04
9.994997498749373790e+02 2.086876747798350790e-04
1.000400200100050029e+03 2.104020840222601467e-04
1.001300650325162565e+03 2.117808453741923424e-04
1.002201100550275100e+03 2.134029958849415843e-04
1.003101550775387636e+03 2.152352944600991890e-04
1.004002001000500172e+03 2.173563021486814382e-04
1.004902451225612708e+03 2.204221712339951209e-04
1.005802901450725358e+03 2.247362491949066372e-04
1.006703351675837894e+03 2.302631933456846783e-04
1.007603801900950430e+03 2.363783848824884889e-04
1.008504252126062966e+03 2.416434788611359827e-04
1.009404702351175501e+03 2.453712418087544223e-04
1.010305152576288151e+03 2.481524318627872493e-04
1.011205602801400687e+03 2.507105377558869834e-04
1.012106053026513223e+03 2.534026176952536269e-04
1.013006503251625759e+03 2.560591670471941612e-04
1.013906953476738295e+03 2.582993667885843427e-04
1.014807403701850831e+03 2.602479474685867318e-04
1.015707853926963480e+03 2.625676993550589530e-04
1.016608304152076016e+03 2.664217283007248795e-04
1.017508754377188552e+03 2.733548519020928265e-04
1.018409204602301088e+03 2.837999768860796222e-04
1.019309654827413624e+03 2.963301214188302076e-04
1.020210105052526160e+03 3.092030494286438771e-04
1.021110555277638809e+03 3.217887370269994791e-04
1.022011005502751345e+03 3.339949957700551176e-04
1.022911455727863881e+03 3.457188657081226597e-04
1.023811905952976417e+03 3.564628073352608625e-04
1.024712356178089067e+03 3.659137103583198465e-04
1.025612806403201603e+03 3.752610742953506307e-04
1.026513256628314139e+03 3.855884206480425709e-04
1.027413706853426675e+03 3.962091226839556195e-04
1.028314157078539210e+03 4.059867466184870861e-04
1.029214607303651746e+03 4.148000012270903689e-04
1.030115057528764282e+03 4.234335864800444567e-04
1.031015507753876818e+03 4.328481261500795861e-04
1.031915957978989354e+03 4.431040808585692348e-04
1.032816408204101890e+03 4.536008903664032936e-04
1.033716858429214653e+03 4.642988571866220088e-04
1.034617308654327189e+03 4.751561438760595738e-04
1.035517758879439725e+03 4.854274567376405734e-04
1.036418209104552261e+03 4.948326235703563291e-04
1.037318659329664797e+03 5.044481442237893840e-04
1.038219109554777333e+03 5.155866870591320874e-04
1.039119559779889869e+03 5.287763990284239171e-04
1.040020010005002405e+03 5.439483619057931384e-04
1.040920460230114941e+03 5.603257674427296721e-04
1.041820910455227477e+03 5.766605662523854739e-04
1.042721360680340013e+03 5.915413582207510292e-04
1.043621810905452776e+03 6.042521503552909356e-04
1.044522261130565312e+03 6.152995410443504133e-04
1.045422711355677848e+03 6.244463474366531959e-04
1.046323161580790384e+03 6.306465665625712782e-04
1.047223611805902920e+03 6.339294492576791080e-04
1.048124062031015455e+03 6.361899502243816050e-04
1.049024512256127991e+03 6.398479818001260363e-04
1.049924962481240527e+03 6.458580368759325599e-04
1.050825412706353063e+03 6.543459084029913620e-04
1.051725862931465599e+03 6.652996909515392033e-04
1.052626313156578135e+03 6.771878072467841679e-04
1.053526763381690898e+03 6.880124853420229716e-04
1.054427213606803434e+03 6.968396226087456881e-04
1.055327663831915970e+03 7.030074738835149616e-04
1.056228114057028506e+03 7.068461069706651967e-04
1.057128564282141042e+03 7.090556099889100709e-04
1.058029014507253578e+03 7.098088058551762407e-04
1.058929464732366114e+03 7.092765404496660349e-04
1.059829914957478650e+03 7.083698451210778627e-04
1.060730365182591186e+03 7.070551439311517725e-04
1.061630815407703722e+03 7.045584908275424408e-04
1.062531265632816257e+03 7.019902176612812439e-04
1.063431715857929021e+03 7.021634797313314885e-04
1.064332166083041557e+03 7.080858728694851409e-04
1.065232616308154093e+03 7.207123557640073182e-04
1.066133066533266629e+03 7.367941691578295963e-04
1.067033516758379164e+03 7.518660194732006271e-04
1.067933966983491700e+03 7.621364940255201002e-04
1.068834417208604236e+03 7.659038727927291101e-04
1.069734867433716772e+03 7.636962648131422407e-04
1.070635317658829308e+03 7.551695587519658987e-04
1.071535767883941844e+03 7.400165046129584309e-04
1.072436218109054380e+03 7.220793064582210329e-04
1.073336668334167143e+03 7.071109731044485265e-04
1.074237118559279679e+03 6.962098015176374595e-04
1.075137568784392215e+03 6.869332108060458280e-04
1.076038019009504751e+03 6.794311295524612954e-04
1.076938469234617287e+03 6.760404613417562861e-04
1.077838919459729823e+03 6.773347460122029979e-04
1.078739369684842359e+03 6.813268405196536625e-04
1.079639819909954895e+03 6.856912591226765408e-04
1.080540270135067431e+03 6.894745142611806562e-04
1.081440720360179967e+03 6.918536366812290915e-04
1.082341170585292502e+03 6.912839956067349688e-04
1.083241620810405038e+03 6.889486933676496365e-04
1.084142071035517802e+03 6.877066551920864084e-04
1.085042521260630338e+03 6.863498370551278458e-04
1.085942971485742873e+03 6.816909112386767330e-04
1.086843421710855409e+03 6.741463671209970473e-04
1.087743871935967945e+03 6.656468701876916416e-04
1.088644322161080481e+03 6.575085884757950107e-04
1.089544772386193017e+03 6.511014817294745200e-04
1.090445222611305553e+03 6.481774641073892364e-04
1.091345672836418089e+03 6.481400103965879534e-04
1.092246123061530625e+03 6.466036080439203785e-04
1.093146573286643161e+03 6.389338219080529591e-04
1.094047023511755924e+03 6.243793451563522771e-04
1.094947473736868460e+03 6.064279102855518917e-04
1.095847923961980996e+03 5.886254781083631853e-04
1.096748374187093532e+03 5.728588314838333742e-04
1.097648824412206068e+03 5.596742981485227112e-04
1.098549274637318604e+03 5.492493721564846920e-04
1.099449724862431140e+03 5.417323451878025596e-04
1.100350175087543676e+03 5.361276784722429720e-04
1.101250625312656211e+03 5.312859218182519865e-04
1.102151075537768747e+03 5.268022884919805644e-04
1.103051525762881283e+03 5.209392035743650416e-04
1.103951975987994047e+03 5.116107025935959490e-04
1.104852426213106583e+03 4.990888668236557850e-04
1.105752876438219118e+03 4.844456113159897599e-04
1.106653326663331654e+03 4.660268148673987363e-04
1.107553776888444190e+03 4.419922729240666941e-04
1.108454227113556726e+03 4.153006880858704656e-04
1.109354677338669262e+03 3.913753665748487221e-04
1.110255127563781798e+03 3.733715541905640992e-04
1.111155577788894334e+03 3.618676238028409623e-04
1.112056028014006870e+03 3.552991684314595901e-04
1.112956478239119406e+03 3.501208419709067208e-04
1.113856928464232169e+03 3.431610254273114368e-04
1.114757378689344705e+03 3.334057129883549850e-04
1.115657828914457241e+03 3.209189237805719548e-04
1.116558279139569777e+03 3.068192672768795069e-04
1.117458729364682313e+03 2.934826326200643725e-04
1.118359179589794849e+03 2.821456654404784123e-04
1.119259629814907385e+03 2.722239104499234457e-04
1.120160080040019920e+03 2.632799550895222789e-04
1.121060530265132456e+03 2.561138172513993455e-04
1.121960980490244992e+03 2.508124902355583622e-04
1.122861430715357528e+03 2.448578742198415006e-04
1.123761880940470292e+03 2.352125035327457426e-04
1.124662331165582827e+03 2.220610079663945936e-04
1.125562781390695363e+03 2.089107021858558515e-04
1.126463231615807899e+03 1.989338491342758472e-04
1.127363681840920435e+03 1.927402207057254523e-04
1.128264132066032971e+03 1.892815749629756872e-04
1.129164582291145507e+03 1.872394640520987097e-04
1.130065032516258043e+03 1.856809253196480501e-04
1.130965482741370579e+03 1.838345154222253963e-04
1.131865932966483115e+03 1.808645488694912880e-04
1.132766383191595651e+03 1.765332822199820967e-04
1.133666833416708187e+03 1.714416886877302845e-04
1.134567283641820950e+03 1.660312798515585356e-04
1.135467733866933486e+03 1.596965825868051296e-04
1.136368184092046022e+03 1.522360766912257278e-04
1.137268634317158558e+03 1.444506654210349925e-04
1.138169084542271094e+03 1.367603853180290960e-04
1.139069534767383630e+03 1.294313735294164646e-04
1.139969984992496165e+03 1.232183252354433658e-04
1.140870435217608701e+03 1.185119799949283241e-04
1.141770885442721237e+03 1.147873464262417348e-04
1.142671335667833773e+03 1.112421750680887860e-04
1.143571785892946309e+03 1.076444605251876608e-04
1.144472236118059072e+03 1.042452971216642022e-04
1.145372686343171608e+03 1.011248375554401263e-04
1.146273136568284144e+03 9.834221474210017478e-05
1.147173586793396680e+03 9.598792916781765283e-05
1.148074037018509216e+03 9.392461351631953867e-05
1.148974487243621752e+03 9.202612847782304199e-05
1.149874937468734288e+03 9.042168580895378245e-05
1.150775387693846824e+03 8.943799273459556917e-05
1.151675837918959360e+03 8.943161858625363607e-05
1.152576288144071896e+03 9.047741551082444530e-05
1.153476738369184432e+03 9.225815656128986215e-05
1.154377188594297195e+03 9.434851261397177679e-05
1.155277638819409731e+03 9.636476514676426742e-05
1.156178089044522267e+03 9.782832897001539872e-05
1.157078539269634803e+03 9.838008018121093088e-05
1.157978989494747339e+03 9.819532666233257755e-05
1.158879439719859874e+03 9.789901384848788684e-05
1.159779889944972410e+03 9.784644580869189447e-05
1.160680340170084946e+03 9.776289575335112198e-05
1.161580790395197482e+03 9.747441442567473526e-05
1.162481240620310018e+03 9.744135450640067973e-05
1.163381690845422554e+03 9.803309533617835208e-05
1.164282141070535317e+03 9.895679393547043260e-05
1.165182591295647853e+03 9.997319191569917977e-05
1.166083041520760389e+03 1.014142900719891896e-04
1.166983491745872925e+03 1.034709426868114888e-04
1.167883941970985461e+03 1.057737592562633076e-04
1.168784392196097997e+03 1.079103096483623051e-04
1.169684842421210533e+03 1.097909761310320335e-04
1.170585292646323069e+03 1.115640475135037290e-04
1.171485742871435605e+03 1.133858219973415173e-04
1.172386193096548141e+03 1.152151376120023738e-04
1.173286643321660677e+03 1.168129787293316894e-04
1.174187093546773440e+03 1.181629338353068774e-04
1.175087543771885976e+03 1.197883642552216875e-04
1.175987993996998512e+03 1.223504482900783367e-04
1.176888444222111048e+03 1.257454803549795577e-04
1.177788894447223583e+03 1.291509359780183656e-04
1.178689344672336119e+03 1.325156266432123511e-04
1.179589794897448655e+03 1.368915493070091546e-04
1.180490245122561191e+03 1.428811779317243705e-04
1.181390695347673727e+03 1.498940378678993528e-04
1.182291145572786263e+03 1.565908059799670014e-04
1.183191595797898799e+03 1.619935986320877538e-04
1.184092046023011562e+03 1.662720675202180914e-04
1.184992496248124098e+03 1.700951903307503638e-04
1.185892946473236634e+03 1.738211695686949431e-04
1.186793396698349170e+03 1.774718720031314681e-04
1.187693846923461706e+03 1.808378361872197977e-04
1.188594297148574242e+03 1.838706226215783312e-04
1.189494747373686778e+03 1.867179142521737040e-04
1.190395197598799314e+03 1.894331072153484434e-04
1.191295647823911850e+03 1.922753241908495107e-04
1.192196098049024386e+03 1.956361688484090859e-04
1.193096548274136921e+03 1.996661916548281930e-04
1.193996998499249457e+03 2.039953611591794138e-04
1.194897448724362221e+03 2.077043490685417471e-04
1.195797898949474757e+03 2.101553991907433776e-04
1.196698349174587293e+03 2.122425716256935485e-04
1.197598799399699828e+03 2.154043999578232214e-04
1.198499249624812364e+03 2.193688779028888985e-04
1.199399699849924900e+03 2.230919579109423762e-04
1.200300150075037436e+03 2.265979961326596882e-04
1.201200600300149972e+03 2.302281900274314721e-04
1.202101050525262508e+03 2.337560525629553204e-04
1.203001500750375044e+03 2.369726610405756652e-04
1.203901950975487580e+03 2.399683261363888271e-04
1.204802401200600343e+03 2.428979357716764306e-04
1.205702851425712879e+03 2.456761115462039792e-04
1.206603301650825415e+03 2.481396645497791690e-04
1.207503751875937951e+03 2.503293146852034407e-04
1.208404202101050487e+03 2.521789663123605698e-04
1.209304652326163023e+03 2.533200736107414381e-04
1.210205102551275559e+03 2.530353237752500789e-04
1.211105552776388095e+03 2.515132917000480976e-04
1.212006003001500630e+03 2.506117724355271382e-04
1.212906453226613166e+03 2.521901587064487088e-04
1.213806903451725702e+03 2.563571186585816841e-04
1.214707353676838466e+03 2.618050356041139409e-04
1.215607803901951002e+03 2.684185260219541617e-04
1.216508254127063537e+03 2.779176838440582326e-04
1.217408704352176073e+03 2.912927321289261848e-04
1.218309154577288609e+03 3.078411383972151248e-04
1.219209604802401145e+03 3.258922326236686354e-04
1.220110055027513681e+03 3.439824643971945827e-04
1.221010505252626217e+03 3.619815503017975006e-04
1.221910955477738753e+03 3.794255332646716446e-04
1.222811405702851289e+03 3.953578749541051423e-04
1.223711855927963825e+03 4.094089347119964908e-04
1.224612306153076588e+03 4.207798207694548199e-04
1.225512756378189124e+03 4.288193650280754088e-04
1.226413206603301660e+03 4.343688577579395181e-04
1.227313656828414196e+03 4.396490079262356954e-04
1.228214107053526732e+03 4.465709119447852323e-04
1.229114557278639268e+03 4.554117667549279088e-04
1.230015007503751804e+03 4.659537025122544398e-04
1.230915457728864340e+03 4.795127338668683965e-04
1.231815907953976875e+03 4.977977703754498653e-04
1.232716358179089411e+03 5.197455439820948889e-04
1.233616808404201947e+03 5.424919944825441461e-04
1.234517258629314711e+03 5.642795618943215403e-04
1.235417708854427246e+03 5.844179033559940110e-04
1.236318159079539782e+03 6.029941410001542950e-04
1.237218609304652318e+03 6.210279250456869843e-04
1.238119059529764854e+03 6.390318710769532723e-04
1.239019509754877390e+03 6.565154415728570404e-04
1.239919959979989926e+03 6.739458676593993109e-04
1.240820410205102462e+03 6.919242773837769832e-04
1.241720860430214998e+03 7.087054318206580193e-04
1.242621310655327534e+03 7.224316917041561335e-04
1.243521760880440070e+03 7.337407053588553951e-04
1.244422211105552606e+03 7.443544716234431211e-04
1.245322661330665369e+03 7.546568647402355058e-04
1.246223111555777905e+03 7.629342826594452719e-04
1.247123561780890441e+03 7.677578273134731419e-04
1.248024012006002977e+03 7.695466020887685660e-04
1.248924462231115513e+03 7.699567506509725047e-04
1.249824912456228049e+03 7.703459256642471555e-04
1.250725362681340584e+03 7.710617345781924049e-04
1.251625812906453120e+03 7.721678135199157474e-04
1.252526263131565656e+03 7.743627723227353979e-04
1.253426713356678192e+03 7.786203990883156130e-04
1.254327163581790728e+03 7.850721890752363104e-04
1.255227613806903491e+03 7.931362039438233673e-04
1.256128064032016027e+03 8.019318216681806284e-04
1.257028514257128563e+03 8.111215678888089370e-04
1.257928964482241099e+03 8.208257843678667346e-04
1.258829414707353635e+03 8.298462637044185138e-04
1.259729864932466171e+03 8.364140283360980673e-04
1.260630315157578707e+03 8.408028272674435448e-04
1.261530765382691243e+03 8.452683191331691491e-04
1.262431215607803779e+03 8.515497953146218329e-04
1.263331665832916315e+03 8.604072907190758648e-04
1.264232116058028851e+03 8.724421303425263429e-04
1.265132566283141614e+03 8.883024526100037231e-04
1.266033016508254150e+03 9.084926173752035875e-04
1.266933466733366686e+03 9.333050753100813552e-04
1.267833916958479222e+03 9.613709751693891607e-04
1.268734367183591758e+03 9.889823684739367047e-04
1.269634817408704293e+03 1.012681939976096610e-03
1.270535267633816829e+03 1.032731801267553016e-03
1.271435717858929365e+03 1.051341634812725514e-03
1.272336168084041901e+03 1.070488412084625836e-03
1.273236618309154437e+03 1.090560165933058059e-03
1.274137068534266973e+03 1.108513814402753341e-03
1.275037518759379736e+03 1.122004596241679957e-03
1.275937968984492272e+03 1.134621782208633739e-03
1.276838419209604808e+03 1.151637390952412647e-03
1.277738869434717344e+03 1.173849714636748896e-03
1.278639319659829880e+03 1.197606387788813578e-03
1.279539769884942416e+03 1.220458193364885738e-03
1.280440220110054952e+03 1.242979869529609298e-03
1.281340670335167488e+03 1.264392643131942700e-03
1.282241120560280024e+03 1.283841988057438793e-03
1.283141570785392560e+03 1.303629967358008309e-03
1.284042021010505096e+03 1.324660356034350729e-03
1.284942471235617859e+03 1.344986101721994814e-03
1.285842921460730395e+03 1.362553728744869859e-03
1.286743371685842931e+03 1.376125246372969079e-03
1.287643821910955467e+03 1.387453231543230633e-03
1.288544272136068003e+03 1.401377450997845931e-03
1.289444722361180538e+03 1.420698328355155318e-03
1.290345172586293074e+03 1.443524283598019266e-03
1.291245622811405610e+03 1.465898798529023704e-03
1.292146073036518146e+03 1.482853974769600880e-03
1.293046523261630682e+03 1.491184478719747653e-03
1.293946973486743218e+03 1.492543148881450392e-03
1.294847423711855754e+03 1.490042459039919156e-03
1.295747873936968517e+03 1.487058086500859296e-03
1.296648324162081053e+03 1.488790847337950708e-03
1.297548774387193589e+03 1.497172707873835242e-03
1.298449224612306125e+03 1.507617944031779773e-03
1.299349674837418661e+03 1.516143414596615030e-03
1.300250125062531197e+03 1.525330092493413191e-03
1.301150575287643733e+03 1.540007826978240365e-03
1.302051025512756269e+03 1.561200746591381383e-03
1.302951475737868805e+03 1.587153417886995625e-03
1.303851925962981340e+03 1.616621923678448775e-03
1.304752376188093876e+03 1.648309950344512215e-03
1.305652826413206640e+03 1.681170679901441631e-03
1.306553276638319176e+03 1.714918499246161944e-03
1.307453726863431712e+03 1.750006040249812078e-03
1.308354177088544247e+03 1.787388893483223169e-03
1.309254627313656783e+03 1.824879163129319902e-03
1.310155077538769319e+03 1.856641349685102076e-03
1.311055527763881855e+03 1.879446721828591151e-03
1.311955977988994391e+03 1.899537260676765300e-03
1.312856428214106927e+03 1.926589994965349729e-03
1.313756878439219463e+03 1.963006521632970972e-03
1.314657328664331999e+03 2.006328804879989845e-03
1.315557778889444762e+03 2.054367254862916447e-03
1.316458229114557298e+03 2.106052743336807656e-03
1.317358679339669834e+03 2.160158075020513369e-03
1.318259129564782370e+03 2.215289591042677534e-03
1.319159579789894906e+03 2.272800904202568022e-03
1.320060030015007442e+03 2.335859128296898738e-03
1.320960480240119978e+03 2.404168780061553476e-03
1.321860930465232514e+03 2.469996925437177755e-03
1.322761380690345050e+03 2.523288483197127542e-03
1.323661830915457585e+03 2.562853680498008990e-03
1.324562281140570121e+03 2.597084163073732407e-03
1.325462731365682885e+03 2.634262721357029727e-03
1.326363181590795421e+03 2.676425155267851599e-03
1.327263631815907956e+03 2.725102917998078675e-03
1.328164082041020492e+03 2.785382953209724136e-03
1.329064532266133028e+03 2.858512096292272885e-03
1.329964982491245564e+03 2.938861691959071282e-03
1.330865432716358100e+03 3.018711424871018019e-03
1.331765882941470636e+03 3.091547693479263642e-03
1.332666333166583172e+03 3.159459840452195564e-03
1.333566783391695708e+03 3.230784634672523303e-03
1.334467233616808244e+03 3.308798157836167261e-03
1.335367683841921007e+03 3.395279593787007590e-03
1.336268134067033543e+03 3.493820069821091095e-03
1.337168584292146079e+03 3.601501574301006932e-03
1.338069034517258615e+03 3.708140784518234624e-03
1.338969484742371151e+03 3.807526681993797252e-03
1.339869934967483687e+03 3.906341241652796538e-03
1.340770385192596223e+03 4.022068507539627684e-03
1.341670835417708759e+03 4.168838107653370824e-03
1.342571285642821294e+03 4.342588412949190124e-03
1.343471735867933830e+03 4.521472303000018643e-03
1.344372186093046366e+03 4.684806720947943398e-03
1.345272636318158902e+03 4.829929379651569030e-03
1.346173086543271666e+03 4.966413291753452378e-03
1.347073536768384201e+03 5.106302700083778338e-03
1.347973986993496737e+03 5.257676997837888028e-03
1.348874437218609273e+03 5.419173278422681830e-03
1.349774887443721809e+03 5.589375425226231556e-03
1.350675337668834345e+03 5.770593258380402220e-03
1.351575787893946881e+03 5.956874919175215999e-03
1.352476238119059417e+03 6.147415455506480449e-03
1.353376688344171953e+03 6.355171443905511912e-03
1.354277138569284489e+03 6.582923201308077052e-03
1.355177588794397025e+03 6.818256319355516827e-03
1.356078039019509788e+03 7.046750673159645276e-03
1.356978489244622324e+03 7.262205911125939328e-03
1.357878939469734860e+03 7.468222890899736850e-03
1.358779389694847396e+03 7.675991160962813455e-03
1.359679839919959932e+03 7.897564903991715832e-03
1.360580290145072468e+03 8.135798079898779941e-03
1.361480740370185003e+03 8.391791928265838335e-03
1.362381190595297539e+03 8.677249628064294742e-03
1.363281640820410075e+03 9.004487989478334592e-03
1.364182091045522611e+03 9.364407716561084713e-03
1.365082541270635147e+03 9.720559999468931373e-03
1.365982991495747910e+03 1.003649260638012596e-02
1.366883441720860446e+03 1.031716085698299555e-02
1.367783891945972982e+03 1.059705083452175747e-02
1.368684342171085518e+03 1.089119665608252394e-02
1.369584792396198054e+03 1.119715743458041431e-02
1.370485242621310590e+03 1.152281882338129261e-02
1.371385692846423126e+03 1.187886779161406725e-02
1.372286143071535662e+03 1.225560122299204809e-02
1.373186593296648198e+03 1.263671892237067280e-02
1.374087043521760734e+03 1.301065612138302928e-02
1.374987493746873270e+03 1.337270165630695049e-02
1.375887943971986033e+03 1.373519632004273350e-02
1.376788394197098569e+03 1.412985870217789604e-02
1.377688844422211105e+03 1.459831846109247745e-02
1.378589294647323641e+03 1.518185887707883611e-02
1.379489744872436177e+03 1.589474969520509803e-02
1.380390195097548713e+03 1.669955071563919077e-02
1.381290645322661248e+03 1.753968580407413991e-02
1.382191095547773784e+03 1.842682261314109587e-02
1.383091545772886320e+03 1.940913114940503309e-02
1.383991995997998856e+03 2.050945060386308652e-02
1.384892446223111392e+03 2.173924056307129093e-02
1.385792896448224155e+03 2.310085168501277084e-02
1.386693346673336691e+03 2.452265372522684575e-02
1.387593796898449227e+03 2.587060620086305621e-02
1.388494247123561763e+03 2.709355807458584120e-02
1.389394697348674299e+03 2.821368735364897587e-02
1.390295147573786835e+03 2.926922909454082733e-02
1.391195597798899371e+03 3.032541465191533614e-02
1.392096048024011907e+03 3.146968712129597640e-02
1.392996498249124443e+03 3.278219367010982294e-02
1.393896948474236979e+03 3.426486747532860033e-02
1.394797398699349515e+03 3.583911356719066826e-02
1.395697848924462278e+03 3.739685311262276601e-02
1.396598299149574814e+03 3.875439157628278453e-02
1.397498749374687350e+03 3.974037153229550284e-02
1.398399199599799886e+03 4.035033805743340474e-02
1.399299649824912422e+03 4.060370428073867971e-02
1.400200100050024957e+03 4.042947495440306349e-02
1.401100550275137493e+03 3.973774545986071688e-02
1.402001000500250029e+03 3.852848114905829680e-02
1.402901450725362565e+03 3.699203554830330504e-02
1.403801900950475101e+03 3.529030100826484329e-02
1.404702351175587637e+03 3.337715491595869000e-02
1.405602801400700173e+03 3.119997508947136913e-02
1.406503251625812936e+03 2.892332547439456850e-02
1.407403701850925472e+03 2.679482015583469282e-02
1.408304152076038008e+03 2.490178565171229444e-02
1.409204602301150544e+03 2.314843785687379155e-02
1.410105052526263080e+03 2.139067670706970917e-02
1.411005502751375616e+03 1.960971466676485891e-02
1.411905952976488152e+03 1.792239580149116579e-02
1.412806403201600688e+03 1.642300144530036907e-02
1.413706853426713224e+03 1.513106203764698690e-02
1.414607303651825760e+03 1.402961010253832991e-02
1.415507753876938295e+03 1.308658368693330944e-02
1.416408204102051059e+03 1.225322786501555419e-02
1.417308654327163595e+03 1.147329284203303483e-02
1.418209104552276131e+03 1.071544879226908262e-02
1.419109554777388666e+03 1.000275071168409483e-02
1.420010005002501202e+03 9.372413626664194072e-03
1.420910455227613738e+03 8.820043189410169474e-03
1.421810905452726274e+03 8.316584019501650424e-03
1.422711355677838810e+03 7.840641326691610152e-03
1.423611805902951346e+03 7.392606614897548160e-03
1.424512256128063882e+03 6.990438486605582945e-03
1.425412706353176418e+03 6.650858421715854021e-03
1.426313156578289181e+03 6.368973527105819057e-03
1.427213606803401717e+03 6.131950782110033582e-03
1.428114057028514253e+03 5.934481376582334024e-03
1.429014507253626789e+03 5.763251035438838113e-03
1.429914957478739325e+03 5.586701760536290536e-03
1.430815407703851861e+03 5.383965126249628912e-03
1.431715857928964397e+03 5.157859705340035392e-03
1.432616308154076933e+03 4.923153040173777056e-03
1.433516758379189469e+03 4.696409646606612351e-03
1.434417208604302004e+03 4.485997749701552822e-03
1.435317658829414540e+03 4.298352015061038429e-03
1.436218109054527304e+03 4.137798251322752363e-03
1.437118559279639840e+03 3.992045308139386892e-03
1.438019009504752376e+03 3.843722704869893293e-03
1.438919459729864911e+03 3.692515442418135493e-03
1.439819909954977447e+03 3.547497935138936055e-03
1.440720360180089983e+03 3.407214341088972160e-03
1.441620810405202519e+03 3.260806980253065559e-03
1.442521260630315055e+03 3.107318309568793749e-03
1.443421710855427591e+03 2.959875879244145205e-03
1.444322161080540127e+03 2.830016862712342405e-03
1.445222611305652663e+03 2.721272754261191539e-03
1.446123061530765426e+03 2.635859918274097331e-03
1.447023511755877962e+03 2.572052776644645749e-03
1.447923961980990498e+03 2.520004988382635019e-03
1.448824412206103034e+03 2.469556386004836523e-03
1.449724862431215570e+03 2.416178863243427857e-03
1.450625312656328106e+03 2.362575172308424044e-03
1.451525762881440642e+03 2.317065169830972299e-03
1.452426213106553178e+03 2.282905167775969336e-03
1.453326663331665713e+03 2.250125808791014585e-03
1.454227113556778249e+03 2.208678446610859783e-03
1.455127563781890785e+03 2.163285150518709076e-03
1.456028014007003321e+03 2.122934709519154733e-03
1.456928464232116085e+03 2.088464417675558581e-03
1.457828914457228620e+03 2.054217245783882505e-03
1.458729364682341156e+03 2.017913161672772043e-03
1.459629814907453692e+03 1.984939636732361515e-03
1.460530265132566228e+03 1.960222011551435335e-03
1.461430715357678764e+03 1.940317420682933364e-03
1.462331165582791300e+03 1.914720854323578208e-03
1.463231615807903836e+03 1.874284546590035752e-03
1.464132066033016372e+03 1.818710750051808281e-03
1.465032516258128908e+03 1.758451407266823632e-03
1.465932966483241444e+03 1.701511109126510298e-03
1.466833416708354207e+03 1.645451139298833351e-03
1.467733866933466743e+03 1.590862522291379812e-03
1.468634317158579279e+03 1.545419093316566846e-03
1.469534767383691815e+03 1.513082808648718311e-03
1.470435217608804351e+03 1.489917546458846597e-03
1.471335667833916887e+03 1.468363631859219334e-03
1.472236118059029423e+03 1.443992201910992111e-03
1.473136568284141958e+03 1.416688752746902719e-03
1.474037018509254494e+03 1.387359203892522992e-03
1.474937468734367030e+03 1.356821466283606803e-03
1.475837918959479566e+03 1.323010720441871639e-03
1.476738369184592329e+03 1.282714514604087110e-03
1.477638819409704865e+03 1.237565815666178196e-03
1.478539269634817401e+03 1.194451240294214234e-03
1.479439719859929937e+03 1.159788072965746214e-03
1.480340170085042473e+03 1.133982406754165031e-03
1.481240620310155009e+03 1.114306211230987800e-03
1.482141070535267545e+03 1.099010647426330303e-03
1.483041520760380081e+03 1.085020396622161888e-03
1.483941970985492617e+03 1.066903424903460629e-03
1.484842421210605153e+03 1.041639246608405808e-03
1.485742871435717689e+03 1.011880472783523860e-03
1.486643321660830452e+03 9.843702769578154422e-04
1.487543771885942988e+03 9.649391748228230460e-04
1.488444222111055524e+03 9.537218004257010193e-04
1.489344672336168060e+03 9.460257259209434427e-04
1.490245122561280596e+03 9.378278719763697086e-04
1.491145572786393132e+03 9.289729577939656894e-04
1.492046023011505667e+03 9.222616549555303061e-04
1.492946473236618203e+03 9.194943031755022566e-04
1.493846923461730739e+03 9.187567687086663389e-04
1.494747373686843275e+03 9.157957756444794813e-04
1.495647823911955811e+03 9.093236484746976267e-04
1.496548274137068574e+03 9.017447046604121653e-04
1.497448724362181110e+03 8.941984273560704731e-04
1.498349174587293646e+03 8.853907459464722398e-04
1.499249624812406182e+03 8.741122117232533184e-04
1.500150075037518718e+03 8.609486676164316990e-04
1.501050525262631254e+03 8.485380423643364579e-04
1.501950975487743790e+03 8.385348984658974299e-04
1.502851425712856326e+03 8.291862379597690624e-04
1.503751875937968862e+03 8.174854402190444421e-04
1.504652326163081398e+03 8.024100379383987706e-04
1.505552776388193934e+03 7.843599499624496216e-04
1.506453226613306470e+03 7.639010036244770104e-04
1.507353676838419233e+03 7.415095213914938950e-04
1.508254127063531769e+03 7.195928785116823640e-04
1.509154577288644305e+03 7.012660830584039901e-04
1.510055027513756841e+03 6.877518675997949674e-04
1.510955477738869376e+03 6.787801480395065732e-04
1.511855927963981912e+03 6.736613978811471781e-04
1.512756378189094448e+03 6.719122618527421670e-04
1.513656828414206984e+03 6.735824876482906067e-04
1.514557278639319520e+03 6.785063988482492939e-04
1.515457728864432056e+03 6.840914573496038875e-04
1.516358179089544592e+03 6.869257535707467242e-04
1.517258629314657355e+03 6.860633653722433053e-04
1.518159079539769891e+03 6.809357791059904687e-04
1.519059529764882427e+03 6.695078926199615190e-04
1.519959979989994963e+03 6.510025715660235947e-04
1.520860430215107499e+03 6.286553567952426471e-04
1.521760880440220035e+03 6.093429381179600720e-04
1.522661330665332571e+03 5.983720052780975218e-04
1.523561780890445107e+03 5.950259270066115581e-04
1.524462231115557643e+03 5.934975118139398757e-04
1.525362681340670179e+03 5.884492218371540099e-04
1.526263131565782714e+03 5.789394221381822603e-04
1.527163581790895478e+03 5.676107487256018850e-04
1.528064032016008014e+03 5.581981510577154739e-04
1.528964482241120550e+03 5.528812920948110877e-04
1.529864932466233086e+03 5.509846990797282644e-04
1.530765382691345621e+03 5.500196897153116719e-04
1.531665832916458157e+03 5.482886686630854788e-04
1.532566283141570693e+03 5.464025093831747235e-04
1.533466733366683229e+03 5.447063731334885698e-04
1.534367183591795765e+03 5.404365239588597393e-04
1.535267633816908301e+03 5.317457945534990842e-04
1.536168084042020837e+03 5.204322604931479199e-04
1.537068534267133600e+03 5.094515697822629956e-04
1.537968984492246136e+03 5.011490372928285430e-04
1.538869434717358672e+03 4.956546434097926701e-04
1.539769884942471208e+03 4.919437567217692332e-04
1.540670335167583744e+03 4.893997180253032309e-04
1.541570785392696280e+03 4.864475831496598945e-04
1.542471235617808816e+03 4.821945595496592366e-04
1.543371685842921352e+03 4.781053749386552547e-04
1.544272136068033888e+03 4.756075915014267388e-04
1.545172586293146423e+03 4.743564390342035740e-04
1.546073036518258959e+03 4.733487836318686593e-04
1.546973486743371723e+03 4.713324206731098784e-04
1.547873936968484259e+03 4.670006891330222070e-04
1.548774387193596795e+03 4.611570841428305778e-04
1.549674837418709330e+03 4.544674425615377752e-04
1.550575287643821866e+03 4.455563109216024303e-04
1.551475737868934402e+03 4.340774234294866754e-04
1.552376188094046938e+03 4.218916310654604977e-04
1.553276638319159474e+03 4.114392647221667022e-04
1.554177088544272010e+03 4.035773527432030437e-04
1.555077538769384546e+03 3.970237235934320633e-04
1.555977988994497082e+03 3.903739779173139241e-04
1.556878439219609618e+03 3.835051227076295070e-04
1.557778889444722381e+03 3.768084918474362750e-04
1.558679339669834917e+03 3.704808408484879141e-04
1.559579789894947453e+03 3.650797851160040349e-04
1.560480240120059989e+03 3.613379963052199516e-04
1.561380690345172525e+03 3.590916516191046165e-04
1.562281140570285061e+03 3.574499114041047193e-04
1.563181590795397597e+03 3.555947658500296449e-04
1.564082041020510133e+03 3.527555033966800328e-04
1.564982491245622668e+03 3.479632318348128647e-04
1.565882941470735204e+03 3.404687451689560203e-04
1.566783391695847740e+03 3.302400346162746728e-04
1.567683841920960504e+03 3.185831722100492219e-04
1.568584292146073039e+03 3.071762458659454292e-04
1.569484742371185575e+03 2.958398242976462513e-04
1.570385192596298111e+03 2.824216108381287071e-04
1.571285642821410647e+03 2.655183450831206222e-04
1.572186093046523183e+03 2.463007219218790169e-04
1.573086543271635719e+03 2.271208906682081665e-04
1.573986993496748255e+03 2.093842047752694270e-04
1.574887443721860791e+03 1.929763800228371227e-04
1.575787893946973327e+03 1.773822732230465808e-04
1.576688344172085863e+03 1.621355524034313661e-04
1.577588794397198626e+03 1.468125516758642687e-04
1.578489244622311162e+03 1.318681340251881562e-04
1.579389694847423698e+03 1.185162148850774121e-04
1.580290145072536234e+03 1.075275194733956574e-04
1.581190595297648770e+03 9.886446017761130200e-05
1.582091045522761306e+03 9.207783115358427763e-05
1.582991495747873842e+03 8.668268458216227409e-05
1.583891945972986377e+03 8.229779492155337480e-05
1.584792396198098913e+03 7.865253591749647494e-05
1.585692846423211449e+03 7.555943780802239240e-05
1.586593296648323985e+03 7.288782889886588189e-05
1.587493746873436749e+03 7.054500361981424280e-05
1.588394197098549284e+03 6.846378871604927036e-05
1.589294647323661820e+03 6.659446844837224881e-05
1.590195097548774356e+03 6.489950529863877681e-05
1.591095547773886892e+03 6.335003323519417331e-05
1.591995997998999428e+03 6.192348348531734369e-05
1.592896448224111964e+03 6.060194505530690418e-05
1.593796898449224500e+03 5.937101071251114405e-05
1.594697348674337036e+03 5.821894984609841234e-05
1.595597798899449572e+03 5.713610554542121521e-05
1.596498249124562108e+03 5.611444822008384962e-05
1.597398699349674871e+03 5.514724034356733993e-05
1.598299149574787407e+03 5.422878131158525699e-05
1.599199599799899943e+03 5.335421089691199233e-05
1.600100050025012479e+03 5.251935613829196268e-05
1.601000500250125015e+03 5.172061082560463471e-05
1.601900950475237551e+03 5.095483973042986534e-05
1.602801400700350086e+03 5.021930182356694114e-05
1.603701850925462622e+03 4.951158820639318698e-05
1.604602301150575158e+03 4.882957155051889105e-05
1.605502751375687694e+03 4.817136461654182377e-05
1.606403201600800230e+03 4.753528599342136658e-05
1.607303651825912766e+03 4.691983162396536614e-05
1.608204102051025529e+03 4.632365099983061811e-05
1.609104552276138065e+03 4.574552715009971165e-05
1.610005002501250601e+03 4.518435973114663781e-05
1.610905452726363137e+03 4.463915066687151374e-05
1.611805902951475673e+03 4.410899189795052639e-05
1.612706353176588209e+03 4.359305488435770675e-05
1.613606803401700745e+03 4.309058157270627561e-05
1.614507253626813281e+03 4.260087659321863186e-05
1.615407703851925817e+03 4.212330049355438597e-05
1.616308154077038353e+03 4.165726385067758489e-05
1.617208604302150889e+03 4.120222212931620514e-05
1.618109054527263652e+03 4.075767117770125625e-05
1.619009504752376188e+03 4.032314326930332203e-05
1.619909954977488724e+03 3.989820361400590133e-05
1.620810405202601260e+03 3.948244727426953449e-05
1.621710855427713796e+03 3.907549643181019799e-05
1.622611305652826331e+03 3.867699795859317762e-05
1.623511755877938867e+03 3.828662125281152948e-05
1.624412206103051403e+03 3.790405630627492474e-05
1.625312656328163939e+03 3.752901197443043226e-05
1.626213106553276475e+03 3.716121442428916167e-05
1.627113556778389011e+03 3.680040573895578638e-05
1.628014007003501774e+03 3.644634266032841890e-05
1.628914457228614310e+03 3.609879545401656510e-05
1.629814907453726846e+03 3.575754688259089937e-05
1.630715357678839382e+03 3.542239127508397536e-05
1.631615807903951918e+03 3.509313368218203448e-05
1.632516258129064454e+03 3.476958910786432972e-05
1.633416708354176990e+03 3.445158180938053227e-05
1.634317158579289526e+03 3.413894465843448831e-05
1.635217608804402062e+03 3.383151855728419805e-05
1.636118059029514598e+03 3.352915190421581294e-05
1.637018509254627133e+03 3.323170010346778737e-05
1.637918959479739897e+03 3.293902511525684306e-05
1.638819409704852433e+03 3.265099504203594388e-05
1.639719859929964969e+03 3.236748374753615928e-05
1.640620310155077505e+03 3.208837050552762037e-05
1.641520760380190040e+03 3.181353967555396932e-05
1.642421210605302576e+03 3.154288040318988293e-05
1.643321660830415112e+03 3.127628634262052330e-05
1.644222111055527648e+03 3.101365539957313695e-05
1.645122561280640184e+03 3.075488949282735942e-05
1.646023011505752720e+03 3.049989433270501365e-05
1.646923461730865256e+03 3.024857921510427743e-05
1.647823911955978019e+03 3.000085682977530723e-05
1.648724362181090555e+03 2.975664308166521451e-05
1.649624812406203091e+03 2.951585692426727086e-05
1.650525262631315627e+03 2.927842020401023887e-05
1.651425712856428163e+03 2.904425751481517153e-05
1.652326163081540699e+03 2.881329606201899325e-05
1.653226613306653235e+03 2.858546553494774079e-05
1.654127063531765771e+03 2.836069798747472957e-05
1.655027513756878307e+03 2.813892772596488461e-05
1.655927963981990843e+03 2.792009120405524391e-05
1.656828414207103378e+03 2.770412692376964203e-05
1.657728864432216142e+03 2.749097534250851581e-05
1.658629314657328678e+03 2.728057878549096631e-05
1.659529764882441214e+03 2.707288136326658739e-05
1.660430215107553749e+03 2.686782889393780709e-05
1.661330665332666285e+03 2.666536882977065938e-05
1.662231115557778821e+03 2.646545018789401104e-05
1.663131565782891357e+03 2.626802348480832604e-05
1.664032016008003893e+03 2.607304067445250027e-05
1.664932466233116429e+03 2.588045508959342349e-05
1.665832916458228965e+03 2.569022138632136724e-05
1.666733366683341501e+03 2.550229549145033992e-05
1.667633816908454037e+03 2.531663455263922016e-05
1.668534267133566800e+03 2.513319689106140907e-05
1.669434717358679336e+03 2.495194195646565304e-05
1.670335167583791872e+03 2.477283028447682827e-05
1.671235617808904408e+03 2.459582345600602369e-05
1.672136068034016944e+03 2.442088405863589116e-05
1.673036518259129480e+03 2.424797564987008478e-05
1.673936968484242016e+03 2.407706272213107107e-05
1.674837418709354552e+03 2.390811066940777300e-05
1.675737868934467087e+03 2.374108575545649962e-05
1.676638319159579623e+03 2.357595508346625003e-05
1.677538769384692159e+03 2.341268656710579566e-05
1.678439219609804923e+03 2.325124890287553898e-05
1.679339669834917459e+03 2.309161154369013467e-05
1.680240120060029994e+03 2.293374467362758711e-05
1.681140570285142530e+03 2.277761918377756614e-05
1.682041020510255066e+03 2.262320664913304385e-05
1.682941470735367602e+03 2.247047930646844347e-05
1.683841920960480138e+03 2.231941003315140163e-05
1.684742371185592674e+03 2.216997232684240064e-05
1.685642821410705210e+03 2.202214028603230610e-05
1.686543271635817746e+03 2.187588859137861935e-05
1.687443721860930282e+03 2.173119248779801848e-05
1.688344172086043045e+03 2.158802776727744422e-05
1.689244622311155581e+03 2.144637075236905307e-05
1.690145072536268117e+03 2.130619828033445174e-05
1.691045522761380653e+03 2.116748768790601874e-05
1.691945972986493189e+03 2.103021679663739165e-05
1.692846423211605725e+03 2.089436389881385331e-05
1.693746873436718261e+03 2.075990774389438706e-05
1.694647323661830796e+03 2.062682752546441146e-05
1.695547773886943332e+03 2.049510286867269271e-05
1.696448224112055868e+03 2.036471381812819586e-05
1.697348674337168404e+03 2.023564082624270579e-05
1.698249124562281168e+03 2.010786474198948367e-05
1.699149574787393703e+03 1.998136680006936658e-05
1.700050025012506239e+03 1.985612861045786933e-05
1.700950475237618775e+03 1.973213214832025096e-05
1.701850925462731311e+03 1.960935974428033266e-05
1.702751375687843847e+03 1.948779407502331098e-05
1.703651825912956383e+03 1.936741815422073155e-05
1.704552276138068919e+03 1.924821532376458572e-05
1.705452726363181455e+03 1.913016924529657457e-05
1.706353176588293991e+03 1.901326389201780508e-05
1.707253626813406527e+03 1.889748354077349092e-05
1.708154077038519290e+03 1.878281276439373152e-05
1.709054527263631826e+03 1.866923642428645289e-05
1.709954977488744362e+03 1.855673966326763967e-05
1.710855427713856898e+03 1.844530789862268514e-05
1.711755877938969434e+03 1.833492681538695680e-05
1.712656328164081970e+03 1.822558235983907899e-05
1.713556778389194506e+03 1.811726073319739502e-05
1.714457228614307041e+03 1.800994838551145014e-05
1.715357678839419577e+03 1.790363200974316591e-05
1.716258129064532113e+03 1.779829853602652156e-05
1.717158579289644649e+03 1.769393512610323199e-05
1.718059029514757185e+03 1.759052916792550123e-05
1.718959479739869948e+03 1.748806827041825195e-05
1.719859929964982484e+03 1.738654025839960772e-05
1.720760380190095020e+03 1.728593316764811202e-05
1.721660830415207556e+03 1.718623524011571806e-05
1.722561280640320092e+03 1.708743491927838099e-05
1.723461730865432628e+03 1.698952084562253432e-05
1.724362181090545164e+03 1.689248185225697145e-05
1.725262631315657700e+03 1.679630696065410962e-05
1.726163081540770236e+03 1.670098537650683673e-05
1.727063531765882772e+03 1.660650648570405788e-05
1.727963981990995308e+03 1.651285985041761324e-05
1.728864432216108071e+03 1.642003520529608464e-05
1.729764882441220607e+03 1.632802245376468124e-05
1.730665332666333143e+03 1.623681166442456688e-05
1.731565782891445679e+03 1.614639306755077518e-05
1.732466233116558215e+03 1.605675705168285117e-05
1.733366683341670750e+03 1.596789416030819551e-05
1.734267133566783286e+03 1.587979508863243965e-05
1.735167583791895822e+03 1.579245068043461241e-05
1.736068034017008358e+03 1.570585192500583419e-05
1.736968484242120894e+03 1.561998995416733743e-05
1.737868934467233430e+03 1.553485603936471333e-05
1.738769384692346193e+03 1.545044158883800866e-05
1.739669834917458729e+03 1.536673814486391523e-05
1.740570285142571265e+03 1.528373738106725003e-05
1.741470735367683801e+03 1.520143109980156686e-05
1.742371185592796337e+03 1.511981122959451848e-05
1.743271635817908873e+03 1.503886982265698515e-05
1.744172086043021409e+03 1.495859905245478022e-05
1.745072536268133945e+03 1.487899121133923814e-05
1.745972986493246481e+03 1.480003870823641365e-05
1.746873436718359017e+03 1.472173406639300690e-05
1.747773886943471553e+03 1.464406992117570402e-05
1.748674337168584316e+03 1.456703901792464828e-05
1.749574787393696852e+03 1.449063420985810930e-05
1.750475237618809388e+03 1.441484845602649524e-05
1.751375687843921924e+03 1.433967481931575730e-05
1.752276138069034459e+03 1.426510646449693534e-05
1.753176588294146995e+03 1.419113665632227353e-05
1.754077038519259531e+03 1.411775875766509531e-05
1.754977488744372067e+03 1.404496622770304644e-05
1.755877938969484603e+03 1.397275262014313919e-05
1.756778389194597139e+03 1.390111158148795213e-05
1.757678839419709675e+03 1.383003684934065281e-05
1.758579289644822438e+03 1.375952225074907038e-05
1.759479739869934974e+03 1.368956170058737135e-05
1.760380190095047510e+03 1.362014919997307876e-05
1.761280640320160046e+03 1.355127883472071519e-05
1.762181090545272582e+03 1.348294477382931705e-05
1.763081540770385118e+03 1.341514126800304412e-05
1.763981990995497654e+03 1.334786264820515875e-05
1.764882441220610190e+03 1.328110332424301500e-05
1.765782891445722726e+03 1.321485778338451501e-05
1.766683341670835262e+03 1.314912058900410479e-05
1.767583791895947797e+03 1.308388637925834508e-05
1.768484242121060333e+03 1.301914986578959685e-05
1.769384692346173097e+03 1.295490583245820610e-05
1.770285142571285633e+03 1.289114913410067903e-05
1.771185592796398169e+03 1.282787469531496903e-05
1.772086043021510704e+03 1.276507750927093240e-05
1.772986493246623240e+03 1.270275263654637467e-05
1.773886943471735776e+03 1.264089520398651051e-05
1.774787393696848312e+03 1.257950040358812662e-05
1.775687843921960848e+03 1.251856349140620111e-05
1.776588294147073384e+03 1.245807978648340968e-05
1.777488744372185920e+03 1.239804466980150055e-05
1.778389194597298456e+03 1.233845358325428393e-05
1.779289644822411219e+03 1.227930202864100791e-05
1.780190095047523755e+03 1.222058556668128457e-05
1.781090545272636291e+03 1.216229981604815951e-05
1.781990995497748827e+03 1.210444045242252321e-05
1.782891445722861363e+03 1.204700320756488660e-05
1.783791895947973899e+03 1.198998386840678917e-05
1.784692346173086435e+03 1.193337827615915276e-05
1.785592796398198971e+03 1.187718232543986476e-05
1.786493246623311506e+03 1.182139196341643166e-05
1.787393696848424042e+03 1.176600318896705731e-05
1.788294147073536578e+03 1.171101205185776736e-05
1.789194597298649342e+03 1.165641465193510553e-05
1.790095047523761878e+03 1.160220713833463213e-05
1.790995497748874413e+03 1.154838570870497756e-05
1.791895947973986949e+03 1.149494660844660355e-05
1.792796398199099485e+03 1.144188612996473205e-05
1.793696848424212021e+03 1.138920061193760188e-05
1.794597298649324557e+03 1.133688643859724968e-05
1.795497748874437093e+03 1.128494003902489199e-05
1.796398199099549629e+03 1.123335788645934661e-05
1.797298649324662165e+03 1.118213649761831350e-05
1.798199099549774701e+03 1.113127243203195643e-05
1.799099549774887464e+03 1.108076229138978971e-05
1.800000000000000000e+03 1.103060271889956912e-05
