0.000000000000000000e+00 1.790829289687392639e-03
9.004502251125562351e-01 2.398706392295108739e-03
1.800900450225112470e+00 3.231170274646764321e-03
2.701350675337668594e+00 4.233693425552971512e-03
3.601800900450224940e+00 5.076566511136839689e-03
4.502251125562780842e+00 5.215955265940410736e-03
5.402701350675337189e+00 4.537900281471286476e-03
6.303151575787893535e+00 3.533831718811464209e-03
7.203601800900449881e+00 2.634925739889762072e-03
8.104052026013006227e+00 1.961850545913544630e-03
9.004502251125561685e+00 1.485536438100254182e-03
9.904952476238118919e+00 1.149952839696552617e-03
1.080540270135067438e+01 9.093702475545195835e-04
1.170585292646323161e+01 7.330032209493260844e-04
1.260630315157578707e+01 6.011581192294654591e-04
1.350675337668834430e+01 5.008112551506873483e-04
1.440720360180089976e+01 4.230795932526485912e-04
1.530765382691345522e+01 3.618425690811429094e-04
1.620810405202601245e+01 3.128475315180607335e-04
1.710855427713856969e+01 2.731118010427303921e-04
1.800900450225112337e+01 2.405109318799906126e-04
1.890945472736368060e+01 2.134952425527599559e-04
1.980990495247623784e+01 1.908918981076085993e-04
2.071035517758879507e+01 1.717474164980094015e-04
2.161080540270134875e+01 1.552618345780620304e-04
2.251125562781390599e+01 1.408851479660188494e-04
2.341170585292646322e+01 1.283293143904123284e-04
2.431215607803901690e+01 1.173889320309083519e-04
2.521260630315157414e+01 1.078517317735706074e-04
2.611305652826413137e+01 9.951870988157631055e-05
2.701350675337668861e+01 9.222598135174591067e-05
2.791395697848924229e+01 8.584511164343541128e-05
2.881440720360179952e+01 8.026198897811925674e-05
2.971485742871435676e+01 7.532372742702094610e-05
3.061530765382691044e+01 7.078956045691147390e-05
3.151575787893946767e+01 6.644083813041391545e-05
3.241620810405202491e+01 6.228200328250322736e-05
3.331665832916458214e+01 5.845601473748821822e-05
3.421710855427713938e+01 5.503780279466541543e-05
3.511755877938969661e+01 5.199777051507776388e-05
3.601800900450224674e+01 4.923718512402868559e-05
3.691845922961480397e+01 4.664869751942784170e-05
3.781890945472736121e+01 4.421003943651955956e-05
3.871935967983991844e+01 4.196712413764732531e-05
3.961980990495247568e+01 3.994567709344549789e-05
4.052026013006503291e+01 3.812727491690207830e-05
4.142071035517759015e+01 3.645196122369321153e-05
4.232116058029014027e+01 3.484208585881680388e-05
4.322161080540269751e+01 3.327660636644813255e-05
4.412206103051525474e+01 3.179848488117879027e-05
4.502251125562781198e+01 3.044164435302616856e-05
4.592296148074036921e+01 2.921057362091162760e-05
4.682341170585292645e+01 2.809869541886536370e-05
4.772386193096548368e+01 2.710105567695178484e-05
4.862431215607803381e+01 2.621874435963644095e-05
4.952476238119059104e+01 2.546007541271384097e-05
5.042521260630314828e+01 2.483840305349143584e-05
5.132566283141570551e+01 2.436028514264137508e-05
5.222611305652826275e+01 2.399944845562489119e-05
5.312656328164081998e+01 2.368530840168510770e-05
5.402701350675337721e+01 2.333783045326742251e-05
5.492746373186592734e+01 2.285836760678170552e-05
5.582791395697848458e+01 2.212378143270749722e-05
5.672836418209104181e+01 2.118030840105465711e-05
5.762881440720359905e+01 2.024508456676097319e-05
5.852926463231615628e+01 1.947026013497269047e-05
5.942971485742871351e+01 1.888355031878588428e-05
6.033016508254127075e+01 1.843714281742902541e-05
6.123061530765382088e+01 1.804321267000081474e-05
6.213106553276637811e+01 1.760446710788767102e-05
6.303151575787893535e+01 1.704560427962606648e-05
6.393196598299149258e+01 1.638695758272663955e-05
6.483241620810404982e+01 1.573592276424890695e-05
6.573286643321659994e+01 1.516864960927521857e-05
6.663331665832916428e+01 1.470189228377220592e-05
6.753376688344171441e+01 1.432953864538429047e-05
6.843421710855427875e+01 1.404644827287037090e-05
6.933466733366682888e+01 1.385486248124401141e-05
7.023511755877939322e+01 1.376112547972275886e-05
7.113556778389194335e+01 1.376221154264125971e-05
7.203601800900449348e+01 1.383267050718207692e-05
7.293646823411705782e+01 1.395023593632736022e-05
7.383691845922960795e+01 1.410349488367647684e-05
7.473736868434217229e+01 1.418615949270333532e-05
7.563781890945472242e+01 1.402290383596107203e-05
7.653826913456728676e+01 1.362830172041299624e-05
7.743871935967983688e+01 1.321151760716615449e-05
7.833916958479238701e+01 1.291275411327569667e-05
7.923961980990495135e+01 1.272025208267162304e-05
8.014007003501750148e+01 1.254679214807939048e-05
8.104052026013006582e+01 1.229904362463680293e-05
8.194097048524261595e+01 1.193828031388559980e-05
8.284142071035518029e+01 1.150513666676266846e-05
8.374187093546773042e+01 1.105641881362953107e-05
8.464232116058028055e+01 1.064043972143461621e-05
8.554277138569284489e+01 1.031030634496463873e-05
8.644322161080539502e+01 1.009963324439926903e-05
8.734367183591795936e+01 1.001811660427359793e-05
8.824412206103050949e+01 1.005774791279679756e-05
8.914457228614307382e+01 1.017345060423541846e-05
9.004502251125562395e+01 1.026079531168381956e-05
9.094547273636817408e+01 1.019644108613235956e-05
9.184592296148073842e+01 9.950086798836433601e-06
9.274637318659328855e+01 9.629782436151489226e-06
9.364682341170585289e+01 9.359974408977768756e-06
9.454727363681840302e+01 9.169191704247667138e-06
9.544772386193096736e+01 8.997446827008109667e-06
9.634817408704351749e+01 8.790177685013794329e-06
9.724862431215606762e+01 8.574588504468323504e-06
9.814907453726863196e+01 8.414871364302399645e-06
9.904952476238118209e+01 8.350900997569548419e-06
9.994997498749374643e+01 8.400705366410204583e-06
1.008504252126062966e+02 8.574705535154470540e-06
1.017508754377188609e+02 8.863483859963724367e-06
1.026513256628314110e+02 9.200344375670024618e-06
1.035517758879439612e+02 9.459650870394854691e-06
1.044522261130565255e+02 9.573813742192225458e-06
1.053526763381690756e+02 9.632353215738855511e-06
1.062531265632816400e+02 9.769184208744833225e-06
1.071535767883941901e+02 9.996641883717685643e-06
1.080540270135067544e+02 1.021078241306465082e-05
1.089544772386193046e+02 1.031563225662765997e-05
1.098549274637318547e+02 1.022465048277259682e-05
1.107553776888444190e+02 9.882210674787417481e-06
1.116558279139569692e+02 9.389902797548088301e-06
1.125562781390695335e+02 8.948156228614576797e-06
1.134567283641820836e+02 8.688829856695853260e-06
1.143571785892946480e+02 8.595409026741718196e-06
1.152576288144071981e+02 8.519726508305623837e-06
1.161580790395197482e+02 8.308838269310532212e-06
1.170585292646323126e+02 7.975874030507616017e-06
1.179589794897448627e+02 7.658243017843982235e-06
1.188594297148574270e+02 7.447551890973592622e-06
1.197598799399699772e+02 7.351899068984493983e-06
1.206603301650825415e+02 7.356522086014640610e-06
1.215607803901950916e+02 7.468861257972133082e-06
1.224612306153076418e+02 7.687285438177096780e-06
1.233616808404202061e+02 7.938673636121938422e-06
1.242621310655327562e+02 8.113684001525060279e-06
1.251625812906453206e+02 8.191291696761988491e-06
1.260630315157578707e+02 8.212850745291746220e-06
1.269634817408704350e+02 8.205800699533042446e-06
1.278639319659829852e+02 8.194797298636112451e-06
1.287643821910955353e+02 8.151295015639800000e-06
1.296648324162080996e+02 8.020621965785514504e-06
1.305652826413206640e+02 7.830270366710813626e-06
1.314657328664331999e+02 7.662742043092354190e-06
1.323661830915457642e+02 7.583343372100625064e-06
1.332666333166583286e+02 7.615488895552797660e-06
1.341670835417708929e+02 7.736739181868919127e-06
1.350675337668834288e+02 7.863004315671715360e-06
1.359679839919959932e+02 7.883031101739069080e-06
1.368684342171085575e+02 7.772520410222466259e-06
1.377688844422210934e+02 7.602992461821193740e-06
1.386693346673336578e+02 7.459359406134053574e-06
1.395697848924462221e+02 7.420563141752913784e-06
1.404702351175587864e+02 7.550668865892836684e-06
1.413706853426713224e+02 7.864944658218756289e-06
1.422711355677838867e+02 8.307150265157381433e-06
1.431715857928964510e+02 8.786781268724492384e-06
1.440720360180089870e+02 9.215993076442499562e-06
1.449724862431215513e+02 9.501585782103026413e-06
1.458729364682341156e+02 9.653040021036967869e-06
1.467733866933466800e+02 9.769153500896442797e-06
1.476738369184592159e+02 9.821053888683310262e-06
1.485742871435717802e+02 9.672157340911829439e-06
1.494747373686843446e+02 9.322287443945331082e-06
1.503751875937968805e+02 8.936865319074456757e-06
1.512756378189094448e+02 8.660115694793343622e-06
1.521760880440220092e+02 8.540356623568056178e-06
1.530765382691345735e+02 8.584118978861747312e-06
1.539769884942471094e+02 8.772745624421604083e-06
1.548774387193596738e+02 9.023166491188684167e-06
1.557778889444722381e+02 9.236443958686639416e-06
1.566783391695847740e+02 9.420094266301410723e-06
1.575787893946973384e+02 9.662876916620682837e-06
1.584792396198099027e+02 9.993633675630987656e-06
1.593796898449224670e+02 1.037774246581840065e-05
1.602801400700350030e+02 1.076917346041330298e-05
1.611805902951475673e+02 1.106978977670829790e-05
1.620810405202601316e+02 1.121161711144286722e-05
1.629814907453726676e+02 1.121646965868001662e-05
1.638819409704852319e+02 1.107242053022929669e-05
1.647823911955977962e+02 1.077743419889472948e-05
1.656828414207103606e+02 1.044602815734860063e-05
1.665832916458228965e+02 1.021849939826444222e-05
1.674837418709354608e+02 1.011766892569591672e-05
1.683841920960480252e+02 1.000820811770190811e-05
1.692846423211605611e+02 9.785535671717197263e-06
1.701850925462731254e+02 9.557549690156242020e-06
1.710855427713856898e+02 9.515839042985352978e-06
1.719859929964982541e+02 9.737421988317424614e-06
1.728864432216107900e+02 1.019215111563807439e-05
1.737868934467233544e+02 1.079574140488399459e-05
1.746873436718359187e+02 1.138225078770085174e-05
1.755877938969484546e+02 1.172748667744312000e-05
1.764882441220610190e+02 1.175682153775996084e-05
1.773886943471735833e+02 1.165071341495340150e-05
1.782891445722861476e+02 1.155911075356620377e-05
1.791895947973986836e+02 1.147365061851863336e-05
1.800900450225112479e+02 1.134496436247486352e-05
1.809904952476238122e+02 1.115060780931636286e-05
1.818909454727363482e+02 1.089994218328227357e-05
1.827913956978489125e+02 1.060859583054834951e-05
1.836918459229614768e+02 1.031843138306485582e-05
1.845922961480740412e+02 1.010307122455260736e-05
1.854927463731865771e+02 1.000771950538835851e-05
1.863931965982991414e+02 9.987958659860748088e-06
1.872936468234117058e+02 9.935768631357719849e-06
1.881940970485242417e+02 9.806080711647018852e-06
1.890945472736368060e+02 9.709967591009234416e-06
1.899949974987493704e+02 9.797079524485635777e-06
1.908954477238619347e+02 1.007709885128317562e-05
1.917958979489744706e+02 1.044517366106027955e-05
1.926963481740870350e+02 1.081878644623587987e-05
1.935967983991995993e+02 1.117731478924981191e-05
1.944972486243121352e+02 1.152322979704550054e-05
1.953976988494246996e+02 1.185673867504812177e-05
1.962981490745372639e+02 1.216111584035887705e-05
1.971985992996498283e+02 1.241034903979251125e-05
1.980990495247623642e+02 1.259010987626501437e-05
1.989994997498749285e+02 1.270785071462024121e-05
1.998999499749874929e+02 1.278872787088787236e-05
2.008004002001000288e+02 1.282264785935175746e-05
2.017008504252125931e+02 1.274392457278202810e-05
2.026013006503251574e+02 1.255890196777401128e-05
2.035017508754377218e+02 1.237163965627155635e-05
2.044022011005502577e+02 1.222946223965292211e-05
2.053026513256628220e+02 1.216968871902375502e-05
2.062031015507753864e+02 1.228427843085629712e-05
2.071035517758879223e+02 1.262811995757435920e-05
2.080040020010004866e+02 1.317980742841204071e-05
2.089044522261130510e+02 1.385319027818398263e-05
2.098049024512256153e+02 1.450273213643721106e-05
2.107053526763381512e+02 1.498138052566116323e-05
2.116058029014507156e+02 1.518407468284430072e-05
2.125062531265632799e+02 1.513401245928804102e-05
2.134067033516758158e+02 1.495857304053066260e-05
2.143071535767883802e+02 1.472972218644782927e-05
2.152076038019009445e+02 1.447787785798580272e-05
2.161080540270135089e+02 1.428027956009019108e-05
2.170085042521260448e+02 1.421075311223865970e-05
2.179089544772386091e+02 1.426710942320784763e-05
2.188094047023511735e+02 1.439859418779082963e-05
2.197098549274637094e+02 1.456973956341803794e-05
2.206103051525762737e+02 1.480215890983520100e-05
2.215107553776888381e+02 1.513835732445095904e-05
2.224112056028014024e+02 1.558968855102906221e-05
2.233116558279139383e+02 1.615083377833795338e-05
2.242121060530265027e+02 1.681262928876910519e-05
2.251125562781390670e+02 1.755687469220560759e-05
2.260130065032516029e+02 1.834097873380249687e-05
2.269134567283641672e+02 1.894960749913137397e-05
2.278139069534767316e+02 1.907007637134683342e-05
2.287143571785892959e+02 1.871440772684583375e-05
2.296148074037018318e+02 1.814957684448944710e-05
2.305152576288143962e+02 1.759651242237051885e-05
2.314157078539269605e+02 1.720025928785325409e-05
2.323161580790394964e+02 1.696595378625837525e-05
2.332166083041520608e+02 1.676533305598479223e-05
2.341170585292646251e+02 1.649588163654994269e-05
2.350175087543771895e+02 1.618044560068712789e-05
2.359179589794897254e+02 1.591897976062917335e-05
2.368184092046022897e+02 1.584205958421795624e-05
2.377188594297148541e+02 1.602867797925646909e-05
2.386193096548273900e+02 1.638005777863297505e-05
2.395197598799399543e+02 1.665950518784140334e-05
2.404202101050525187e+02 1.676258374711218850e-05
2.413206603301650830e+02 1.679770159281578757e-05
2.422211105552776189e+02 1.685367524939547417e-05
2.431215607803901833e+02 1.689343518866514286e-05
2.440220110055027476e+02 1.681567536771321180e-05
2.449224612306152835e+02 1.660199738559346323e-05
2.458229114557278479e+02 1.641459521839749112e-05
2.467233616808404122e+02 1.638517912890567128e-05
2.476238119059529765e+02 1.648061819542584439e-05
2.485242621310655124e+02 1.659446346467170446e-05
2.494247123561780768e+02 1.670157041150010586e-05
2.503251625812906411e+02 1.687145456629402112e-05
2.512256128064031770e+02 1.709664293948972389e-05
2.521260630315157414e+02 1.720586680862179647e-05
2.530265132566283057e+02 1.702340765505676461e-05
2.539269634817408701e+02 1.659767404521159402e-05
2.548274137068534060e+02 1.616828660037537488e-05
2.557278639319659703e+02 1.593283838340698848e-05
2.566283141570785347e+02 1.594931254014794964e-05
2.575287643821910706e+02 1.613239514382381384e-05
2.584292146073036633e+02 1.630445017893178604e-05
2.593296648324161993e+02 1.638828966809739997e-05
2.602301150575287352e+02 1.643897480679334456e-05
2.611305652826413279e+02 1.648013462320484465e-05
2.620310155077538639e+02 1.649055701231329424e-05
2.629314657328663998e+02 1.650049880904620994e-05
2.638319159579789925e+02 1.654050757934782978e-05
2.647323661830915285e+02 1.655357433307214451e-05
2.656328164082040644e+02 1.644250896457189338e-05
2.665332666333166571e+02 1.618267136004376234e-05
2.674337168584291931e+02 1.584081306971236476e-05
2.683341670835417858e+02 1.547206142879467181e-05
2.692346173086543217e+02 1.513172484237017501e-05
2.701350675337668577e+02 1.490797417675343555e-05
2.710355177588794504e+02 1.483332071348360414e-05
2.719359679839919863e+02 1.484370597647641235e-05
2.728364182091045222e+02 1.488150102676986556e-05
2.737368684342171150e+02 1.500102201506984883e-05
2.746373186593296509e+02 1.529918550890644758e-05
2.755377688844421868e+02 1.572920768496340556e-05
2.764382191095547796e+02 1.613860125775599274e-05
2.773386693346673155e+02 1.647291375956984810e-05
2.782391195597798514e+02 1.677268789233725047e-05
2.791395697848924442e+02 1.697570048850647660e-05
2.800400200100049801e+02 1.685300185606269675e-05
2.809404702351175729e+02 1.632210242006965900e-05
2.818409204602301088e+02 1.561552800249638880e-05
2.827413706853426447e+02 1.498420623166022056e-05
2.836418209104552375e+02 1.446631366497137516e-05
2.845422711355677734e+02 1.398815552871132789e-05
2.854427213606803093e+02 1.356612942681701688e-05
2.863431715857929021e+02 1.329505459579488761e-05
2.872436218109054380e+02 1.322899322944706716e-05
2.881440720360179739e+02 1.332430150574490228e-05
2.890445222611305667e+02 1.345038723516495413e-05
2.899449724862431026e+02 1.347481194669816951e-05
2.908454227113556385e+02 1.339614338702205875e-05
2.917458729364682313e+02 1.334569982299492359e-05
2.926463231615807672e+02 1.346559473402799363e-05
2.935467733866933600e+02 1.379246443023813951e-05
2.944472236118058959e+02 1.422866128634148154e-05
2.953476738369184318e+02 1.461854522259162437e-05
2.962481240620310246e+02 1.489573015209537809e-05
2.971485742871435605e+02 1.511813095442037270e-05
2.980490245122560964e+02 1.530588119106763423e-05
2.989494747373686891e+02 1.542899299733874616e-05
2.998499249624812251e+02 1.548245102777505284e-05
3.007503751875937610e+02 1.543899368971444284e-05
3.016508254127063537e+02 1.529493163807525515e-05
3.025512756378188897e+02 1.510968106012394025e-05
3.034517258629314256e+02 1.491744389367768605e-05
3.043521760880440183e+02 1.473433508791290545e-05
3.052526263131565543e+02 1.458899486678797379e-05
3.061530765382691470e+02 1.446312273235972340e-05
3.070535267633816829e+02 1.432803340993472313e-05
3.079539769884942189e+02 1.424629917280752335e-05
3.088544272136068116e+02 1.431684471710504245e-05
3.097548774387193475e+02 1.458360418685452766e-05
3.106553276638318835e+02 1.500739194488418729e-05
3.115557778889444762e+02 1.546205216754117652e-05
3.124562281140570121e+02 1.583279431653123067e-05
3.133566783391695481e+02 1.612581852474563856e-05
3.142571285642821408e+02 1.644241493879787294e-05
3.151575787893946767e+02 1.679346677078212796e-05
3.160580290145072127e+02 1.700338247318613461e-05
3.169584792396198054e+02 1.694622874107243955e-05
3.178589294647323413e+02 1.668590504140121130e-05
3.187593796898449341e+02 1.634340171470633586e-05
3.196598299149574700e+02 1.603749114156104426e-05
3.205602801400700059e+02 1.581693735619456146e-05
3.214607303651825987e+02 1.565805538444163959e-05
3.223611805902951346e+02 1.556351036458029216e-05
3.232616308154076705e+02 1.553711255355991417e-05
3.241620810405202633e+02 1.554297011796554811e-05
3.250625312656327992e+02 1.558572395458174899e-05
3.259629814907453351e+02 1.574645924464913968e-05
3.268634317158579279e+02 1.604781363915991298e-05
3.277638819409704638e+02 1.637686095868527581e-05
3.286643321660829997e+02 1.660346520082898301e-05
3.295647823911955925e+02 1.672866478557704720e-05
3.304652326163081284e+02 1.686240795305826237e-05
3.313656828414207212e+02 1.703213672620564645e-05
3.322661330665332571e+02 1.715583106428363169e-05
3.331665832916457930e+02 1.719656822994548748e-05
3.340670335167583858e+02 1.717306471865849197e-05
3.349674837418709217e+02 1.710481801200710726e-05
3.358679339669834576e+02 1.698916640785191410e-05
3.367683841920960504e+02 1.680779135750813858e-05
3.376688344172085863e+02 1.659430354521570724e-05
3.385692846423211222e+02 1.643644278129284550e-05
3.394697348674337150e+02 1.640349875437034576e-05
3.403701850925462509e+02 1.644426509935469671e-05
3.412706353176587868e+02 1.638970421698991641e-05
3.421710855427713796e+02 1.609565664853612800e-05
3.430715357678839155e+02 1.555960611814171161e-05
3.439719859929965082e+02 1.494101978936575504e-05
3.448724362181090441e+02 1.445152105326653889e-05
3.457728864432215801e+02 1.420929667295440226e-05
3.466733366683341728e+02 1.418623399175582949e-05
3.475737868934467087e+02 1.428436565191154636e-05
3.484742371185592447e+02 1.445563328554077936e-05
3.493746873436718374e+02 1.468261553773989997e-05
3.502751375687843733e+02 1.493482480455245131e-05
3.511755877938969093e+02 1.516821083166259481e-05
3.520760380190095020e+02 1.534102479206689559e-05
3.529764882441220379e+02 1.545888389533844223e-05
3.538769384692345739e+02 1.557661059064876599e-05
3.547773886943471666e+02 1.572000781411134589e-05
3.556778389194597025e+02 1.587579695047567745e-05
3.565782891445722953e+02 1.605138135950705933e-05
3.574787393696848312e+02 1.630527307872287691e-05
3.583791895947973671e+02 1.666244373442372776e-05
3.592796398199099599e+02 1.700948913920032418e-05
3.601800900450224958e+02 1.721430022469868322e-05
3.610805402701350317e+02 1.728340108314784811e-05
3.619809904952476245e+02 1.729132554762914512e-05
3.628814407203601604e+02 1.730157394738419987e-05
3.637818909454726963e+02 1.733183986685589567e-05
3.646823411705852891e+02 1.732547058214498555e-05
3.655827913956978250e+02 1.723882544092277376e-05
3.664832416208103609e+02 1.713257221280099128e-05
3.673836918459229537e+02 1.707707294743386950e-05
3.682841420710354896e+02 1.708104404459505644e-05
3.691845922961480824e+02 1.714310363435038415e-05
3.700850425212606183e+02 1.722350340509503868e-05
3.709854927463731542e+02 1.727579928448489438e-05
3.718859429714857470e+02 1.734863423228136559e-05
3.727863931965982829e+02 1.752801601439402321e-05
3.736868434217108188e+02 1.783503631928345497e-05
3.745872936468234116e+02 1.823288359181887740e-05
3.754877438719359475e+02 1.864282300547854816e-05
3.763881940970484834e+02 1.899673155137525206e-05
3.772886443221610762e+02 1.931342936697555372e-05
3.781890945472736121e+02 1.963797424474264462e-05
3.790895447723861480e+02 1.997840686805724836e-05
3.799899949974987408e+02 2.028647721028093689e-05
3.808904452226112767e+02 2.045057661214796457e-05
3.817908954477238694e+02 2.038013950730236553e-05
3.826913456728364054e+02 2.007506457584291658e-05
3.835917958979489413e+02 1.965752518646287294e-05
3.844922461230615340e+02 1.930420110601865523e-05
3.853926963481740700e+02 1.909367346262513606e-05
3.862931465732866059e+02 1.899752065887922866e-05
3.871935967983991986e+02 1.896944803111393893e-05
3.880940470235117346e+02 1.899664723497326751e-05
3.889944972486242705e+02 1.912247634620356133e-05
3.898949474737368632e+02 1.937308810693239683e-05
3.907953976988493991e+02 1.966821253001087879e-05
3.916958479239619351e+02 1.990865329468057303e-05
3.925962981490745278e+02 2.009170325795359870e-05
3.934967483741870637e+02 2.030838049344257948e-05
3.943971985992996565e+02 2.065232221079479338e-05
3.952976488244121924e+02 2.110277792134449386e-05
3.961980990495247283e+02 2.155967278331309776e-05
3.970985492746373211e+02 2.191930927292949256e-05
3.979989994997498570e+02 2.209968963153234719e-05
3.988994497248623929e+02 2.205859909303733299e-05
3.997998999499749857e+02 2.184568201154371805e-05
4.007003501750875216e+02 2.162328384505758541e-05
4.016008004002000575e+02 2.157046969657689864e-05
4.025012506253126503e+02 2.176267718657284167e-05
4.034017008504251862e+02 2.213323495993141732e-05
4.043021510755377221e+02 2.255402610320793124e-05
4.052026013006503149e+02 2.295896719818979015e-05
4.061030515257628508e+02 2.335683215342848241e-05
4.070035017508754436e+02 2.377473454353784478e-05
4.079039519759879795e+02 2.420785115752891923e-05
4.088044022011005154e+02 2.460468397203044826e-05
4.097048524262131082e+02 2.493254322212260296e-05
4.106053026513256441e+02 2.521768782663807635e-05
4.115057528764381800e+02 2.545696468481472517e-05
4.124062031015507728e+02 2.558390717837510299e-05
4.133066533266633087e+02 2.563410754167977704e-05
4.142071035517758446e+02 2.576035940125498010e-05
4.151075537768884374e+02 2.604865037780903424e-05
4.160080040020009733e+02 2.646258975531848938e-05
4.169084542271135092e+02 2.696018731980549623e-05
4.178089044522261020e+02 2.753480770909366756e-05
4.187093546773386379e+02 2.815639496631337430e-05
4.196098049024512306e+02 2.872239881209511078e-05
4.205102551275637666e+02 2.907596500825724483e-05
4.214107053526763025e+02 2.911985173851738945e-05
4.223111555777888952e+02 2.896220086146642455e-05
4.232116058029014312e+02 2.882510816439232186e-05
4.241120560280139671e+02 2.880784273368054908e-05
4.250125062531265598e+02 2.876063641803537648e-05
4.259129564782390958e+02 2.854059930220993730e-05
4.268134067033516317e+02 2.827649955000686825e-05
4.277138569284642244e+02 2.815536142306546057e-05
4.286143071535767604e+02 2.819443941143952087e-05
4.295147573786892963e+02 2.830894288158005423e-05
4.304152076038018890e+02 2.843182806986164205e-05
4.313156578289144250e+02 2.853022725624320159e-05
4.322161080540270177e+02 2.860765649137678605e-05
4.331165582791395536e+02 2.870687450165450077e-05
4.340170085042520896e+02 2.886268859271019132e-05
4.349174587293646823e+02 2.899037956324208197e-05
4.358179089544772182e+02 2.895672238736020509e-05
4.367183591795897541e+02 2.876152244479688132e-05
4.376188094047023469e+02 2.852540633036683003e-05
4.385192596298148828e+02 2.841993655666314172e-05
4.394197098549274187e+02 2.855134459429383944e-05
4.403201600800400115e+02 2.892841697827411876e-05
4.412206103051525474e+02 2.951502254885341063e-05
4.421210605302650833e+02 3.019658526836721440e-05
4.430215107553776761e+02 3.083670201922566366e-05
4.439219609804902120e+02 3.143445137511858780e-05
4.448224112056028048e+02 3.201026523865025053e-05
4.457228614307153407e+02 3.245567533531575944e-05
4.466233116558278766e+02 3.262446931056246270e-05
4.475237618809404694e+02 3.251586612454520226e-05
4.484242121060530053e+02 3.225873120829600129e-05
4.493246623311655412e+02 3.200758645002667026e-05
4.502251125562781340e+02 3.194278312365512329e-05
4.511255627813906699e+02 3.215086476867772973e-05
4.520260130065032058e+02 3.254408196682773315e-05
4.529264632316157986e+02 3.298180999675987934e-05
4.538269134567283345e+02 3.338786832692799045e-05
4.547273636818408704e+02 3.369411541927399141e-05
4.556278139069534632e+02 3.383411947436546792e-05
4.565282641320659991e+02 3.384079451681343249e-05
4.574287143571785919e+02 3.381637729479385995e-05
4.583291645822911278e+02 3.384829899213272723e-05
4.592296148074036637e+02 3.394156445994527557e-05
4.601300650325162565e+02 3.401473646924641696e-05
4.610305152576287924e+02 3.403188021466965898e-05
4.619309654827413283e+02 3.405807404962676654e-05
4.628314157078539210e+02 3.409426988473683508e-05
4.637318659329664570e+02 3.408207746205109298e-05
4.646323161580789929e+02 3.408604786614714068e-05
4.655327663831915856e+02 3.424061118394088423e-05
4.664332166083041216e+02 3.449631588156420173e-05
4.673336668334167143e+02 3.468951459897198840e-05
4.682341170585292502e+02 3.478617500242958937e-05
4.691345672836417862e+02 3.486851084769210897e-05
4.700350175087543789e+02 3.499516964205186357e-05
4.709354677338669148e+02 3.511559511307416119e-05
4.718359179589794508e+02 3.522678278914247066e-05
4.727363681840920435e+02 3.537457527214773204e-05
4.736368184092045794e+02 3.555770209989133295e-05
4.745372686343171154e+02 3.577050688871938463e-05
4.754377188594297081e+02 3.594359039078757307e-05
4.763381690845422440e+02 3.595444796106869929e-05
4.772386193096547800e+02 3.579165161998825009e-05
4.781390695347673727e+02 3.560704538324241803e-05
4.790395197598799086e+02 3.551572380490486142e-05
4.799399699849925014e+02 3.554417728182831371e-05
4.808404202101050373e+02 3.564218653636247604e-05
4.817408704352175732e+02 3.569089877597759824e-05
4.826413206603301660e+02 3.567504015785556308e-05
4.835417708854427019e+02 3.577804750253671656e-05
4.844422211105552378e+02 3.621785238732037020e-05
4.853426713356678306e+02 3.697915963204231188e-05
4.862431215607803665e+02 3.777954576007536868e-05
4.871435717858929024e+02 3.828062696010015514e-05
4.880440220110054952e+02 3.836619156628491442e-05
4.889444722361180311e+02 3.821301098400705401e-05
4.898449224612305670e+02 3.802176801747353911e-05
4.907453726863431598e+02 3.786826242569116025e-05
4.916458229114556957e+02 3.779803803493942153e-05
4.925462731365682885e+02 3.783661859839866908e-05
4.934467233616808244e+02 3.795489734207242266e-05
4.943471735867933603e+02 3.810491257117022820e-05
4.952476238119059531e+02 3.824257243106945505e-05
4.961480740370184890e+02 3.825840733223425229e-05
4.970485242621310249e+02 3.803856343890152348e-05
4.979489744872436177e+02 3.763404602865934453e-05
4.988494247123561536e+02 3.727070323067653167e-05
4.997498749374686895e+02 3.711361919027548415e-05
5.006503251625812823e+02 3.711058848768568791e-05
5.015507753876938182e+02 3.711308921871964015e-05
5.024512256128063541e+02 3.706285696608767685e-05
5.033516758379189469e+02 3.699067091998763346e-05
5.042521260630314828e+02 3.695404542221367801e-05
5.051525762881440755e+02 3.699467068629983083e-05
5.060530265132566115e+02 3.709161259750919955e-05
5.069534767383691474e+02 3.717254997084893460e-05
5.078539269634817401e+02 3.715580858758358028e-05
5.087543771885942760e+02 3.700463306899007970e-05
5.096548274137068120e+02 3.674757869366344280e-05
5.105552776388194047e+02 3.653748670530361552e-05
5.114557278639319406e+02 3.656783774755587360e-05
5.123561780890445334e+02 3.685606832995898106e-05
5.132566283141570693e+02 3.727958549603095097e-05
5.141570785392696052e+02 3.775045108984045785e-05
5.150575287643821412e+02 3.819467415360154177e-05
5.159579789894946771e+02 3.848853383347589302e-05
5.168584292146073267e+02 3.856277608723050613e-05
5.177588794397198626e+02 3.852246084063229176e-05
5.186593296648323985e+02 3.858702339517111027e-05
5.195597798899449344e+02 3.892243468171490952e-05
5.204602301150574704e+02 3.955002997866466428e-05
5.213606803401700063e+02 4.035981198029141244e-05
5.222611305652826559e+02 4.120834035350625887e-05
5.231615807903951918e+02 4.203409858885874062e-05
5.240620310155077277e+02 4.286111883724081734e-05
5.249624812406202636e+02 4.374811006208982860e-05
5.258629314657327996e+02 4.470077807819029965e-05
5.267633816908454492e+02 4.564088794793350734e-05
5.276638319159579851e+02 4.651850564083461327e-05
5.285642821410705210e+02 4.724727480633962064e-05
5.294647323661830569e+02 4.776326078660569251e-05
5.303651825912955928e+02 4.822363385276505010e-05
5.312656328164081287e+02 4.879512825605049055e-05
5.321660830415207784e+02 4.940869325178366163e-05
5.330665332666333143e+02 4.990935555588032395e-05
5.339669834917458502e+02 5.032853757478896747e-05
5.348674337168583861e+02 5.090629087690165674e-05
5.357678839419709220e+02 5.188184274695670597e-05
5.366683341670835716e+02 5.321763348427067795e-05
5.375687843921961075e+02 5.458396340410326788e-05
5.384692346173086435e+02 5.568926912647071716e-05
5.393696848424211794e+02 5.655154574454975198e-05
5.402701350675337153e+02 5.732184310177518440e-05
5.411705852926462512e+02 5.803120478909042378e-05
5.420710355177589008e+02 5.855192951426518844e-05
5.429714857428714367e+02 5.884443525279307082e-05
5.438719359679839727e+02 5.914359524916636308e-05
5.447723861930965086e+02 5.968350147257116853e-05
5.456728364182090445e+02 6.050758063003888314e-05
5.465732866433215804e+02 6.158820276235557828e-05
5.474737368684342300e+02 6.286908952593615440e-05
5.483741870935467659e+02 6.413190651271577665e-05
5.492746373186593019e+02 6.518353880496939362e-05
5.501750875437718378e+02 6.610427142240232442e-05
5.510755377688843737e+02 6.698792780563918910e-05
5.519759879939970233e+02 6.768082891666301368e-05
5.528764382191095592e+02 6.801266178882218701e-05
5.537768884442220951e+02 6.811868631047992401e-05
5.546773386693346310e+02 6.823924899788126857e-05
5.555777888944471670e+02 6.856403764040960446e-05
5.564782391195597029e+02 6.936667079828401144e-05
5.573786893446723525e+02 7.078405641069316571e-05
5.582791395697848884e+02 7.248298465973853982e-05
5.591795897948974243e+02 7.384709237745075406e-05
5.600800400200099602e+02 7.447393165006962155e-05
5.609804902451224962e+02 7.441960200652974339e-05
5.618809404702351458e+02 7.399472827122640219e-05
5.627813906953476817e+02 7.353740542684729722e-05
5.636818409204602176e+02 7.335740240565947633e-05
5.645822911455727535e+02 7.354832651010516169e-05
5.654827413706852894e+02 7.401448921693635672e-05
5.663831915957978254e+02 7.469989583189034187e-05
5.672836418209104750e+02 7.562271717503607547e-05
5.681840920460230109e+02 7.674959613913705757e-05
5.690845422711355468e+02 7.776466986938955473e-05
5.699849924962480827e+02 7.811495849931190754e-05
5.708854427213606186e+02 7.763607725890775391e-05
5.717858929464731546e+02 7.693195244869127202e-05
5.726863431715858042e+02 7.660365952528518606e-05
5.735867933966983401e+02 7.669373055979090449e-05
5.744872436218108760e+02 7.694879557849492466e-05
5.753876938469234119e+02 7.705913686929775105e-05
5.762881440720359478e+02 7.699173083944069163e-05
5.771885942971485974e+02 7.707917709459317956e-05
5.780890445222611334e+02 7.751595051998400336e-05
5.789894947473736693e+02 7.813744058790540704e-05
5.798899449724862052e+02 7.879968356869150765e-05
5.807903951975987411e+02 7.954860465302071842e-05
5.816908454227112770e+02 8.046830346187971886e-05
5.825912956478239266e+02 8.159856202677634224e-05
5.834917458729364625e+02 8.279553718910977341e-05
5.843921960980489985e+02 8.370492748201117917e-05
5.852926463231615344e+02 8.401693308286417832e-05
5.861930965482740703e+02 8.388933111546020090e-05
5.870935467733867199e+02 8.369746269152632322e-05
5.879939969984992558e+02 8.348964709017686527e-05
5.888944472236117917e+02 8.311562573063015864e-05
5.897948974487243277e+02 8.245808323653642657e-05
5.906953476738368636e+02 8.134239170934351774e-05
5.915957978989493995e+02 7.985764094686547895e-05
5.924962481240620491e+02 7.852158705841403641e-05
5.933966983491745850e+02 7.788791285826984518e-05
5.942971485742871209e+02 7.814639285617323156e-05
5.951975987993996569e+02 7.914989651663650600e-05
5.960980490245121928e+02 8.070504381771885635e-05
5.969984992496247287e+02 8.257531886495886602e-05
5.978989494747373783e+02 8.445276740139470587e-05
5.987993996998499142e+02 8.609730804083300711e-05
5.996998499249624501e+02 8.736691404630875181e-05
6.006003001500749860e+02 8.809680848877564775e-05
6.015007503751875220e+02 8.814112407851401934e-05
6.024012006003001716e+02 8.780444516410703521e-05
6.033016508254127075e+02 8.768304989161134389e-05
6.042021010505252434e+02 8.802386350266579510e-05
6.051025512756377793e+02 8.860370272377874929e-05
6.060030015007503152e+02 8.902248136986518133e-05
6.069034517258628512e+02 8.922943167223861298e-05
6.078039019509755008e+02 8.925216658916868039e-05
6.087043521760880367e+02 8.878932403466987112e-05
6.096048024012005726e+02 8.773280143551635964e-05
6.105052526263131085e+02 8.656548534321267699e-05
6.114057028514256444e+02 8.592007608673890996e-05
6.123061530765382940e+02 8.604257403764841632e-05
6.132066033016508300e+02 8.669234995980618617e-05
6.141070535267633659e+02 8.745670725096353442e-05
6.150075037518759018e+02 8.810402508743937766e-05
6.159079539769884377e+02 8.865843732798102947e-05
6.168084042021009736e+02 8.910898061281856809e-05
6.177088544272136232e+02 8.939006217466923150e-05
6.186093046523261592e+02 8.975674493302490545e-05
6.195097548774386951e+02 9.039808969222766857e-05
6.204102051025512310e+02 9.093290980336894366e-05
6.213106553276637669e+02 9.073744098938030256e-05
6.222111055527763028e+02 8.966587031357953490e-05
6.231115557778889524e+02 8.807114821871551719e-05
6.240120060030014884e+02 8.625709879021825881e-05
6.249124562281140243e+02 8.434981877418370848e-05
6.258129064532265602e+02 8.238546347061421397e-05
6.267133566783390961e+02 8.042878044410740760e-05
6.276138069034517457e+02 7.877481696642750681e-05
6.285142571285642816e+02 7.778753127775065335e-05
6.294147073536768175e+02 7.752945070927135982e-05
6.303151575787893535e+02 7.773185617976066588e-05
6.312156078039018894e+02 7.814633649464466881e-05
6.321160580290144253e+02 7.852019702586479405e-05
6.330165082541270749e+02 7.858926822970902220e-05
6.339169584792396108e+02 7.835130156485782494e-05
6.348174087043521467e+02 7.807231614655585469e-05
6.357178589294646827e+02 7.795489204285327325e-05
6.366183091545772186e+02 7.789460075247684118e-05
6.375187593796898682e+02 7.771130688342297232e-05
6.384192096048024041e+02 7.738672114140420844e-05
6.393196598299149400e+02 7.681231383419324780e-05
6.402201100550274759e+02 7.591447829503567642e-05
6.411205602801400119e+02 7.493784551799066859e-05
6.420210105052525478e+02 7.420388012260543205e-05
6.429214607303651974e+02 7.371375997378976769e-05
6.438219109554777333e+02 7.331002732759110533e-05
6.447223611805902692e+02 7.295894363101428515e-05
6.456228114057028051e+02 7.265067323484058765e-05
6.465232616308153411e+02 7.241268466453150117e-05
6.474237118559278770e+02 7.223984865609083352e-05
6.483241620810405266e+02 7.205882637452984754e-05
6.492246123061530625e+02 7.186871440329827508e-05
6.501250625312655984e+02 7.169404109863974515e-05
6.510255127563781343e+02 7.163279495140130438e-05
6.519259629814906702e+02 7.187356383274840193e-05
6.528264132066033198e+02 7.236266279584785107e-05
6.537268634317158558e+02 7.272941828053712022e-05
6.546273136568283917e+02 7.262937901625778991e-05
6.555277638819409276e+02 7.204634904057630261e-05
6.564282141070534635e+02 7.121714001555917088e-05
6.573286643321659994e+02 7.052931213398855250e-05
6.582291145572786490e+02 7.031641346153576981e-05
6.591295647823911850e+02 7.052377221818578778e-05
6.600300150075037209e+02 7.073045103756115000e-05
6.609304652326162568e+02 7.055907581401079016e-05
6.618309154577287927e+02 6.993779551625263523e-05
6.627313656828414423e+02 6.908094901566190884e-05
6.636318159079539782e+02 6.825070112979736002e-05
6.645322661330665142e+02 6.753073014013400745e-05
6.654327163581790501e+02 6.693339377113476270e-05
6.663331665832915860e+02 6.653544644281076520e-05
6.672336168084041219e+02 6.639791640728999944e-05
6.681340670335167715e+02 6.649832679674076350e-05
6.690345172586293074e+02 6.676983465983009933e-05
6.699349674837418434e+02 6.701661616805764049e-05
6.708354177088543793e+02 6.700163541562730507e-05
6.717358679339669152e+02 6.683000873525360474e-05
6.726363181590794511e+02 6.676668108191843366e-05
6.735367683841921007e+02 6.675578403750696279e-05
6.744372186093046366e+02 6.652293714153282992e-05
6.753376688344171725e+02 6.593794399490521003e-05
6.762381190595297085e+02 6.514660064204370036e-05
6.771385692846422444e+02 6.440632886253256284e-05
6.780390195097548940e+02 6.383626792907275745e-05
6.789394697348674299e+02 6.340333508509186499e-05
6.798399199599799658e+02 6.303593300478869835e-05
6.807403701850925017e+02 6.265955093653585131e-05
6.816408204102050377e+02 6.221435635896947118e-05
6.825412706353175736e+02 6.168993891920461752e-05
6.834417208604302232e+02 6.118078534707447529e-05
6.843421710855427591e+02 6.072711778390935155e-05
6.852426213106552950e+02 6.019637428653118227e-05
6.861430715357678309e+02 5.948265032342251108e-05
6.870435217608803669e+02 5.867423787927768497e-05
6.879439719859930165e+02 5.803841991426175761e-05
6.888444222111055524e+02 5.766040256631348903e-05
6.897448724362180883e+02 5.738212296029316587e-05
6.906453226613306242e+02 5.717006546054281905e-05
6.915457728864431601e+02 5.699478750028268641e-05
6.924462231115556961e+02 5.675947909395834279e-05
6.933466733366683457e+02 5.651447522196745109e-05
6.942471235617808816e+02 5.636902313848031010e-05
6.951475737868934175e+02 5.626948690573618171e-05
6.960480240120059534e+02 5.608688340435063216e-05
6.969484742371184893e+02 5.580421685328716127e-05
6.978489244622311389e+02 5.549626276433038022e-05
6.987493746873436749e+02 5.522486865123215342e-05
6.996498249124562108e+02 5.500096039225872984e-05
7.005502751375687467e+02 5.485575281218699390e-05
7.014507253626812826e+02 5.479766657043584860e-05
7.023511755877938185e+02 5.473219321589494081e-05
7.032516258129064681e+02 5.458538700332639864e-05
7.041520760380190040e+02 5.433679053218750467e-05
7.050525262631315400e+02 5.392359386370562603e-05
7.059529764882440759e+02 5.327659798069333272e-05
7.068534267133566118e+02 5.245263939428495317e-05
7.077538769384691477e+02 5.160249470212139488e-05
7.086543271635817973e+02 5.082564698449562292e-05
7.095547773886943332e+02 5.011099435011599204e-05
7.104552276138068692e+02 4.941414595631644848e-05
7.113556778389194051e+02 4.864836549975043250e-05
7.122561280640319410e+02 4.778455979692697520e-05
7.131565782891445906e+02 4.690442898448087618e-05
7.140570285142571265e+02 4.605838766778806042e-05
7.149574787393696624e+02 4.523397264828390763e-05
7.158579289644821984e+02 4.445915598998986199e-05
7.167583791895947343e+02 4.386681576189170861e-05
7.176588294147072702e+02 4.351682935369134903e-05
7.185592796398199198e+02 4.330661479244103142e-05
7.194597298649324557e+02 4.312684503943754733e-05
7.203601800900449916e+02 4.294052753778165236e-05
7.212606303151575275e+02 4.270451145333981345e-05
7.221610805402700635e+02 4.229442217395556260e-05
7.230615307653827131e+02 4.169042792163129175e-05
7.239619809904952490e+02 4.109785729988920354e-05
7.248624312156077849e+02 4.068454271613568897e-05
7.257628814407203208e+02 4.047964601931265986e-05
7.266633316658328567e+02 4.050864337689005226e-05
7.275637818909453927e+02 4.066498531799395279e-05
7.284642321160580423e+02 4.067361290363746471e-05
7.293646823411705782e+02 4.043211175565373063e-05
7.302651325662831141e+02 4.011068044383063507e-05
7.311655827913956500e+02 3.987558073775697616e-05
7.320660330165081859e+02 3.972072753760906170e-05
7.329664832416207219e+02 3.961872133811740379e-05
7.338669334667333715e+02 3.961791816282049647e-05
7.347673836918459074e+02 3.960322149535533485e-05
7.356678339169584433e+02 3.932780132693140985e-05
7.365682841420709792e+02 3.875511542414470647e-05
7.374687343671835151e+02 3.805181866778535593e-05
7.383691845922961647e+02 3.741553656696606329e-05
7.392696348174087007e+02 3.699088034599169890e-05
7.401700850425212366e+02 3.682579640856375162e-05
7.410705352676337725e+02 3.687615665066195573e-05
7.419709854927463084e+02 3.704061896704640447e-05
7.428714357178588443e+02 3.726763646862370948e-05
7.437718859429714939e+02 3.748969774404150614e-05
7.446723361680840299e+02 3.754420616735846568e-05
7.455727863931965658e+02 3.728749317191847501e-05
7.464732366183091017e+02 3.679526478546750072e-05
7.473736868434216376e+02 3.629590844937825411e-05
7.482741370685342872e+02 3.594292440061437990e-05
7.491745872936468231e+02 3.577337938834431949e-05
7.500750375187593590e+02 3.581021437410508083e-05
7.509754877438718950e+02 3.606038401210160792e-05
7.518759379689844309e+02 3.637842473383384755e-05
7.527763881940969668e+02 3.652734517192400001e-05
7.536768384192096164e+02 3.640777238305902642e-05
7.545772886443221523e+02 3.611043887434625275e-05
7.554777388694346882e+02 3.578495517195096867e-05
7.563781890945472242e+02 3.559511237726177324e-05
7.572786393196597601e+02 3.567277334336718838e-05
7.581790895447722960e+02 3.604927531304156336e-05
7.590795397698849456e+02 3.656253793167338762e-05
7.599799899949974815e+02 3.687727221920002115e-05
7.608804402201100174e+02 3.676894938774322326e-05
7.617808904452225534e+02 3.639123666825773629e-05
7.626813406703350893e+02 3.607605034725910870e-05
7.635817908954477389e+02 3.595531905163048311e-05
7.644822411205602748e+02 3.587837689628579853e-05
7.653826913456728107e+02 3.565362953587966274e-05
7.662831415707853466e+02 3.526747955852973403e-05
7.671835917958978825e+02 3.481561226808545890e-05
7.680840420210104185e+02 3.439523793751366414e-05
7.689844922461230681e+02 3.403608063412855584e-05
7.698849424712356040e+02 3.370178772951872768e-05
7.707853926963481399e+02 3.330280239790736879e-05
7.716858429214606758e+02 3.281011005276336298e-05
7.725862931465732117e+02 3.236970537329818373e-05
7.734867433716858613e+02 3.212293063760142094e-05
7.743871935967983973e+02 3.205603881440894135e-05
7.752876438219109332e+02 3.203042383408939654e-05
7.761880940470234691e+02 3.191542309270129727e-05
7.770885442721360050e+02 3.168867442896921357e-05
7.779889944972485409e+02 3.140113444678812069e-05
7.788894447223611905e+02 3.113182348149111031e-05
7.797898949474737265e+02 3.098060234921995947e-05
7.806903451725862624e+02 3.098699366701504834e-05
7.815907953976987983e+02 3.108386700254397745e-05
7.824912456228113342e+02 3.113640965913540515e-05
7.833916958479238701e+02 3.102221789316769013e-05
7.842921460730365197e+02 3.074937277311466974e-05
7.851925962981490557e+02 3.045062720355182247e-05
7.860930465232615916e+02 3.026568434285590130e-05
7.869934967483741275e+02 3.025157479660591382e-05
7.878939469734866634e+02 3.041739660606146591e-05
7.887943971985993130e+02 3.072582545493408255e-05
7.896948474237118489e+02 3.102742569216421009e-05
7.905952976488243849e+02 3.113739467317888052e-05
7.914957478739369208e+02 3.098690945037510676e-05
7.923961980990494567e+02 3.065678243713720224e-05
7.932966483241619926e+02 3.026746919726139295e-05
7.941970985492746422e+02 2.987476047443245205e-05
7.950975487743871781e+02 2.948168063242530306e-05
7.959979989994997140e+02 2.910610429024371000e-05
7.968984492246122500e+02 2.877902366133354659e-05
7.977988994497247859e+02 2.844405062395288268e-05
7.986993496748374355e+02 2.805163648300787948e-05
7.995997998999499714e+02 2.767340362337975551e-05
8.005002501250625073e+02 2.746418952433686764e-05
8.014007003501750432e+02 2.751301727570223683e-05
8.023011505752875792e+02 2.770878039749783396e-05
8.032016008004001151e+02 2.793698091710450910e-05
8.041020510255127647e+02 2.820996955057363271e-05
8.050025012506253006e+02 2.849009825615079453e-05
8.059029514757378365e+02 2.872384827335780223e-05
8.068034017008503724e+02 2.895942153775569883e-05
8.077038519259629084e+02 2.925714274621834016e-05
8.086043021510754443e+02 2.960729370949569575e-05
8.095047523761880939e+02 2.991085603266639635e-05
8.104052026013006298e+02 2.998700292953445590e-05
8.113056528264131657e+02 2.974851386486313014e-05
8.122061030515257016e+02 2.936464637261046692e-05
8.131065532766382375e+02 2.909803264095899857e-05
8.140070035017508872e+02 2.905569994691408739e-05
8.149074537268634231e+02 2.916386505154599146e-05
8.158079039519759590e+02 2.926919176229019056e-05
8.167083541770884949e+02 2.925530340852753355e-05
8.176088044022010308e+02 2.910276245522634597e-05
8.185092546273135667e+02 2.878130882833163234e-05
8.194097048524262163e+02 2.828861913562614045e-05
8.203101550775387523e+02 2.772292645825006550e-05
8.212106053026512882e+02 2.720682655269274832e-05
8.221110555277638241e+02 2.684969886758230805e-05
8.230115057528763600e+02 2.667781726965206507e-05
8.239119559779890096e+02 2.670310831545007600e-05
8.248124062031015455e+02 2.695842980406207672e-05
8.257128564282140815e+02 2.738770646427424735e-05
8.266133066533266174e+02 2.782827764698908422e-05
8.275137568784391533e+02 2.819726601294587762e-05
8.284142071035516892e+02 2.855025093766248083e-05
8.293146573286643388e+02 2.891465661300384506e-05
8.302151075537768747e+02 2.929951688316949040e-05
8.311155577788894107e+02 2.969297068948482558e-05
8.320160080040019466e+02 2.998861342341840929e-05
8.329164582291144825e+02 3.003259046055303707e-05
8.338169084542270184e+02 2.977342813678012903e-05
8.347173586793396680e+02 2.930742933722712255e-05
8.356178089044522039e+02 2.881461084872240282e-05
8.365182591295647399e+02 2.843019966338400183e-05
8.374187093546772758e+02 2.821996528207372667e-05
8.383191595797898117e+02 2.823178027208848875e-05
8.392196098049024613e+02 2.840458273522376118e-05
8.401200600300149972e+02 2.855974101584904268e-05
8.410205102551275331e+02 2.863071254186430630e-05
8.419209604802400690e+02 2.871486973516805741e-05
8.428214107053526050e+02 2.888983583274062306e-05
8.437218609304651409e+02 2.918330203646282806e-05
8.446223111555777905e+02 2.955715529842521048e-05
8.455227613806903264e+02 2.990062813671202189e-05
8.464232116058028623e+02 3.013583179249032585e-05
8.473236618309153982e+02 3.022190938364192065e-05
8.482241120560279342e+02 3.013952915220080683e-05
8.491245622811405838e+02 2.995898013403480961e-05
8.500250125062531197e+02 2.982778069266469380e-05
8.509254627313656556e+02 2.988334217041513859e-05
8.518259129564781915e+02 3.016202176068690091e-05
8.527263631815907274e+02 3.051566219142147986e-05
8.536268134067032634e+02 3.079671656795359553e-05
8.545272636318159130e+02 3.107220958076145384e-05
8.554277138569284489e+02 3.144496208468319364e-05
8.563281640820409848e+02 3.195810993313146056e-05
8.572286143071535207e+02 3.261587389878873390e-05
8.581290645322660566e+02 3.338499339050762733e-05
8.590295147573785925e+02 3.420990035539850333e-05
8.599299649824912422e+02 3.510149254646130766e-05
8.608304152076037781e+02 3.603170905527114333e-05
8.617308654327163140e+02 3.672705528233445143e-05
8.626313156578288499e+02 3.677984586997419043e-05
8.635317658829413858e+02 3.607359546657766964e-05
8.644322161080540354e+02 3.492205240985474457e-05
8.653326663331665713e+02 3.377000394272736025e-05
8.662331165582791073e+02 3.291948977352899213e-05
8.671335667833916432e+02 3.244450909979079679e-05
8.680340170085041791e+02 3.224272127854616764e-05
8.689344672336167150e+02 3.219104019475491779e-05
8.698349174587293646e+02 3.228748234636679126e-05
8.707353676838419005e+02 3.256193349319843288e-05
8.716358179089544365e+02 3.292395237447490641e-05
8.725362681340669724e+02 3.321004033123996398e-05
8.734367183591795083e+02 3.324662899778412162e-05
8.743371685842921579e+02 3.301145517332775318e-05
8.752376188094046938e+02 3.277696364183956836e-05
8.761380690345172297e+02 3.283905044723788063e-05
8.770385192596297657e+02 3.322226059495940410e-05
8.779389694847423016e+02 3.373481566337697529e-05
8.788394197098548375e+02 3.423272597203386506e-05
8.797398699349674871e+02 3.470613447613149992e-05
8.806403201600800230e+02 3.516633664794834355e-05
8.815407703851925589e+02 3.562149511810043236e-05
8.824412206103050949e+02 3.610731926008509617e-05
8.833416708354176308e+02 3.666022019633880143e-05
8.842421210605301667e+02 3.731170970302529990e-05
8.851425712856428163e+02 3.801043598448244752e-05
8.860430215107553522e+02 3.864416739136320610e-05
8.869434717358678881e+02 3.916033654366099254e-05
8.878439219609804240e+02 3.956707330008058025e-05
8.887443721860929600e+02 3.993263115021613235e-05
8.896448224112056096e+02 4.036148386090186144e-05
8.905452726363181455e+02 4.087130434798994785e-05
8.914457228614306814e+02 4.139145329443299923e-05
8.923461730865432173e+02 4.173522474332715831e-05
8.932466233116557532e+02 4.175800917820180716e-05
8.941470735367682892e+02 4.157625130843219043e-05
8.950475237618809388e+02 4.137409509631656416e-05
8.959479739869934747e+02 4.134655336462389870e-05
8.968484242121060106e+02 4.171353382703464499e-05
8.977488744372185465e+02 4.248598122568267326e-05
8.986493246623310824e+02 4.345169230055332494e-05
8.995497748874437320e+02 4.437714759982542032e-05
9.004502251125562680e+02 4.521032581918425715e-05
9.013506753376688039e+02 4.597764409044974114e-05
9.022511255627813398e+02 4.671504516230203511e-05
9.031515757878938757e+02 4.754926976010212948e-05
9.040520260130064116e+02 4.860067347098431844e-05
9.049524762381190612e+02 4.982490694549463308e-05
9.058529264632315972e+02 5.100460223138622806e-05
9.067533766883441331e+02 5.194574379545315105e-05
9.076538269134566690e+02 5.250561564424876220e-05
9.085542771385692049e+02 5.261897600646250889e-05
9.094547273636817408e+02 5.247160654308568136e-05
9.103551775887943904e+02 5.232001853985626232e-05
9.112556278139069263e+02 5.231728335048204184e-05
9.121560780390194623e+02 5.253459904665654058e-05
9.130565282641319982e+02 5.297800638243003909e-05
9.139569784892445341e+02 5.352846014186581270e-05
9.148574287143571837e+02 5.413655391868834059e-05
9.157578789394697196e+02 5.497189442666426310e-05
9.166583291645822555e+02 5.613422947185444300e-05
9.175587793896947915e+02 5.746669395921710522e-05
9.184592296148073274e+02 5.872717302958554140e-05
9.193596798399198633e+02 5.978301202127781275e-05
9.202601300650325129e+02 6.068762507993491245e-05
9.211605802901450488e+02 6.149227396396430765e-05
9.220610305152575847e+02 6.213591377666114986e-05
9.229614807403701207e+02 6.270072477578454717e-05
9.238619309654826566e+02 6.343238795625532212e-05
9.247623811905953062e+02 6.448747381735481178e-05
9.256628314157078421e+02 6.592730370358000603e-05
9.265632816408203780e+02 6.772496046281537712e-05
9.274637318659329139e+02 6.986091579162405146e-05
9.283641820910454499e+02 7.233809475499444351e-05
9.292646323161579858e+02 7.493005758789258704e-05
9.301650825412706354e+02 7.719691740846108569e-05
9.310655327663831713e+02 7.895297538890129257e-05
9.319659829914957072e+02 8.043349129765862320e-05
9.328664332166082431e+02 8.168641346301940009e-05
9.337668834417207790e+02 8.244673359231162880e-05
9.346673336668334287e+02 8.278812612649635318e-05
9.355677838919459646e+02 8.298645099893048370e-05
9.364682341170585005e+02 8.305831629591864547e-05
9.373686843421710364e+02 8.314865481335848138e-05
9.382691345672835723e+02 8.363216780506700317e-05
9.391695847923961082e+02 8.470045573973348011e-05
9.400700350175087578e+02 8.641526204253085434e-05
9.409704852426212938e+02 8.896179181278255472e-05
9.418709354677338297e+02 9.241316014222653074e-05
9.427713856928463656e+02 9.637853723881757858e-05
9.436718359179589015e+02 1.000315037270566943e-04
9.445722861430714374e+02 1.025297222978649317e-04
9.454727363681840870e+02 1.037287721501860147e-04
9.463731865932966230e+02 1.040508749138947862e-04
9.472736368184091589e+02 1.037633392925702382e-04
9.481740870435216948e+02 1.031833193655929358e-04
9.490745372686342307e+02 1.030056780664594064e-04
9.499749874937468803e+02 1.038097675267413090e-04
9.508754377188594162e+02 1.055376054283728974e-04
9.517758879439719522e+02 1.077792100626710873e-04
9.526763381690844881e+02 1.100567516664922646e-04
9.535767883941970240e+02 1.119139895883217118e-04
9.544772386193095599e+02 1.133162955736608402e-04
9.553776888444222095e+02 1.146383011745403130e-04
9.562781390695347454e+02 1.162260174623461662e-04
9.571785892946472813e+02 1.178580493067213938e-04
9.580790395197598173e+02 1.190552448044787355e-04
9.589794897448723532e+02 1.195935906846137890e-04
9.598799399699850028e+02 1.192428080047697896e-04
9.607803901950975387e+02 1.179156033857059542e-04
9.616808404202100746e+02 1.160795411713371378e-04
9.625812906453226105e+02 1.143682264623690939e-04
9.634817408704351465e+02 1.131640880464954580e-04
9.643821910955476824e+02 1.127112131816082564e-04
9.652826413206603320e+02 1.129436577383250199e-04
9.661830915457728679e+02 1.134581672816134713e-04
9.670835417708854038e+02 1.139926409563460385e-04
9.679839919959979397e+02 1.148707691654579589e-04
9.688844422211104757e+02 1.167495252110474128e-04
9.697848924462230116e+02 1.198468291372744269e-04
9.706853426713356612e+02 1.238475189816810981e-04
9.715857928964481971e+02 1.283366052568251541e-04
9.724862431215607330e+02 1.326640669703770545e-04
9.733866933466732689e+02 1.362915440721316671e-04
9.742871435717858049e+02 1.394059862039464127e-04
9.751875937968984545e+02 1.425943778702188768e-04
9.760880440220109904e+02 1.462302040948659408e-04
9.769884942471235263e+02 1.504149749918481081e-04
9.778889444722360622e+02 1.548012397020830360e-04
9.787893946973485981e+02 1.588044173193357107e-04
9.796898449224611340e+02 1.624011644029413261e-04
9.805902951475737837e+02 1.657842537229434090e-04
9.814907453726863196e+02 1.689116206759216248e-04
9.823911955977988555e+02 1.719389174406696103e-04
9.832916458229113914e+02 1.748805222231419876e-04
9.841920960480239273e+02 1.775723357953272268e-04
9.850925462731365769e+02 1.802645330175751937e-04
9.859929964982491128e+02 1.834838008968931757e-04
9.868934467233616488e+02 1.871946987651842346e-04
9.877938969484741847e+02 1.905427172136502925e-04
9.886943471735867206e+02 1.925745624839529863e-04
9.895947973986992565e+02 1.931422410305888408e-04
9.904952476238119061e+02 1.929889701630858022e-04
9.913956978489244420e+02 1.930961376006119984e-04
9.922961480740369780e+02 1.939634662539473022e-04
9.931965982991495139e+02 1.952793833726629866e-04
9.940970485242620498e+02 1.966377931150590282e-04
9.949974987493745857e+02 1.984056359173353324e-04
9.958979489744872353e+02 2.010213798059995699e-04
9.967983991995997712e+02 2.042726983227859073e-04
9.976988494247123072e+02 2.077718832819816681e-04
9.985992996498248431e+02 2.112545289184853921e-04
9.994997498749373790e+02 2.144787457226657085e-04
1.000400200100050029e+03 2.178566596189910698e-04
1.001300650325162565e+03 2.227973887954514559e-04
1.002201100550275100e+03 2.305208381723643414e-04
1.003101550775387636e+03 2.407145347225305224e-04
1.004002001000500172e+03 2.516153703261695329e-04
1.004902451225612708e+03 2.613732651039203355e-04
1.005802901450725358e+03 2.689683651543840694e-04
1.006703351675837894e+03 2.741786837309640747e-04
1.007603801900950430e+03 2.772284005355293542e-04
1.008504252126062966e+03 2.788901399849363569e-04
1.009404702351175501e+03 2.805472592394579398e-04
1.010305152576288151e+03 2.831086694906700019e-04
1.011205602801400687e+03 2.863789153455071831e-04
1.012106053026513223e+03 2.902846702451146997e-04
1.013006503251625759e+03 2.947267282660126367e-04
1.013906953476738295e+03 2.988057851464907063e-04
1.014807403701850831e+03 3.020830184027027839e-04
1.015707853926963480e+03 3.049222500937002036e-04
1.016608304152076016e+03 3.075380016647041230e-04
1.017508754377188552e+03 3.101063303054368532e-04
1.018409204602301088e+03 3.128885729315933795e-04
1.019309654827413624e+03 3.165785257342416535e-04
1.020210105052526160e+03 3.221636714861517148e-04
1.021110555277638809e+03 3.296018307790424067e-04
1.022011005502751345e+03 3.383092266846712132e-04
1.022911455727863881e+03 3.483788712186151990e-04
1.023811905952976417e+03 3.599187038198868442e-04
1.024712356178089067e+03 3.724351334520018984e-04
1.025612806403201603e+03 3.851700676397857540e-04
1.026513256628314139e+03 3.974662614526621655e-04
1.027413706853426675e+03 4.089499779280460277e-04
1.028314157078539210e+03 4.194221138294917548e-04
1.029214607303651746e+03 4.298419996708043945e-04
1.030115057528764282e+03 4.420091557508881415e-04
1.031015507753876818e+03 4.563188793151123587e-04
1.031915957978989354e+03 4.711608075612673508e-04
1.032816408204101890e+03 4.847363020119871304e-04
1.033716858429214653e+03 4.968155124151318706e-04
1.034617308654327189e+03 5.084618448490639542e-04
1.035517758879439725e+03 5.206354713436554902e-04
1.036418209104552261e+03 5.335375093621907159e-04
1.037318659329664797e+03 5.464832948565784493e-04
1.038219109554777333e+03 5.589054742996238303e-04
1.039119559779889869e+03 5.710684949799091532e-04
1.040020010005002405e+03 5.837163276943358250e-04
1.040920460230114941e+03 5.962973097030056183e-04
1.041820910455227477e+03 6.061425643103679093e-04
1.042721360680340013e+03 6.126685581549877468e-04
1.043621810905452776e+03 6.183172102869119707e-04
1.044522261130565312e+03 6.253944798218867953e-04
1.045422711355677848e+03 6.347537871691216055e-04
1.046323161580790384e+03 6.461974906235666690e-04
1.047223611805902920e+03 6.585861232001612945e-04
1.048124062031015455e+03 6.711140466271752099e-04
1.049024512256127991e+03 6.842266244787655917e-04
1.049924962481240527e+03 6.972200921930367563e-04
1.050825412706353063e+03 7.073363507988618881e-04
1.051725862931465599e+03 7.127160177018511183e-04
1.052626313156578135e+03 7.143192073233799698e-04
1.053526763381690898e+03 7.147609277516560377e-04
1.054427213606803434e+03 7.163182767620762236e-04
1.055327663831915970e+03 7.189888128667534491e-04
1.056228114057028506e+03 7.215640841855328448e-04
1.057128564282141042e+03 7.231799158952387837e-04
1.058029014507253578e+03 7.243887121999282273e-04
1.058929464732366114e+03 7.272343148418769585e-04
1.059829914957478650e+03 7.318707754568046968e-04
1.060730365182591186e+03 7.352364707959591896e-04
1.061630815407703722e+03 7.340003842587676606e-04
1.062531265632816257e+03 7.282000324961894694e-04
1.063431715857929021e+03 7.205479020886991883e-04
1.064332166083041557e+03 7.128402780822633376e-04
1.065232616308154093e+03 7.057744492170916345e-04
1.066133066533266629e+03 7.000836814848585606e-04
1.067033516758379164e+03 6.967452264560582489e-04
1.067933966983491700e+03 6.960425481024260907e-04
1.068834417208604236e+03 6.970934463095912557e-04
1.069734867433716772e+03 6.984597293421070151e-04
1.070635317658829308e+03 6.999875322442300311e-04
1.071535767883941844e+03 7.028723561011974682e-04
1.072436218109054380e+03 7.079623135567189151e-04
1.073336668334167143e+03 7.154619767207925961e-04
1.074237118559279679e+03 7.228304300089831089e-04
1.075137568784392215e+03 7.252715041552481364e-04
1.076038019009504751e+03 7.212184348564563236e-04
1.076938469234617287e+03 7.135592538608788275e-04
1.077838919459729823e+03 7.051713944543407065e-04
1.078739369684842359e+03 6.956761061380040915e-04
1.079639819909954895e+03 6.835454324428288627e-04
1.080540270135067431e+03 6.704191931890449542e-04
1.081440720360179967e+03 6.595134229780853091e-04
1.082341170585292502e+03 6.522563499621980392e-04
1.083241620810405038e+03 6.474606426770216109e-04
1.084142071035517802e+03 6.425766210731096708e-04
1.085042521260630338e+03 6.358581308288659660e-04
1.085942971485742873e+03 6.260507278334234791e-04
1.086843421710855409e+03 6.129062994838739824e-04
1.087743871935967945e+03 5.993953807345891093e-04
1.088644322161080481e+03 5.892402597338716611e-04
1.089544772386193017e+03 5.839655773781924405e-04
1.090445222611305553e+03 5.824998514458002525e-04
1.091345672836418089e+03 5.827607862188392569e-04
1.092246123061530625e+03 5.842139217285685637e-04
1.093146573286643161e+03 5.870152578327991408e-04
1.094047023511755924e+03 5.899056131145592827e-04
1.094947473736868460e+03 5.909418646300935345e-04
1.095847923961980996e+03 5.882055285148712551e-04
1.096748374187093532e+03 5.796491692876139896e-04
1.097648824412206068e+03 5.644781359195082723e-04
1.098549274637318604e+03 5.442724460102292333e-04
1.099449724862431140e+03 5.222873790575698061e-04
1.100350175087543676e+03 5.030332983360269504e-04
1.101250625312656211e+03 4.900047066180968731e-04
1.102151075537768747e+03 4.833113239693234220e-04
1.103051525762881283e+03 4.795878465631517882e-04
1.103951975987994047e+03 4.726405924083012080e-04
1.104852426213106583e+03 4.583709557659741674e-04
1.105752876438219118e+03 4.396106493649532486e-04
1.106653326663331654e+03 4.217562175222217707e-04
1.107553776888444190e+03 4.067790481218607878e-04
1.108454227113556726e+03 3.940082692855779393e-04
1.109354677338669262e+03 3.822902723615494115e-04
1.110255127563781798e+03 3.721512633050832303e-04
1.111155577788894334e+03 3.653782042418594520e-04
1.112056028014006870e+03 3.613954842893553950e-04
1.112956478239119406e+03 3.570823035612281232e-04
1.113856928464232169e+03 3.492731224842872948e-04
1.114757378689344705e+03 3.366492841283261813e-04
1.115657828914457241e+03 3.208075378642301985e-04
1.116558279139569777e+03 3.038262107400508316e-04
1.117458729364682313e+03 2.871727931931591926e-04
1.118359179589794849e+03 2.722336348232351380e-04
1.119259629814907385e+03 2.596865164525303930e-04
1.120160080040019920e+03 2.497400295717658574e-04
1.121060530265132456e+03 2.422802385432286994e-04
1.121960980490244992e+03 2.368561533017542902e-04
1.122861430715357528e+03 2.335405479143509244e-04
1.123761880940470292e+03 2.323261791814926799e-04
1.124662331165582827e+03 2.319977717640222994e-04
1.125562781390695363e+03 2.306210389849858665e-04
1.126463231615807899e+03 2.269800995165961613e-04
1.127363681840920435e+03 2.209206823433769429e-04
1.128264132066032971e+03 2.129419708545860618e-04
1.129164582291145507e+03 2.035233950121442196e-04
1.130065032516258043e+03 1.933218806423154601e-04
1.130965482741370579e+03 1.834639518329213748e-04
1.131865932966483115e+03 1.745400553360781058e-04
1.132766383191595651e+03 1.664281724893083587e-04
1.133666833416708187e+03 1.589431090455752896e-04
1.134567283641820950e+03 1.519326320015392862e-04
1.135467733866933486e+03 1.454689830398155082e-04
1.136368184092046022e+03 1.400691258012004201e-04
1.137268634317158558e+03 1.358939648802007163e-04
1.138169084542271094e+03 1.323514462943099464e-04
1.139069534767383630e+03 1.287243834714568551e-04
1.139969984992496165e+03 1.246787235091405396e-04
1.140870435217608701e+03 1.200382941663995912e-04
1.141770885442721237e+03 1.148914335751763534e-04
1.142671335667833773e+03 1.096900585977753290e-04
1.143571785892946309e+03 1.046495835257951415e-04
1.144472236118059072e+03 9.986989334450796258e-05
1.145372686343171608e+03 9.561774717638754997e-05
1.146273136568284144e+03 9.209907920460096739e-05
1.147173586793396680e+03 8.919110861555339391e-05
1.148074037018509216e+03 8.672518467188064593e-05
1.148974487243621752e+03 8.484165914059679564e-05
1.149874937468734288e+03 8.385350411110236097e-05
1.150775387693846824e+03 8.384703604282161226e-05
1.151675837918959360e+03 8.460709569151567686e-05
1.152576288144071896e+03 8.583549666684069167e-05
1.153476738369184432e+03 8.736422576277727342e-05
1.154377188594297195e+03 8.927492364137136656e-05
1.155277638819409731e+03 9.155277344331980052e-05
1.156178089044522267e+03 9.397158633828540453e-05
1.157078539269634803e+03 9.633173319268478437e-05
1.157978989494747339e+03 9.848138819064822681e-05
1.158879439719859874e+03 1.005320885877762941e-04
1.159779889944972410e+03 1.028035139647534861e-04
1.160680340170084946e+03 1.053719216030997208e-04
1.161580790395197482e+03 1.078744192068433692e-04
1.162481240620310018e+03 1.098124197979268198e-04
1.163381690845422554e+03 1.110057854209316603e-04
1.164282141070535317e+03 1.115984410793196727e-04
1.165182591295647853e+03 1.119121558482386470e-04
1.166083041520760389e+03 1.125170331563516541e-04
1.166983491745872925e+03 1.140495978872908562e-04
1.167883941970985461e+03 1.165061123791158318e-04
1.168784392196097997e+03 1.189511904687500453e-04
1.169684842421210533e+03 1.206624918681646922e-04
1.170585292646323069e+03 1.219997821379680886e-04
1.171485742871435605e+03 1.235087972416938694e-04
1.172386193096548141e+03 1.252276824120395816e-04
1.173286643321660677e+03 1.269693897851208978e-04
1.174187093546773440e+03 1.289619904197479247e-04
1.175087543771885976e+03 1.317168577533948254e-04
1.175987993996998512e+03 1.352707188512325247e-04
1.176888444222111048e+03 1.391798312199336667e-04
1.177788894447223583e+03 1.430042419278971372e-04
1.178689344672336119e+03 1.464048652345496869e-04
1.179589794897448655e+03 1.494007547280500482e-04
1.180490245122561191e+03 1.526269721736961448e-04
1.181390695347673727e+03 1.568612762530802542e-04
1.182291145572786263e+03 1.621730770041927296e-04
1.183191595797898799e+03 1.678360194767812552e-04
1.184092046023011562e+03 1.731632524730424678e-04
1.184992496248124098e+03 1.777814008657827179e-04
1.185892946473236634e+03 1.814601155281820059e-04
1.186793396698349170e+03 1.843675429327447206e-04
1.187693846923461706e+03 1.872032989636582083e-04
1.188594297148574242e+03 1.906956479512951605e-04
1.189494747373686778e+03 1.947765947286041123e-04
1.190395197598799314e+03 1.989600428546028476e-04
1.191295647823911850e+03 2.031305361327761020e-04
1.192196098049024386e+03 2.071720795391690485e-04
1.193096548274136921e+03 2.105922750777047066e-04
1.193996998499249457e+03 2.132543280998782547e-04
1.194897448724362221e+03 2.159051754703133965e-04
1.195797898949474757e+03 2.190770960402996042e-04
1.196698349174587293e+03 2.221887727790209852e-04
1.197598799399699828e+03 2.244921912363862014e-04
1.198499249624812364e+03 2.262733492572199941e-04
1.199399699849924900e+03 2.287519204479920420e-04
1.200300150075037436e+03 2.328596830039362869e-04
1.201200600300149972e+03 2.383433710890396694e-04
1.202101050525262508e+03 2.442871567668241728e-04
1.203001500750375044e+03 2.501707284526332007e-04
1.203901950975487580e+03 2.555616617371300053e-04
1.204802401200600343e+03 2.597791322548888651e-04
1.205702851425712879e+03 2.627989999875679711e-04
1.206603301650825415e+03 2.654637574488174427e-04
1.207503751875937951e+03 2.684058618387004380e-04
1.208404202101050487e+03 2.715974429187523425e-04
1.209304652326163023e+03 2.747550805083534098e-04
1.210205102551275559e+03 2.775497805355443826e-04
1.211105552776388095e+03 2.798707982133063674e-04
1.212006003001500630e+03 2.819289249911353652e-04
1.212906453226613166e+03 2.835101186293337880e-04
1.213806903451725702e+03 2.845729958467591394e-04
1.214707353676838466e+03 2.864237159036619323e-04
1.215607803901951002e+03 2.905707542092485804e-04
1.216508254127063537e+03 2.978698179805374475e-04
1.217408704352176073e+03 3.081435070970270015e-04
1.218309154577288609e+03 3.198342222797052902e-04
1.219209604802401145e+03 3.311182106335902511e-04
1.220110055027513681e+03 3.411157224702266182e-04
1.221010505252626217e+03 3.508280173438954944e-04
1.221910955477738753e+03 3.621909617435445849e-04
1.222811405702851289e+03 3.760993170146378125e-04
1.223711855927963825e+03 3.923921155084496813e-04
1.224612306153076588e+03 4.101273437225481304e-04
1.225512756378189124e+03 4.273713298931324086e-04
1.226413206603301660e+03 4.422013300590337372e-04
1.227313656828414196e+03 4.544407648462197983e-04
1.228214107053526732e+03 4.656766710405597530e-04
1.229114557278639268e+03 4.775177226169648572e-04
1.230015007503751804e+03 4.905900905965100613e-04
1.230915457728864340e+03 5.050211599156369680e-04
1.231815907953976875e+03 5.219107507262141536e-04
1.232716358179089411e+03 5.427877544031915876e-04
1.233616808404201947e+03 5.675930005869298358e-04
1.234517258629314711e+03 5.944824757146121436e-04
1.235417708854427246e+03 6.198062337446322463e-04
1.236318159079539782e+03 6.400952997888310512e-04
1.237218609304652318e+03 6.562322267358203058e-04
1.238119059529764854e+03 6.722088944824382989e-04
1.239019509754877390e+03 6.904053835971459647e-04
1.239919959979989926e+03 7.104612902559745424e-04
1.240820410205102462e+03 7.308068258837840730e-04
1.241720860430214998e+03 7.509660559012349681e-04
1.242621310655327534e+03 7.699389803451335904e-04
1.243521760880440070e+03 7.835131977162444229e-04
1.244422211105552606e+03 7.886823071178885973e-04
1.245322661330665369e+03 7.886724824797723080e-04
1.246223111555777905e+03 7.899941564596117856e-04
1.247123561780890441e+03 7.952770334965084597e-04
1.248024012006002977e+03 8.014897575277894759e-04
1.248924462231115513e+03 8.063240626840298148e-04
1.249824912456228049e+03 8.105271836919626964e-04
1.250725362681340584e+03 8.142866265642827736e-04
1.251625812906453120e+03 8.160971791248017998e-04
1.252526263131565656e+03 8.165304789649804060e-04
1.253426713356678192e+03 8.185466301756265991e-04
1.254327163581790728e+03 8.228497895565346906e-04
1.255227613806903491e+03 8.279802983497942760e-04
1.256128064032016027e+03 8.319733402854120018e-04
1.257028514257128563e+03 8.336994480135167217e-04
1.257928964482241099e+03 8.335350621733294673e-04
1.258829414707353635e+03 8.325124937141412801e-04
1.259729864932466171e+03 8.324398118299752370e-04
1.260630315157578707e+03 8.348743528872149900e-04
1.261530765382691243e+03 8.403624404715360780e-04
1.262431215607803779e+03 8.486376370373756089e-04
1.263331665832916315e+03 8.585804754952818842e-04
1.264232116058028851e+03 8.691357145765275533e-04
1.265132566283141614e+03 8.814788223207762436e-04
1.266033016508254150e+03 8.973320570938204824e-04
1.266933466733366686e+03 9.157853709803224313e-04
1.267833916958479222e+03 9.351954902029835587e-04
1.268734367183591758e+03 9.560198082185844071e-04
1.269634817408704293e+03 9.788285045465726537e-04
1.270535267633816829e+03 1.002384271627669186e-03
1.271435717858929365e+03 1.025858792847556640e-03
1.272336168084041901e+03 1.049669138789177669e-03
1.273236618309154437e+03 1.073777480314916030e-03
1.274137068534266973e+03 1.098128138061350628e-03
1.275037518759379736e+03 1.122951234204347826e-03
1.275937968984492272e+03 1.147239492474375283e-03
1.276838419209604808e+03 1.169762166170810157e-03
1.277738869434717344e+03 1.190401280173911851e-03
1.278639319659829880e+03 1.210811303121783105e-03
1.279539769884942416e+03 1.232380401413997462e-03
1.280440220110054952e+03 1.253757030458159741e-03
1.281340670335167488e+03 1.273003334159664981e-03
1.282241120560280024e+03 1.289960178484391481e-03
1.283141570785392560e+03 1.303531312446261272e-03
1.284042021010505096e+03 1.311617072073269176e-03
1.284942471235617859e+03 1.315823830123224319e-03
1.285842921460730395e+03 1.321293102831880457e-03
1.286743371685842931e+03 1.331514341055250019e-03
1.287643821910955467e+03 1.346975240628160014e-03
1.288544272136068003e+03 1.366287435573892376e-03
1.289444722361180538e+03 1.387914202156799622e-03
1.290345172586293074e+03 1.410498317148658727e-03
1.291245622811405610e+03 1.431692378260681492e-03
1.292146073036518146e+03 1.448790713172825413e-03
1.293046523261630682e+03 1.458777908067040475e-03
1.293946973486743218e+03 1.460753350278424286e-03
1.294847423711855754e+03 1.458414579853775130e-03
1.295747873936968517e+03 1.457693012671094782e-03
1.296648324162081053e+03 1.462235329523489539e-03
1.297548774387193589e+03 1.470963086425314433e-03
1.298449224612306125e+03 1.482140575240753749e-03
1.299349674837418661e+03 1.497207182594397249e-03
1.300250125062531197e+03 1.519304007614271160e-03
1.301150575287643733e+03 1.548407748365186786e-03
1.302051025512756269e+03 1.580427856972192995e-03
1.302951475737868805e+03 1.612372515982669289e-03
1.303851925962981340e+03 1.644815596168440561e-03
1.304752376188093876e+03 1.677158893404270910e-03
1.305652826413206640e+03 1.706074127571682300e-03
1.306553276638319176e+03 1.731088157886543884e-03
1.307453726863431712e+03 1.756074582822245373e-03
1.308354177088544247e+03 1.783927440797474515e-03
1.309254627313656783e+03 1.812930289849408070e-03
1.310155077538769319e+03 1.840986477265907318e-03
1.311055527763881855e+03 1.869014361680152413e-03
1.311955977988994391e+03 1.898310731565937010e-03
1.312856428214106927e+03 1.929177959339077597e-03
1.313756878439219463e+03 1.962280571359048022e-03
1.314657328664331999e+03 1.997131422991510821e-03
1.315557778889444762e+03 2.031788520806307018e-03
1.316458229114557298e+03 2.066356168184544945e-03
1.317358679339669834e+03 2.105509344899745682e-03
1.318259129564782370e+03 2.155242391679431865e-03
1.319159579789894906e+03 2.216523490650661784e-03
1.320060030015007442e+03 2.283049493768365707e-03
1.320960480240119978e+03 2.347884800709730026e-03
1.321860930465232514e+03 2.411350612315918494e-03
1.322761380690345050e+03 2.476555514547162332e-03
1.323661830915457585e+03 2.542606191271786810e-03
1.324562281140570121e+03 2.607217406372795004e-03
1.325462731365682885e+03 2.670726434654212798e-03
1.326363181590795421e+03 2.736201839424277655e-03
1.327263631815907956e+03 2.807541181503471310e-03
1.328164082041020492e+03 2.885974175239947037e-03
1.329064532266133028e+03 2.967570328005041634e-03
1.329964982491245564e+03 3.048010573063868363e-03
1.330865432716358100e+03 3.129094583945344569e-03
1.331765882941470636e+03 3.214848353746208726e-03
1.332666333166583172e+03 3.305308709079910964e-03
1.333566783391695708e+03 3.396467585412623995e-03
1.334467233616808244e+03 3.485225578903571562e-03
1.335367683841921007e+03 3.576039688179122669e-03
1.336268134067033543e+03 3.676318819031366633e-03
1.337168584292146079e+03 3.789704029359052158e-03
1.338069034517258615e+03 3.917012974494708116e-03
1.338969484742371151e+03 4.050997268931380395e-03
1.339869934967483687e+03 4.176127445822212444e-03
1.340770385192596223e+03 4.284379934089491138e-03
1.341670835417708759e+03 4.382666276686458806e-03
1.342571285642821294e+03 4.484828845627694335e-03
1.343471735867933830e+03 4.593050614284182979e-03
1.344372186093046366e+03 4.696763803650794850e-03
1.345272636318158902e+03 4.797250104598657292e-03
1.346173086543271666e+03 4.907554566467789078e-03
1.347073536768384201e+03 5.026119966025650865e-03
1.347973986993496737e+03 5.142098310313471428e-03
1.348874437218609273e+03 5.253541974220942226e-03
1.349774887443721809e+03 5.365537503566724861e-03
1.350675337668834345e+03 5.478302506619905747e-03
1.351575787893946881e+03 5.591239136667993347e-03
1.352476238119059417e+03 5.720158659421794439e-03
1.353376688344171953e+03 5.882874193945472271e-03
1.354277138569284489e+03 6.072284795008526734e-03
1.355177588794397025e+03 6.263345810739610886e-03
1.356078039019509788e+03 6.450036889480818998e-03
1.356978489244622324e+03 6.653803597715715265e-03
1.357878939469734860e+03 6.893502195601616638e-03
1.358779389694847396e+03 7.168640722004108838e-03
1.359679839919959932e+03 7.469960929285644410e-03
1.360580290145072468e+03 7.793625458300562636e-03
1.361480740370185003e+03 8.138540705490082683e-03
1.362381190595297539e+03 8.488622172419361261e-03
1.363281640820410075e+03 8.811866609184872481e-03
1.364182091045522611e+03 9.096302442975618546e-03
1.365082541270635147e+03 9.376661124782612738e-03
1.365982991495747910e+03 9.708374827395912718e-03
1.366883441720860446e+03 1.009793417507085997e-02
1.367783891945972982e+03 1.047686355586198610e-02
1.368684342171085518e+03 1.078143149091655671e-02
1.369584792396198054e+03 1.101019493050029233e-02
1.370485242621310590e+03 1.120736030083315134e-02
1.371385692846423126e+03 1.142775183979230329e-02
1.372286143071535662e+03 1.169803476707392820e-02
1.373186593296648198e+03 1.202252562106249575e-02
1.374087043521760734e+03 1.239269953986753443e-02
1.374987493746873270e+03 1.280448160882614525e-02
1.375887943971986033e+03 1.326680799446689277e-02
1.376788394197098569e+03 1.376460947440575656e-02
1.377688844422211105e+03 1.428576269771007073e-02
1.378589294647323641e+03 1.485096835705625520e-02
1.379489744872436177e+03 1.546817696036467335e-02
1.380390195097548713e+03 1.612665599833522020e-02
1.381290645322661248e+03 1.683827577655051810e-02
1.382191095547773784e+03 1.764863508240465534e-02
1.383091545772886320e+03 1.856245949001918832e-02
1.383991995997998856e+03 1.952481584179035015e-02
1.384892446223111392e+03 2.048726296003843678e-02
1.385792896448224155e+03 2.144717212412842675e-02
1.386693346673336691e+03 2.245165904096792925e-02
1.387593796898449227e+03 2.351997268093793808e-02
1.388494247123561763e+03 2.458081294531050745e-02
1.389394697348674299e+03 2.554093545390130268e-02
1.390295147573786835e+03 2.641782027849601255e-02
1.391195597798899371e+03 2.731626379859838569e-02
1.392096048024011907e+03 2.833159575973615701e-02
1.392996498249124443e+03 2.952586840414544653e-02
1.393896948474236979e+03 3.092649549996002306e-02
1.394797398699349515e+03 3.254674778711690725e-02
1.395697848924462278e+03 3.435024033363159174e-02
1.396598299149574814e+03 3.618548319941744529e-02
1.397498749374687350e+03 3.787804716420963003e-02
1.398399199599799886e+03 3.929667101251945599e-02
1.399299649824912422e+03 4.030653856809570529e-02
1.400200100050024957e+03 4.083316165634562345e-02
1.401100550275137493e+03 4.095893205801535986e-02
1.402001000500250029e+03 4.082599409182621070e-02
1.402901450725362565e+03 4.042467203461945491e-02
1.403801900950475101e+03 3.955071409603659605e-02
1.404702351175587637e+03 3.797064518543381145e-02
1.405602801400700173e+03 3.566538993087247505e-02
1.406503251625812936e+03 3.293959929988205665e-02
1.407403701850925472e+03 3.022758619428220564e-02
1.408304152076038008e+03 2.776322368082024400e-02
1.409204602301150544e+03 2.554831824220119355e-02
1.410105052526263080e+03 2.350851032027671123e-02
1.411005502751375616e+03 2.158389803552867095e-02
1.411905952976488152e+03 1.977269708754329086e-02
1.412806403201600688e+03 1.813820170652143127e-02
1.413706853426713224e+03 1.674581068419463137e-02
1.414607303651825760e+03 1.558926662242347133e-02
1.415507753876938295e+03 1.459736885540307595e-02
1.416408204102051059e+03 1.367335714593663314e-02
1.417308654327163595e+03 1.273982350617602725e-02
1.418209104552276131e+03 1.180381019404094615e-02
1.419109554777388666e+03 1.093399472732324747e-02
1.420010005002501202e+03 1.015746479858395737e-02
1.420910455227613738e+03 9.451705910101450281e-03
1.421810905452726274e+03 8.791991098774227381e-03
1.422711355677838810e+03 8.166484356356343635e-03
1.423611805902951346e+03 7.580662957754271021e-03
1.424512256128063882e+03 7.053778190261749195e-03
1.425412706353176418e+03 6.595976607807114457e-03
1.426313156578289181e+03 6.189461040798937413e-03
1.427213606803401717e+03 5.818325046204141267e-03
1.428114057028514253e+03 5.493576303949246863e-03
1.429014507253626789e+03 5.229102420346158284e-03
1.429914957478739325e+03 5.019968871230176197e-03
1.430815407703851861e+03 4.849806899690123525e-03
1.431715857928964397e+03 4.700591256134515131e-03
1.432616308154076933e+03 4.559751040579882245e-03
1.433516758379189469e+03 4.427480711507325410e-03
1.434417208604302004e+03 4.305665168688083654e-03
1.435317658829414540e+03 4.184018677724825330e-03
1.436218109054527304e+03 4.053395641837635559e-03
1.437118559279639840e+03 3.912990823837451254e-03
1.438019009504752376e+03 3.762121903505030122e-03
1.438919459729864911e+03 3.604754308422002725e-03
1.439819909954977447e+03 3.448084793392452128e-03
1.440720360180089983e+03 3.299867505567919291e-03
1.441620810405202519e+03 3.171802829215059072e-03
1.442521260630315055e+03 3.071009497271266677e-03
1.443421710855427591e+03 2.994984608334561559e-03
1.444322161080540127e+03 2.935166438874769329e-03
1.445222611305652663e+03 2.878550779214415767e-03
1.446123061530765426e+03 2.816831396467361220e-03
1.447023511755877962e+03 2.751523334851169872e-03
1.447923961980990498e+03 2.685997811878389468e-03
1.448824412206103034e+03 2.624703247706534470e-03
1.449724862431215570e+03 2.571830234946195087e-03
1.450625312656328106e+03 2.526200254961589748e-03
1.451525762881440642e+03 2.481598751296545599e-03
1.452426213106553178e+03 2.430542478003290974e-03
1.453326663331665713e+03 2.368146629551659728e-03
1.454227113556778249e+03 2.296432183360284582e-03
1.455127563781890785e+03 2.224051382832011210e-03
1.456028014007003321e+03 2.158167930771140181e-03
1.456928464232116085e+03 2.101078464800100465e-03
1.457828914457228620e+03 2.051822590713070060e-03
1.458729364682341156e+03 2.008016259126880164e-03
1.459629814907453692e+03 1.971657505908313429e-03
1.460530265132566228e+03 1.945148686842497650e-03
1.461430715357678764e+03 1.923927864380580322e-03
1.462331165582791300e+03 1.900005093389829256e-03
1.463231615807903836e+03 1.867476347288310381e-03
1.464132066033016372e+03 1.822031066798592914e-03
1.465032516258128908e+03 1.765253105913782350e-03
1.465932966483241444e+03 1.704494377441862678e-03
1.466833416708354207e+03 1.647683498759046480e-03
1.467733866933466743e+03 1.601435447729674527e-03
1.468634317158579279e+03 1.565433396727967073e-03
1.469534767383691815e+03 1.532710599389276989e-03
1.470435217608804351e+03 1.499104219935405843e-03
1.471335667833916887e+03 1.465654240010713389e-03
1.472236118059029423e+03 1.433816525436558929e-03
1.473136568284141958e+03 1.406438331728885769e-03
1.474037018509254494e+03 1.386571938109626293e-03
1.474937468734367030e+03 1.372675526707285059e-03
1.475837918959479566e+03 1.360091510233690272e-03
1.476738369184592329e+03 1.343071057349924224e-03
1.477638819409704865e+03 1.316346920303418464e-03
1.478539269634817401e+03 1.281696040511095917e-03
1.479439719859929937e+03 1.244839570343820537e-03
1.480340170085042473e+03 1.208310844850849853e-03
1.481240620310155009e+03 1.175120787344384769e-03
1.482141070535267545e+03 1.149751040344153003e-03
1.483041520760380081e+03 1.133533621424613743e-03
1.483941970985492617e+03 1.122938849544049015e-03
1.484842421210605153e+03 1.112040259980979356e-03
1.485742871435717689e+03 1.098979823632317008e-03
1.486643321660830452e+03 1.089461641823463202e-03
1.487543771885942988e+03 1.087796215808433655e-03
1.488444222111055524e+03 1.090531040416905769e-03
1.489344672336168060e+03 1.092330166829447256e-03
1.490245122561280596e+03 1.090930997006664231e-03
1.491145572786393132e+03 1.084620899928792409e-03
1.492046023011505667e+03 1.071670165034495446e-03
1.492946473236618203e+03 1.054824033511086697e-03
1.493846923461730739e+03 1.040271136667625732e-03
1.494747373686843275e+03 1.030434172536617366e-03
1.495647823911955811e+03 1.022126907030377610e-03
1.496548274137068574e+03 1.010243176314986344e-03
1.497448724362181110e+03 9.907565278440692066e-04
1.498349174587293646e+03 9.632451157705495572e-04
1.499249624812406182e+03 9.320206343500741890e-04
1.500150075037518718e+03 9.028147112132388482e-04
1.501050525262631254e+03 8.784553611997465358e-04
1.501950975487743790e+03 8.586576424555802467e-04
1.502851425712856326e+03 8.415323688174226532e-04
1.503751875937968862e+03 8.252439327752601620e-04
1.504652326163081398e+03 8.097089300011056602e-04
1.505552776388193934e+03 7.964384031236196705e-04
1.506453226613306470e+03 7.860813979657227651e-04
1.507353676838419233e+03 7.779177421368358575e-04
1.508254127063531769e+03 7.700059949531997284e-04
1.509154577288644305e+03 7.608830303987815409e-04
1.510055027513756841e+03 7.519727200273283989e-04
1.510955477738869376e+03 7.450594593440237109e-04
1.511855927963981912e+03 7.397084246198739298e-04
1.512756378189094448e+03 7.327419065020683662e-04
1.513656828414206984e+03 7.208344273211361080e-04
1.514557278639319520e+03 7.050880989131764597e-04
1.515457728864432056e+03 6.888286169824618102e-04
1.516358179089544592e+03 6.734941522523520694e-04
1.517258629314657355e+03 6.601332874165753793e-04
1.518159079539769891e+03 6.491214863023312028e-04
1.519059529764882427e+03 6.384713841754901869e-04
1.519959979989994963e+03 6.251148433431216473e-04
1.520860430215107499e+03 6.081514496276201011e-04
1.521760880440220035e+03 5.898595629351755572e-04
1.522661330665332571e+03 5.739793635013228611e-04
1.523561780890445107e+03 5.627487425242475591e-04
1.524462231115557643e+03 5.551111377764158779e-04
1.525362681340670179e+03 5.486677672241373812e-04
1.526263131565782714e+03 5.434056867008546596e-04
1.527163581790895478e+03 5.413977030934075986e-04
1.528064032016008014e+03 5.423472381525591864e-04
1.528964482241120550e+03 5.431202198755533291e-04
1.529864932466233086e+03 5.420190610387377872e-04
1.530765382691345621e+03 5.390427934220567811e-04
1.531665832916458157e+03 5.343003600349062162e-04
1.532566283141570693e+03 5.288693511189304338e-04
1.533466733366683229e+03 5.243167543258658077e-04
1.534367183591795765e+03 5.217269611329854000e-04
1.535267633816908301e+03 5.216678089440909306e-04
1.536168084042020837e+03 5.233830024747134543e-04
1.537068534267133600e+03 5.255435822291115548e-04
1.537968984492246136e+03 5.278407852692446100e-04
1.538869434717358672e+03 5.295014285463160936e-04
1.539769884942471208e+03 5.282043291695270306e-04
1.540670335167583744e+03 5.215253394749418689e-04
1.541570785392696280e+03 5.097575889017886674e-04
1.542471235617808816e+03 4.961711032472997107e-04
1.543371685842921352e+03 4.831818704747229093e-04
1.544272136068033888e+03 4.717935626743375438e-04
1.545172586293146423e+03 4.625649021674922939e-04
1.546073036518258959e+03 4.547000785328646124e-04
1.546973486743371723e+03 4.473322130969449757e-04
1.547873936968484259e+03 4.403046351953527823e-04
1.548774387193596795e+03 4.329456870036035377e-04
1.549674837418709330e+03 4.242481242309289915e-04
1.550575287643821866e+03 4.150158738757479923e-04
1.551475737868934402e+03 4.075676239083704522e-04
1.552376188094046938e+03 4.029251139911607443e-04
1.553276638319159474e+03 4.007404885012434866e-04
1.554177088544272010e+03 4.006552789635874513e-04
1.555077538769384546e+03 4.013145005314942360e-04
1.555977988994497082e+03 3.991774706338769934e-04
1.556878439219609618e+03 3.920964331684078622e-04
1.557778889444722381e+03 3.821995427659605443e-04
1.558679339669834917e+03 3.733435973562101171e-04
1.559579789894947453e+03 3.679256136023477636e-04
1.560480240120059989e+03 3.653286735218612717e-04
1.561380690345172525e+03 3.627157722187547605e-04
1.562281140570285061e+03 3.587588729029151887e-04
1.563181590795397597e+03 3.552803278505581980e-04
1.564082041020510133e+03 3.538434995918581243e-04
1.564982491245622668e+03 3.541360355502063458e-04
1.565882941470735204e+03 3.550387185435686780e-04
1.566783391695847740e+03 3.550816562939676144e-04
1.567683841920960504e+03 3.528603108107520605e-04
1.568584292146073039e+03 3.466141848214557460e-04
1.569484742371185575e+03 3.345951557095097162e-04
1.570385192596298111e+03 3.170766662808580799e-04
1.571285642821410647e+03 2.965983876636844874e-04
1.572186093046523183e+03 2.759260228141842040e-04
1.573086543271635719e+03 2.563600889809231260e-04
1.573986993496748255e+03 2.377741935345605332e-04
1.574887443721860791e+03 2.192960044331414987e-04
1.575787893946973327e+03 1.999559502824816164e-04
1.576688344172085863e+03 1.795622536259702687e-04
1.577588794397198626e+03 1.594430325626862151e-04
1.578489244622311162e+03 1.412559241387112636e-04
1.579389694847423698e+03 1.259209185530959856e-04
1.580290145072536234e+03 1.136000703314540090e-04
1.581190595297648770e+03 1.039467347216647172e-04
1.582091045522761306e+03 9.639463922741835168e-05
1.582991495747873842e+03 9.039858366099296069e-05
1.583891945972986377e+03 8.553554235585453594e-05
1.584792396198098913e+03 8.150447503498252540e-05
1.585692846423211449e+03 7.809587546776196852e-05
1.586593296648323985e+03 7.516304433955837700e-05
1.587493746873436749e+03 7.260148738083918325e-05
1.588394197098549284e+03 7.033523978283488744e-05
1.589294647323661820e+03 6.830793657434486126e-05
1.590195097548774356e+03 6.647694338288563610e-05
1.591095547773886892e+03 6.480943812525755902e-05
1.591995997998999428e+03 6.327974574827823623e-05
1.592896448224111964e+03 6.186749007420880330e-05
1.593796898449224500e+03 6.055628812757032648e-05
1.594697348674337036e+03 5.933281136168409061e-05
1.595597798899449572e+03 5.818609957003227455e-05
1.596498249124562108e+03 5.710705184741042588e-05
1.597398699349674871e+03 5.608804362738913183e-05
1.598299149574787407e+03 5.512263486068744980e-05
1.599199599799899943e+03 5.420534500755543630e-05
1.600100050025012479e+03 5.333147764996188191e-05
1.601000500250125015e+03 5.249698240020990106e-05
1.601900950475237551e+03 5.169834515798532842e-05
1.602801400700350086e+03 5.093250013938682090e-05
1.603701850925462622e+03 5.019675878946189864e-05
1.604602301150575158e+03 4.948875190584486276e-05
1.605502751375687694e+03 4.880638218724546066e-05
1.606403201600800230e+03 4.814778507319124860e-05
1.607303651825912766e+03 4.751129622694995840e-05
1.608204102051025529e+03 4.689542437818483962e-05
1.609104552276138065e+03 4.629882851813348386e-05
1.610005002501250601e+03 4.572029865117903255e-05
1.610905452726363137e+03 4.515873946919784663e-05
1.611805902951475673e+03 4.461315644116320027e-05
1.612706353176588209e+03 4.408264390900709000e-05
1.613606803401700745e+03 4.356637485820833984e-05
1.614507253626813281e+03 4.306359209292154409e-05
1.615407703851925817e+03 4.257360059428695734e-05
1.616308154077038353e+03 4.209576087967409536e-05
1.617208604302150889e+03 4.162948321209881719e-05
1.618109054527263652e+03 4.117422253455136277e-05
1.619009504752376188e+03 4.072947402468646267e-05
1.619909954977488724e+03 4.029476918229307194e-05
1.620810405202601260e+03 3.986967237585056073e-05
1.621710855427713796e+03 3.945377778595135027e-05
1.622611305652826331e+03 3.904670669287120576e-05
1.623511755877938867e+03 3.864810506344743034e-05
1.624412206103051403e+03 3.825764139901526289e-05
1.625312656328163939e+03 3.787500481166780722e-05
1.626213106553276475e+03 3.749990330073066375e-05
1.627113556778389011e+03 3.713206220525431720e-05
1.628014007003501774e+03 3.677122281162825560e-05
1.628914457228614310e+03 3.641714109822675121e-05
1.629814907453726846e+03 3.606958660137988008e-05
1.630715357678839382e+03 3.572834138900048438e-05
1.631615807903951918e+03 3.539319912994565799e-05
1.632516258129064454e+03 3.506396424867996582e-05
1.633416708354176990e+03 3.474045115610080957e-05
1.634317158579289526e+03 3.442248354849850045e-05
1.635217608804402062e+03 3.410989376757612480e-05
1.636118059029514598e+03 3.380252221529661923e-05
1.637018509254627133e+03 3.350021681804530324e-05
1.637918959479739897e+03 3.320283253521754850e-05
1.638819409704852433e+03 3.291023090790954822e-05
1.639719859929964969e+03 3.262227964385015018e-05
1.640620310155077505e+03 3.233885223514717296e-05
1.641520760380190040e+03 3.205982760578913587e-05
1.642421210605302576e+03 3.178508978616540181e-05
1.643321660830415112e+03 3.151452761215205785e-05
1.644222111055527648e+03 3.124803444657797832e-05
1.645122561280640184e+03 3.098550792108886422e-05
1.646023011505752720e+03 3.072684969664649552e-05
1.646923461730865256e+03 3.047196524105788223e-05
1.647823911955978019e+03 3.022076362210153464e-05
1.648724362181090555e+03 2.997315731494467676e-05
1.649624812406203091e+03 2.972906202267798484e-05
1.650525262631315627e+03 2.948839650890302527e-05
1.651425712856428163e+03 2.925108244140265100e-05
1.652326163081540699e+03 2.901704424602165520e-05
1.653226613306653235e+03 2.878620896995700198e-05
1.654127063531765771e+03 2.855850615373284530e-05
1.655027513756878307e+03 2.833386771120038531e-05
1.655927963981990843e+03 2.811222781695406749e-05
1.656828414207103378e+03 2.789352280062104748e-05
1.657728864432216142e+03 2.767769104751203264e-05
1.658629314657328678e+03 2.746467290517713247e-05
1.659529764882441214e+03 2.725441059543988782e-05
1.660430215107553749e+03 2.704684813152779572e-05
1.661330665332666285e+03 2.684193123993672183e-05
1.662231115557778821e+03 2.663960728670503744e-05
1.663131565782891357e+03 2.643982520779773664e-05
1.664032016008003893e+03 2.624253544331923722e-05
1.664932466233116429e+03 2.604768987530353710e-05
1.665832916458228965e+03 2.585524176884337134e-05
1.666733366683341501e+03 2.566514571633981813e-05
1.667633816908454037e+03 2.547735758467538139e-05
1.668534267133566800e+03 2.529183446511804994e-05
1.669434717358679336e+03 2.510853462579041299e-05
1.670335167583791872e+03 2.492741746653855204e-05
1.671235617808904408e+03 2.474844347605613100e-05
1.672136068034016944e+03 2.457157419112576026e-05
1.673036518259129480e+03 2.439677215784800835e-05
1.673936968484242016e+03 2.422400089473998125e-05
1.674837418709354552e+03 2.405322485759701446e-05
1.675737868934467087e+03 2.388440940600689230e-05
1.676638319159579623e+03 2.371752077142872699e-05
1.677538769384692159e+03 2.355252602674066720e-05
1.678439219609804923e+03 2.338939305717966136e-05
1.679339669834917459e+03 2.322809053258832152e-05
1.680240120060029994e+03 2.306858788090282930e-05
1.681140570285142530e+03 2.291085526280721649e-05
1.682041020510255066e+03 2.275486354749945428e-05
1.682941470735367602e+03 2.260058428949910839e-05
1.683841920960480138e+03 2.244798970644996315e-05
1.684742371185592674e+03 2.229705265785978931e-05
1.685642821410705210e+03 2.214774662473073985e-05
1.686543271635817746e+03 2.200004569003307896e-05
1.687443721860930282e+03 2.185392451998135606e-05
1.688344172086043045e+03 2.170935834606846433e-05
1.689244622311155581e+03 2.156632294782310258e-05
1.690145072536268117e+03 2.142479463625315429e-05
1.691045522761380653e+03 2.128475023794178684e-05
1.691945972986493189e+03 2.114616707976299604e-05
1.692846423211605725e+03 2.100902297418874907e-05
1.693746873436718261e+03 2.087329620515753395e-05
1.694647323661830796e+03 2.073896551447972138e-05
1.695547773886943332e+03 2.060601008875190512e-05
1.696448224112055868e+03 2.047440954675877096e-05
1.697348674337168404e+03 2.034414392733897704e-05
1.698249124562281168e+03 2.021519367769478116e-05
1.699149574787393703e+03 2.008753964212249787e-05
1.700050025012506239e+03 1.996116305114995819e-05
1.700950475237618775e+03 1.983604551105607944e-05
1.701850925462731311e+03 1.971216899376395298e-05
1.702751375687843847e+03 1.958951582708268242e-05
1.703651825912956383e+03 1.946806868528858054e-05
1.704552276138068919e+03 1.934781058002960752e-05
1.705452726363181455e+03 1.922872485153825117e-05
1.706353176588293991e+03 1.911079516014123456e-05
1.707253626813406527e+03 1.899400547805211913e-05
1.708154077038519290e+03 1.887834008143707596e-05
1.709054527263631826e+03 1.876378354274087901e-05
1.709954977488744362e+03 1.865032072326211252e-05
1.710855427713856898e+03 1.853793676597072798e-05
1.711755877938969434e+03 1.842661708855319557e-05
1.712656328164081970e+03 1.831634737668132978e-05
1.713556778389194506e+03 1.820711357749136904e-05
1.714457228614307041e+03 1.809890189326945689e-05
1.715357678839419577e+03 1.799169877533091750e-05
1.716258129064532113e+03 1.788549091809023907e-05
1.717158579289644649e+03 1.778026525331123791e-05
1.718059029514757185e+03 1.767600894453217903e-05
1.718959479739869948e+03 1.757270938165856510e-05
1.719859929964982484e+03 1.747035417571763760e-05
1.720760380190095020e+03 1.736893115376947404e-05
1.721660830415207556e+03 1.726842835396583817e-05
1.722561280640320092e+03 1.716883402075622425e-05
1.723461730865432628e+03 1.707013660023072081e-05
1.724362181090545164e+03 1.697232473559904007e-05
1.725262631315657700e+03 1.687538726279658535e-05
1.726163081540770236e+03 1.677931320621859661e-05
1.727063531765882772e+03 1.668409177457164737e-05
1.727963981990995308e+03 1.658971235684238453e-05
1.728864432216108071e+03 1.649616451838009922e-05
1.729764882441220607e+03 1.640343799708490237e-05
1.730665332666333143e+03 1.631152269970207076e-05
1.731565782891445679e+03 1.622040869821779648e-05
1.732466233116558215e+03 1.613008622635106441e-05
1.733366683341670750e+03 1.604054567614197297e-05
1.734267133566783286e+03 1.595177759462913894e-05
1.735167583791895822e+03 1.586377268061673194e-05
1.736068034017008358e+03 1.577652178152685257e-05
1.736968484242120894e+03 1.569001589033384910e-05
1.737868934467233430e+03 1.560424614257834342e-05
1.738769384692346193e+03 1.551920381346004452e-05
1.739669834917458729e+03 1.543488031500314257e-05
1.740570285142571265e+03 1.535126719329644521e-05
1.741470735367683801e+03 1.526835612580202520e-05
1.742371185592796337e+03 1.518613891873287758e-05
1.743271635817908873e+03 1.510460750449603381e-05
1.744172086043021409e+03 1.502375393919934745e-05
1.745072536268133945e+03 1.494357040022063995e-05
1.745972986493246481e+03 1.486404918383663362e-05
1.746873436718359017e+03 1.478518270290972488e-05
1.747773886943471553e+03 1.470696348463174265e-05
1.748674337168584316e+03 1.462938416832188292e-05
1.749574787393696852e+03 1.455243750327845868e-05
1.750475237618809388e+03 1.447611634668138378e-05
1.751375687843921924e+03 1.440041366154524328e-05
1.752276138069034459e+03 1.432532251472036851e-05
1.753176588294146995e+03 1.425083607494184239e-05
1.754077038519259531e+03 1.417694761092352454e-05
1.754977488744372067e+03 1.410365048949699789e-05
1.755877938969484603e+03 1.403093817379344125e-05
1.756778389194597139e+03 1.395880422146797219e-05
1.757678839419709675e+03 1.388724228296353096e-05
1.758579289644822438e+03 1.381624609981620306e-05
1.759479739869934974e+03 1.374580950299798578e-05
1.760380190095047510e+03 1.367592641129635649e-05
1.761280640320160046e+03 1.360659082973231670e-05
1.762181090545272582e+03 1.353779684801151097e-05
1.763081540770385118e+03 1.346953863901176491e-05
1.763981990995497654e+03 1.340181045730302379e-05
1.764882441220610190e+03 1.333460663770004777e-05
1.765782891445722726e+03 1.326792159384744665e-05
1.766683341670835262e+03 1.320174981683464724e-05
1.767583791895947797e+03 1.313608587384204329e-05
1.768484242121060333e+03 1.307092440681578028e-05
1.769384692346173097e+03 1.300626013117071250e-05
1.770285142571285633e+03 1.294208783452214399e-05
1.771185592796398169e+03 1.287840237544361408e-05
1.772086043021510704e+03 1.281519868225195399e-05
1.772986493246623240e+03 1.275247175181699377e-05
1.773886943471735776e+03 1.269021664839732399e-05
1.774787393696848312e+03 1.262842850249938133e-05
1.775687843921960848e+03 1.256710250976120651e-05
1.776588294147073384e+03 1.250623392985935849e-05
1.777488744372185920e+03 1.244581808543712128e-05
1.778389194597298456e+03 1.238585036105615331e-05
1.779289644822411219e+03 1.232632620216947182e-05
1.780190095047523755e+03 1.226724111411416470e-05
1.781090545272636291e+03 1.220859066112609630e-05
1.781990995497748827e+03 1.215037046537327352e-05
1.782891445722861363e+03 1.209257620600965907e-05
1.783791895947973899e+03 1.203520361824672352e-05
1.784692346173086435e+03 1.197824849244500409e-05
1.785592796398198971e+03 1.192170667322233142e-05
1.786493246623311506e+03 1.186557405858075890e-05
1.787393696848424042e+03 1.180984659904983788e-05
1.788294147073536578e+03 1.175452029684744524e-05
1.789194597298649342e+03 1.169959120505610994e-05
1.790095047523761878e+03 1.164505542681687814e-05
1.790995497748874413e+03 1.159090911453652092e-05
1.791895947973986949e+03 1.153714846911253468e-05
1.792796398199099485e+03 1.148376973917101477e-05
1.793696848424212021e+03 1.143076922032057534e-05
1.794597298649324557e+03 1.137814325441925585e-05
1.795497748874437093e+03 1.132588822885682160e-05
1.796398199099549629e+03 1.127400057584889562e-05
1.797298649324662165e+03 1.122247677174594235e-05
1.798199099549774701e+03 1.117131333635436574e-05
1.799099549774887464e+03 1.112050683227075989e-05
1.800000000000000000e+03 1.107005386422795736e-05
