0.000000000000000000e+00 1.753192949948578555e-03
9.004502251125562351e-01 2.339860742282481171e-03
1.800900450225112470e+00 3.109765992635739242e-03
2.701350675337668594e+00 3.951180563970586694e-03
3.601800900450224940e+00 4.548710102235486649e-03
4.502251125562780842e+00 4.640920781384770023e-03
5.402701350675337189e+00 4.305899653699601579e-03
6.303151575787893535e+00 3.697600176029229493e-03
7.203601800900449881e+00 2.959108177327711767e-03
8.104052026013006227e+00 2.278085494473012888e-03
9.004502251125561685e+00 1.750697817463853613e-03
9.904952476238118919e+00 1.366083859228879160e-03
1.080540270135067438e+01 1.079950358139660383e-03
1.170585292646323161e+01 8.614319297126602241e-04
1.260630315157578707e+01 6.952239679977327731e-04
1.350675337668834430e+01 5.696555759211406047e-04
1.440720360180089976e+01 4.742120270288505720e-04
1.530765382691345522e+01 4.005900700332234543e-04
1.620810405202601245e+01 3.428048348535507584e-04
1.710855427713856969e+01 2.967215512171512493e-04
1.800900450225112337e+01 2.594889302836053506e-04
1.890945472736368060e+01 2.290730092238866763e-04
1.980990495247623784e+01 2.039403490183236574e-04
2.071035517758879507e+01 1.828167836182219123e-04
2.161080540270134875e+01 1.646374582960343446e-04
2.251125562781390599e+01 1.487650494912308864e-04
2.341170585292646322e+01 1.349435383415074658e-04
2.431215607803901690e+01 1.229673189827674496e-04
2.521260630315157414e+01 1.125844085543807474e-04
2.611305652826413137e+01 1.035501401270061861e-04
2.701350675337668861e+01 9.566042080201138885e-05
2.791395697848924229e+01 8.875235409162072315e-05
2.881440720360179952e+01 8.268235245889379577e-05
2.971485742871435676e+01 7.728256701936351951e-05
3.061530765382691044e+01 7.234567139867607529e-05
3.151575787893946767e+01 6.773916050318238289e-05
3.241620810405202491e+01 6.349265853772301813e-05
3.331665832916458214e+01 5.967116388277533644e-05
3.421710855427713938e+01 5.627622862790062957e-05
3.511755877938969661e+01 5.324902825524749128e-05
3.601800900450224674e+01 5.047813926096141892e-05
3.691845922961480397e+01 4.785561083520244185e-05
3.781890945472736121e+01 4.538125791553067996e-05
3.871935967983991844e+01 4.312560790911938323e-05
3.961980990495247568e+01 4.112409700402721473e-05
4.052026013006503291e+01 3.934702539072077712e-05
4.142071035517759015e+01 3.768926249448712932e-05
4.232116058029014027e+01 3.601732170204475472e-05
4.322161080540269751e+01 3.431705824117359271e-05
4.412206103051525474e+01 3.268906852088847179e-05
4.502251125562781198e+01 3.120375320494561764e-05
4.592296148074036921e+01 2.987188421345947264e-05
4.682341170585292645e+01 2.868224626079486853e-05
4.772386193096548368e+01 2.762444460526969621e-05
4.862431215607803381e+01 2.669534004946235795e-05
4.952476238119059104e+01 2.589821583834141328e-05
5.042521260630314828e+01 2.523348554111729528e-05
5.132566283141570551e+01 2.467584269556243295e-05
5.222611305652826275e+01 2.416222619426546651e-05
5.312656328164081998e+01 2.364611990886291595e-05
5.402701350675337721e+01 2.312702311281856143e-05
5.492746373186592734e+01 2.254457069214680531e-05
5.582791395697848458e+01 2.179311700746845173e-05
5.672836418209104181e+01 2.092154546049211395e-05
5.762881440720359905e+01 2.009613294555156259e-05
5.852926463231615628e+01 1.941000298328058983e-05
5.942971485742871351e+01 1.884956305262917452e-05
6.033016508254127075e+01 1.834585578508947208e-05
6.123061530765382088e+01 1.783898175929536824e-05
6.213106553276637811e+01 1.729923507913369503e-05
6.303151575787893535e+01 1.671053005720153159e-05
6.393196598299149258e+01 1.610223462373909690e-05
6.483241620810404982e+01 1.553501994964901842e-05
6.573286643321659994e+01 1.504230063051234389e-05
6.663331665832916428e+01 1.462759017857327622e-05
6.753376688344171441e+01 1.428645362748729377e-05
6.843421710855427875e+01 1.401802069483918707e-05
6.933466733366682888e+01 1.382693183394656893e-05
7.023511755877939322e+01 1.371758461077755214e-05
7.113556778389194335e+01 1.367656783179351861e-05
7.203601800900449348e+01 1.365630805947336492e-05
7.293646823411705782e+01 1.360756620390308564e-05
7.383691845922960795e+01 1.351601597415194711e-05
7.473736868434217229e+01 1.336472175041813997e-05
7.563781890945472242e+01 1.314167539479584611e-05
7.653826913456728676e+01 1.289690758149353857e-05
7.743871935967983688e+01 1.271764312557021120e-05
7.833916958479238701e+01 1.263141237564414356e-05
7.923961980990495135e+01 1.258180297148519344e-05
8.014007003501750148e+01 1.249954256427157841e-05
8.104052026013006582e+01 1.237572181383635205e-05
8.194097048524261595e+01 1.221279979795261242e-05
8.284142071035518029e+01 1.195457956219693436e-05
8.374187093546773042e+01 1.157099081366326181e-05
8.464232116058028055e+01 1.115228434776257954e-05
8.554277138569284489e+01 1.081999399069300188e-05
8.644322161080539502e+01 1.063278376130728485e-05
8.734367183591795936e+01 1.059788678699593364e-05
8.824412206103050949e+01 1.069969039300826578e-05
8.914457228614307382e+01 1.089042329127331027e-05
9.004502251125562395e+01 1.105299291095078072e-05
9.094547273636817408e+01 1.105938707568325337e-05
9.184592296148073842e+01 1.094119943424215382e-05
9.274637318659328855e+01 1.085834812226749528e-05
9.364682341170585289e+01 1.088538911090156375e-05
9.454727363681840302e+01 1.093060193301625046e-05
9.544772386193096736e+01 1.082085001846492683e-05
9.634817408704351749e+01 1.048031295136422112e-05
9.724862431215606762e+01 1.003896588617835725e-05
9.814907453726863196e+01 9.677046231498144676e-06
9.904952476238118209e+01 9.466839992041120859e-06
9.994997498749374643e+01 9.398193950092269356e-06
1.008504252126062966e+02 9.454374677660324863e-06
1.017508754377188609e+02 9.625933671177754403e-06
1.026513256628314110e+02 9.868296440888495031e-06
1.035517758879439612e+02 1.011483019306668506e-05
1.044522261130565255e+02 1.036674246195942826e-05
1.053526763381690756e+02 1.071998028517381393e-05
1.062531265632816400e+02 1.124633272997095963e-05
1.071535767883941901e+02 1.188980408185212102e-05
1.080540270135067544e+02 1.249178808441540185e-05
1.089544772386193046e+02 1.287571037520070644e-05
1.098549274637318547e+02 1.284914488973139435e-05
1.107553776888444190e+02 1.232323436227957841e-05
1.116558279139569692e+02 1.153820403487607510e-05
1.125562781390695335e+02 1.084751702537666723e-05
1.134567283641820836e+02 1.038868559815750473e-05
1.143571785892946480e+02 1.008325220966416049e-05
1.152576288144071981e+02 9.794878158379905910e-06
1.161580790395197482e+02 9.466146927398257489e-06
1.170585292646323126e+02 9.141984040802186376e-06
1.179589794897448627e+02 8.904884742157948767e-06
1.188594297148574270e+02 8.806482734980646180e-06
1.197598799399699772e+02 8.852302113052722162e-06
1.206603301650825415e+02 9.042486391397838358e-06
1.215607803901950916e+02 9.395723354743952749e-06
1.224612306153076418e+02 9.910792986767011852e-06
1.233616808404202061e+02 1.052406006284191171e-05
1.242621310655327562e+02 1.112834516697864702e-05
1.251625812906453206e+02 1.164038532157576215e-05
1.260630315157578707e+02 1.198886768512405908e-05
1.269634817408704350e+02 1.212552993366992370e-05
1.278639319659829852e+02 1.212282304929636187e-05
1.287643821910955353e+02 1.204292053601132005e-05
1.296648324162080996e+02 1.180010089840753929e-05
1.305652826413206640e+02 1.131700642248492470e-05
1.314657328664331999e+02 1.070268398320377671e-05
1.323661830915457642e+02 1.018239285189420731e-05
1.332666333166583286e+02 9.918118675128374665e-06
1.341670835417708929e+02 9.918294120618711225e-06
1.350675337668834288e+02 1.005210935260362523e-05
1.359679839919959932e+02 1.012064159103001368e-05
1.368684342171085575e+02 1.001581898598272809e-05
1.377688844422210934e+02 9.797894108429402554e-06
1.386693346673336578e+02 9.568924191004250584e-06
1.395697848924462221e+02 9.417516024653381458e-06
1.404702351175587864e+02 9.423867262414116665e-06
1.413706853426713224e+02 9.593910925195008464e-06
1.422711355677838867e+02 9.842087170197624658e-06
1.431715857928964510e+02 1.009184950713976023e-05
1.440720360180089870e+02 1.029671758656015906e-05
1.449724862431215513e+02 1.040231818871390545e-05
1.458729364682341156e+02 1.040417136582361465e-05
1.467733866933466800e+02 1.038793524798709297e-05
1.476738369184592159e+02 1.041875025759418384e-05
1.485742871435717802e+02 1.045298360258646204e-05
1.494747373686843446e+02 1.040982721543374185e-05
1.503751875937968805e+02 1.027562895436832394e-05
1.512756378189094448e+02 1.012107353655542248e-05
1.521760880440220092e+02 1.005994830224988839e-05
1.530765382691345735e+02 1.015816047412127392e-05
1.539769884942471094e+02 1.039187919071646333e-05
1.548774387193596738e+02 1.068412002874150803e-05
1.557778889444722381e+02 1.094852954956989373e-05
1.566783391695847740e+02 1.118513206644378335e-05
1.575787893946973384e+02 1.149181755664542680e-05
1.584792396198099027e+02 1.190579446592015999e-05
1.593796898449224670e+02 1.229691142249281995e-05
1.602801400700350030e+02 1.248584041261795248e-05
1.611805902951475673e+02 1.245122721577284858e-05
1.620810405202601316e+02 1.236994787213312388e-05
1.629814907453726676e+02 1.241653694846675944e-05
1.638819409704852319e+02 1.258520323874497512e-05
1.647823911955977962e+02 1.276540885405238045e-05
1.656828414207103606e+02 1.291048021511637831e-05
1.665832916458228965e+02 1.302225959492518655e-05
1.674837418709354608e+02 1.305165755286402875e-05
1.683841920960480252e+02 1.291756333987398796e-05
1.692846423211605611e+02 1.260984521284686784e-05
1.701850925462731254e+02 1.223984684960176112e-05
1.710855427713856898e+02 1.195784604812774809e-05
1.719859929964982541e+02 1.186302462589566411e-05
1.728864432216107900e+02 1.203306766161862240e-05
1.737868934467233544e+02 1.251233583085866122e-05
1.746873436718359187e+02 1.321636060443661248e-05
1.755877938969484546e+02 1.388332947736229781e-05
1.764882441220610190e+02 1.425716095130840890e-05
1.773886943471735833e+02 1.432269410259482051e-05
1.782891445722861476e+02 1.426017570353261085e-05
1.791895947973986836e+02 1.425863378526455825e-05
1.800900450225112479e+02 1.440049021448313816e-05
1.809904952476238122e+02 1.463723015786065433e-05
1.818909454727363482e+02 1.475051474530727737e-05
1.827913956978489125e+02 1.450679011593185863e-05
1.836918459229614768e+02 1.395715609906943643e-05
1.845922961480740412e+02 1.339712176955562619e-05
1.854927463731865771e+02 1.303950750584636703e-05
1.863931965982991414e+02 1.288577750586362587e-05
1.872936468234117058e+02 1.280620056780722953e-05
1.881940970485242417e+02 1.265738667245489658e-05
1.890945472736368060e+02 1.242629046496320104e-05
1.899949974987493704e+02 1.220801119030742297e-05
1.908954477238619347e+02 1.203470391082432669e-05
1.917958979489744706e+02 1.192971566765781137e-05
1.926963481740870350e+02 1.197917276028012130e-05
1.935967983991995993e+02 1.219552165516419210e-05
1.944972486243121352e+02 1.246275170484253400e-05
1.953976988494246996e+02 1.269751750764889676e-05
1.962981490745372639e+02 1.290100460770610202e-05
1.971985992996498283e+02 1.300394708372547602e-05
1.980990495247623642e+02 1.293064645169536785e-05
1.989994997498749285e+02 1.276312364276492224e-05
1.998999499749874929e+02 1.264204038144523449e-05
2.008004002001000288e+02 1.261333322601706267e-05
2.017008504252125931e+02 1.261883799076716891e-05
2.026013006503251574e+02 1.260912387738455911e-05
2.035017508754377218e+02 1.260871349062179894e-05
2.044022011005502577e+02 1.265657115426393488e-05
2.053026513256628220e+02 1.274020585445796940e-05
2.062031015507753864e+02 1.282980732925976148e-05
2.071035517758879223e+02 1.291463600271089350e-05
2.080040020010004866e+02 1.300427812035801498e-05
2.089044522261130510e+02 1.312188356697421959e-05
2.098049024512256153e+02 1.332497515081595125e-05
2.107053526763381512e+02 1.370594389723540721e-05
2.116058029014507156e+02 1.425585381770134480e-05
2.125062531265632799e+02 1.481965601504459371e-05
2.134067033516758158e+02 1.523028093086956547e-05
2.143071535767883802e+02 1.544305557571162615e-05
2.152076038019009445e+02 1.549986599780571450e-05
2.161080540270135089e+02 1.546329682642012322e-05
2.170085042521260448e+02 1.539202275639631331e-05
2.179089544772386091e+02 1.532929410623335369e-05
2.188094047023511735e+02 1.535813052713581650e-05
2.197098549274637094e+02 1.556963591924927199e-05
2.206103051525762737e+02 1.594132823338684289e-05
2.215107553776888381e+02 1.629937381587227003e-05
2.224112056028014024e+02 1.647865103931074615e-05
2.233116558279139383e+02 1.648255783442317734e-05
2.242121060530265027e+02 1.639977328626556681e-05
2.251125562781390670e+02 1.628500647506312494e-05
2.260130065032516029e+02 1.618329681335731312e-05
2.269134567283641672e+02 1.616666643863989375e-05
2.278139069534767316e+02 1.626939176012519422e-05
2.287143571785892959e+02 1.652072449689342154e-05
2.296148074037018318e+02 1.698435721083717514e-05
2.305152576288143962e+02 1.765921636798065920e-05
2.314157078539269605e+02 1.839206285924120841e-05
2.323161580790394964e+02 1.894407565059911741e-05
2.332166083041520608e+02 1.913905589935748736e-05
2.341170585292646251e+02 1.898898301606682330e-05
2.350175087543771895e+02 1.862200648139562269e-05
2.359179589794897254e+02 1.817012823829453966e-05
2.368184092046022897e+02 1.776530570344226641e-05
2.377188594297148541e+02 1.751580250267886646e-05
2.386193096548273900e+02 1.744557455694851334e-05
2.395197598799399543e+02 1.748079142481748146e-05
2.404202101050525187e+02 1.752821099524405849e-05
2.413206603301650830e+02 1.762502169007021938e-05
2.422211105552776189e+02 1.787691792701131405e-05
2.431215607803901833e+02 1.828727152556944687e-05
2.440220110055027476e+02 1.880077166820321992e-05
2.449224612306152835e+02 1.933763831310743650e-05
2.458229114557278479e+02 1.972376655067817518e-05
2.467233616808404122e+02 1.986211449869878167e-05
2.476238119059529765e+02 1.989007602410383248e-05
2.485242621310655124e+02 1.994323824632303205e-05
2.494247123561780768e+02 1.998188972392568266e-05
2.503251625812906411e+02 1.997734041359868553e-05
2.512256128064031770e+02 1.998817622020195302e-05
2.521260630315157414e+02 1.999874376260993888e-05
2.530265132566283057e+02 1.997579435851263736e-05
2.539269634817408701e+02 1.993936175861119232e-05
2.548274137068534060e+02 1.987169539634311575e-05
2.557278639319659703e+02 1.973307748867898212e-05
2.566283141570785347e+02 1.956300507429963549e-05
2.575287643821910706e+02 1.942134780072947626e-05
2.584292146073036633e+02 1.930561247416814240e-05
2.593296648324161993e+02 1.924692710817463954e-05
2.602301150575287352e+02 1.926086653878981509e-05
2.611305652826413279e+02 1.924339808181186709e-05
2.620310155077538639e+02 1.914618288309622254e-05
2.629314657328663998e+02 1.903871769197687573e-05
2.638319159579789925e+02 1.890583683275521044e-05
2.647323661830915285e+02 1.868288384049143086e-05
2.656328164082040644e+02 1.843006914249809437e-05
2.665332666333166571e+02 1.827962914923703035e-05
2.674337168584291931e+02 1.833759567745940259e-05
2.683341670835417858e+02 1.851258377742808571e-05
2.692346173086543217e+02 1.851987185871116601e-05
2.701350675337668577e+02 1.820908553781166447e-05
2.710355177588794504e+02 1.771779384433402502e-05
2.719359679839919863e+02 1.722771843386883609e-05
2.728364182091045222e+02 1.681877183946079083e-05
2.737368684342171150e+02 1.651785883670359897e-05
2.746373186593296509e+02 1.634347264725528374e-05
2.755377688844421868e+02 1.622702672567193693e-05
2.764382191095547796e+02 1.599565612080515656e-05
2.773386693346673155e+02 1.559844652521805817e-05
2.782391195597798514e+02 1.521715393771819061e-05
2.791395697848924442e+02 1.502824324461098278e-05
2.800400200100049801e+02 1.502093569227501797e-05
2.809404702351175729e+02 1.508970596152795018e-05
2.818409204602301088e+02 1.512978661311067079e-05
2.827413706853426447e+02 1.506653382931405724e-05
2.836418209104552375e+02 1.490519317043769626e-05
2.845422711355677734e+02 1.470121485321969022e-05
2.854427213606803093e+02 1.449572209230805240e-05
2.863431715857929021e+02 1.434062166579304190e-05
2.872436218109054380e+02 1.427631628812677268e-05
2.881440720360179739e+02 1.429898667336851784e-05
2.890445222611305667e+02 1.435394918420719487e-05
2.899449724862431026e+02 1.435503842725685718e-05
2.908454227113556385e+02 1.425475546935002241e-05
2.917458729364682313e+02 1.409884468515062766e-05
2.926463231615807672e+02 1.399087151291393770e-05
2.935467733866933600e+02 1.399619374794240569e-05
2.944472236118058959e+02 1.415232695982933258e-05
2.953476738369184318e+02 1.448519013803763308e-05
2.962481240620310246e+02 1.492259674823997177e-05
2.971485742871435605e+02 1.530216462555515525e-05
2.980490245122560964e+02 1.556466377434399058e-05
2.989494747373686891e+02 1.577195581562585089e-05
2.998499249624812251e+02 1.594191307580161831e-05
3.007503751875937610e+02 1.604166031802088479e-05
3.016508254127063537e+02 1.604518195687190893e-05
3.025512756378188897e+02 1.593980633958182657e-05
3.034517258629314256e+02 1.573195809935612404e-05
3.043521760880440183e+02 1.543486805416637736e-05
3.052526263131565543e+02 1.508606041704769151e-05
3.061530765382691470e+02 1.477084606621822207e-05
3.070535267633816829e+02 1.454702299079380326e-05
3.079539769884942189e+02 1.441500275494262790e-05
3.088544272136068116e+02 1.436476422409763825e-05
3.097548774387193475e+02 1.438931269525935685e-05
3.106553276638318835e+02 1.447274702316233423e-05
3.115557778889444762e+02 1.462715164628108412e-05
3.124562281140570121e+02 1.488310376193655443e-05
3.133566783391695481e+02 1.523792338959714412e-05
3.142571285642821408e+02 1.563282881093947788e-05
3.151575787893946767e+02 1.593260228631110818e-05
3.160580290145072127e+02 1.598555510119080981e-05
3.169584792396198054e+02 1.579099128743351266e-05
3.178589294647323413e+02 1.549603872324116841e-05
3.187593796898449341e+02 1.524173304379741610e-05
3.196598299149574700e+02 1.510625148561939516e-05
3.205602801400700059e+02 1.510443628701930535e-05
3.214607303651825987e+02 1.520649042881772266e-05
3.223611805902951346e+02 1.532037044655912522e-05
3.232616308154076705e+02 1.530913101498006259e-05
3.241620810405202633e+02 1.513706782000840091e-05
3.250625312656327992e+02 1.488643667069699179e-05
3.259629814907453351e+02 1.466769079550610805e-05
3.268634317158579279e+02 1.459398405578827916e-05
3.277638819409704638e+02 1.472970787625335090e-05
3.286643321660829997e+02 1.504858245222083386e-05
3.295647823911955925e+02 1.547429596692256139e-05
3.304652326163081284e+02 1.594393620470755158e-05
3.313656828414207212e+02 1.638686454166558132e-05
3.322661330665332571e+02 1.672289536674610128e-05
3.331665832916457930e+02 1.692035631351459967e-05
3.340670335167583858e+02 1.698027149708435275e-05
3.349674837418709217e+02 1.689234560113407575e-05
3.358679339669834576e+02 1.672989180294835103e-05
3.367683841920960504e+02 1.658853901115083860e-05
3.376688344172085863e+02 1.645348685777586542e-05
3.385692846423211222e+02 1.628079004321793271e-05
3.394697348674337150e+02 1.605585398435510229e-05
3.403701850925462509e+02 1.576810043994413116e-05
3.412706353176587868e+02 1.545815527418718818e-05
3.421710855427713796e+02 1.519820514774909366e-05
3.430715357678839155e+02 1.505086985926624470e-05
3.439719859929965082e+02 1.507880753684499220e-05
3.448724362181090441e+02 1.532352439364978246e-05
3.457728864432215801e+02 1.577996964242006682e-05
3.466733366683341728e+02 1.635018979045089362e-05
3.475737868934467087e+02 1.686641606736863545e-05
3.484742371185592447e+02 1.721622693796364588e-05
3.493746873436718374e+02 1.737302891576795766e-05
3.502751375687843733e+02 1.736331714583444529e-05
3.511755877938969093e+02 1.721649081952787610e-05
3.520760380190095020e+02 1.695866879565961964e-05
3.529764882441220379e+02 1.664623530352066249e-05
3.538769384692345739e+02 1.635818847316015904e-05
3.547773886943471666e+02 1.616455074683379218e-05
3.556778389194597025e+02 1.610594863931079775e-05
3.565782891445722953e+02 1.616916829547791632e-05
3.574787393696848312e+02 1.630104989900310367e-05
3.583791895947973671e+02 1.644877031871039221e-05
3.592796398199099599e+02 1.655521335427020464e-05
3.601800900450224958e+02 1.662611197551114189e-05
3.610805402701350317e+02 1.669296559984945327e-05
3.619809904952476245e+02 1.676427043670883154e-05
3.628814407203601604e+02 1.685294666539254409e-05
3.637818909454726963e+02 1.699653814776655404e-05
3.646823411705852891e+02 1.717701908882716984e-05
3.655827913956978250e+02 1.729291916581502444e-05
3.664832416208103609e+02 1.733604254032017195e-05
3.673836918459229537e+02 1.740261192678354730e-05
3.682841420710354896e+02 1.750049769340771124e-05
3.691845922961480824e+02 1.756063248790032557e-05
3.700850425212606183e+02 1.752471862711967477e-05
3.709854927463731542e+02 1.738840473496284676e-05
3.718859429714857470e+02 1.723147074918433870e-05
3.727863931965982829e+02 1.716052133005608156e-05
3.736868434217108188e+02 1.717464217899582717e-05
3.745872936468234116e+02 1.718386958963338883e-05
3.754877438719359475e+02 1.717617760995344354e-05
3.763881940970484834e+02 1.721368417947848588e-05
3.772886443221610762e+02 1.732150121156418783e-05
3.781890945472736121e+02 1.747738519045370685e-05
3.790895447723861480e+02 1.764629718905723804e-05
3.799899949974987408e+02 1.780005201005093149e-05
3.808904452226112767e+02 1.795923965452861886e-05
3.817908954477238694e+02 1.813484604674794190e-05
3.826913456728364054e+02 1.825424871646023342e-05
3.835917958979489413e+02 1.824188496628808320e-05
3.844922461230615340e+02 1.816616236435069205e-05
3.853926963481740700e+02 1.821245010218841163e-05
3.862931465732866059e+02 1.850236846895761611e-05
3.871935967983991986e+02 1.902466845928537067e-05
3.880940470235117346e+02 1.971111938812129816e-05
3.889944972486242705e+02 2.046645596682548123e-05
3.898949474737368632e+02 2.113212329740667809e-05
3.907953976988493991e+02 2.162526043912388750e-05
3.916958479239619351e+02 2.206214059592735290e-05
3.925962981490745278e+02 2.260779711074505070e-05
3.934967483741870637e+02 2.327966616989468412e-05
3.943971985992996565e+02 2.392083905814935369e-05
3.952976488244121924e+02 2.436224115835702850e-05
3.961980990495247283e+02 2.458827700271078677e-05
3.970985492746373211e+02 2.468448205040111462e-05
3.979989994997498570e+02 2.460901718832094785e-05
3.988994497248623929e+02 2.421328498096522120e-05
3.997998999499749857e+02 2.355546167889406291e-05
4.007003501750875216e+02 2.293309795957612532e-05
4.016008004002000575e+02 2.252745523572368994e-05
4.025012506253126503e+02 2.231646937520454416e-05
4.034017008504251862e+02 2.227303084429803416e-05
4.043021510755377221e+02 2.234933874316476663e-05
4.052026013006503149e+02 2.247585943445732775e-05
4.061030515257628508e+02 2.261723171049909902e-05
4.070035017508754436e+02 2.268917717742914000e-05
4.079039519759879795e+02 2.260935284796011232e-05
4.088044022011005154e+02 2.245709910728960050e-05
4.097048524262131082e+02 2.234125755381844680e-05
4.106053026513256441e+02 2.227500105767328626e-05
4.115057528764381800e+02 2.224712117108252539e-05
4.124062031015507728e+02 2.230034260723789158e-05
4.133066533266633087e+02 2.248896031972787480e-05
4.142071035517758446e+02 2.284170639323986193e-05
4.151075537768884374e+02 2.339024048086644312e-05
4.160080040020009733e+02 2.409493359436435631e-05
4.169084542271135092e+02 2.480109263533753679e-05
4.178089044522261020e+02 2.536961721063002450e-05
4.187093546773386379e+02 2.577317297927365466e-05
4.196098049024512306e+02 2.608987042275131519e-05
4.205102551275637666e+02 2.640645673130038095e-05
4.214107053526763025e+02 2.669445527847527839e-05
4.223111555777888952e+02 2.683657017252329236e-05
4.232116058029014312e+02 2.683678691009426420e-05
4.241120560280139671e+02 2.684614648770518552e-05
4.250125062531265598e+02 2.696224218697430928e-05
4.259129564782390958e+02 2.721798505325102161e-05
4.268134067033516317e+02 2.759645063982181271e-05
4.277138569284642244e+02 2.793613270069119297e-05
4.286143071535767604e+02 2.803590583292179581e-05
4.295147573786892963e+02 2.782090588198470835e-05
4.304152076038018890e+02 2.735911218035928094e-05
4.313156578289144250e+02 2.685750642130478049e-05
4.322161080540270177e+02 2.652323320513656763e-05
4.331165582791395536e+02 2.639235700159550918e-05
4.340170085042520896e+02 2.634453057141284806e-05
4.349174587293646823e+02 2.627153606217452151e-05
4.358179089544772182e+02 2.617189019146277029e-05
4.367183591795897541e+02 2.609892650166551167e-05
4.376188094047023469e+02 2.619587819363653020e-05
4.385192596298148828e+02 2.657869807644082851e-05
4.394197098549274187e+02 2.719736897795852902e-05
4.403201600800400115e+02 2.794377546487918966e-05
4.412206103051525474e+02 2.869453359239443124e-05
4.421210605302650833e+02 2.929921488949524143e-05
4.430215107553776761e+02 2.972409218293311982e-05
4.439219609804902120e+02 3.007917975893193316e-05
4.448224112056028048e+02 3.044962062676887879e-05
4.457228614307153407e+02 3.079166872353609016e-05
4.466233116558278766e+02 3.101029690634064849e-05
4.475237618809404694e+02 3.106803379746822985e-05
4.484242121060530053e+02 3.105798236851090336e-05
4.493246623311655412e+02 3.111516120573713004e-05
4.502251125562781340e+02 3.125896503488237969e-05
4.511255627813906699e+02 3.141238445726428612e-05
4.520260130065032058e+02 3.151187278667114567e-05
4.529264632316157986e+02 3.158024511232161989e-05
4.538269134567283345e+02 3.173778339241412153e-05
4.547273636818408704e+02 3.211278758227377830e-05
4.556278139069534632e+02 3.273648516795550650e-05
4.565282641320659991e+02 3.351165035613951862e-05
4.574287143571785919e+02 3.419861313366285996e-05
4.583291645822911278e+02 3.457551698028150776e-05
4.592296148074036637e+02 3.472725301468509166e-05
4.601300650325162565e+02 3.495673581218473717e-05
4.610305152576287924e+02 3.543613867605326350e-05
4.619309654827413283e+02 3.603662484801189254e-05
4.628314157078539210e+02 3.650024565645309865e-05
4.637318659329664570e+02 3.679424604879022941e-05
4.646323161580789929e+02 3.709581762897323727e-05
4.655327663831915856e+02 3.746047491147789095e-05
4.664332166083041216e+02 3.775097305255254414e-05
4.673336668334167143e+02 3.788513234121607760e-05
4.682341170585292502e+02 3.791817741662137066e-05
4.691345672836417862e+02 3.790754308489861389e-05
4.700350175087543789e+02 3.789242140723335015e-05
4.709354677338669148e+02 3.787059264449896804e-05
4.718359179589794508e+02 3.777387361573156694e-05
4.727363681840920435e+02 3.756868371313528521e-05
4.736368184092045794e+02 3.728124595132997873e-05
4.745372686343171154e+02 3.685465241072961011e-05
4.754377188594297081e+02 3.624232132011444654e-05
4.763381690845422440e+02 3.558829374387017570e-05
4.772386193096547800e+02 3.505356003001081425e-05
4.781390695347673727e+02 3.467454094941775411e-05
4.790395197598799086e+02 3.445917242136028053e-05
4.799399699849925014e+02 3.442282431020486893e-05
4.808404202101050373e+02 3.458692969496118369e-05
4.817408704352175732e+02 3.499780057080374522e-05
4.826413206603301660e+02 3.562977033724886513e-05
4.835417708854427019e+02 3.633440595750711365e-05
4.844422211105552378e+02 3.700290377172439914e-05
4.853426713356678306e+02 3.761839534284220818e-05
4.862431215607803665e+02 3.813702036654577517e-05
4.871435717858929024e+02 3.859019712414928744e-05
4.880440220110054952e+02 3.910075459753099440e-05
4.889444722361180311e+02 3.960214872808652569e-05
4.898449224612305670e+02 3.981934199745672763e-05
4.907453726863431598e+02 3.957555993333189843e-05
4.916458229114556957e+02 3.893259933268406663e-05
4.925462731365682885e+02 3.809616449945718315e-05
4.934467233616808244e+02 3.732474785462417224e-05
4.943471735867933603e+02 3.678785915462780433e-05
4.952476238119059531e+02 3.651376247276058937e-05
4.961480740370184890e+02 3.649889158641766627e-05
4.970485242621310249e+02 3.676364347210859130e-05
4.979489744872436177e+02 3.729942993506461731e-05
4.988494247123561536e+02 3.807534139140275424e-05
4.997498749374686895e+02 3.907604438408676835e-05
5.006503251625812823e+02 4.024436901716342080e-05
5.015507753876938182e+02 4.139992428926829275e-05
5.024512256128063541e+02 4.225229278527490781e-05
5.033516758379189469e+02 4.269060072008931970e-05
5.042521260630314828e+02 4.294878339994746136e-05
5.051525762881440755e+02 4.329826458841280914e-05
5.060530265132566115e+02 4.377387527093904926e-05
5.069534767383691474e+02 4.415242958583522721e-05
5.078539269634817401e+02 4.426848727601804834e-05
5.087543771885942760e+02 4.425395429230500634e-05
5.096548274137068120e+02 4.425893470069903763e-05
5.105552776388194047e+02 4.419743133709768258e-05
5.114557278639319406e+02 4.398469137290331540e-05
5.123561780890445334e+02 4.364929370210382428e-05
5.132566283141570693e+02 4.332362030929055136e-05
5.141570785392696052e+02 4.317922494633465207e-05
5.150575287643821412e+02 4.321337666038114274e-05
5.159579789894946771e+02 4.331108852606125692e-05
5.168584292146073267e+02 4.336240015206294280e-05
5.177588794397198626e+02 4.326387234693733719e-05
5.186593296648323985e+02 4.306364056211780454e-05
5.195597798899449344e+02 4.297002238235019509e-05
5.204602301150574704e+02 4.314909943109102903e-05
5.213606803401700063e+02 4.356058047891305478e-05
5.222611305652826559e+02 4.400705556148876011e-05
5.231615807903951918e+02 4.440488219628923640e-05
5.240620310155077277e+02 4.480629240922475408e-05
5.249624812406202636e+02 4.520745022182109019e-05
5.258629314657327996e+02 4.559463651285981209e-05
5.267633816908454492e+02 4.601991826577612880e-05
5.276638319159579851e+02 4.654185039626119525e-05
5.285642821410705210e+02 4.722573210544385702e-05
5.294647323661830569e+02 4.813631768464091045e-05
5.303651825912955928e+02 4.922849786226980603e-05
5.312656328164081287e+02 5.031764047807338829e-05
5.321660830415207784e+02 5.124612419997156616e-05
5.330665332666333143e+02 5.200005001492910507e-05
5.339669834917458502e+02 5.265098939395277181e-05
5.348674337168583861e+02 5.322525566188300740e-05
5.357678839419709220e+02 5.376073886330101366e-05
5.366683341670835716e+02 5.439680377059520557e-05
5.375687843921961075e+02 5.515968841938727638e-05
5.384692346173086435e+02 5.588747055388663601e-05
5.393696848424211794e+02 5.654642966363127005e-05
5.402701350675337153e+02 5.735068595263105937e-05
5.411705852926462512e+02 5.847909234698454503e-05
5.420710355177589008e+02 5.988810297461697889e-05
5.429714857428714367e+02 6.137338842411529688e-05
5.438719359679839727e+02 6.279687195753549923e-05
5.447723861930965086e+02 6.419257716193719175e-05
5.456728364182090445e+02 6.564640948574439975e-05
5.465732866433215804e+02 6.703615729077438566e-05
5.474737368684342300e+02 6.808363533668605782e-05
5.483741870935467659e+02 6.877885543327859948e-05
5.492746373186593019e+02 6.940754086012680798e-05
5.501750875437718378e+02 7.006034403322868010e-05
5.510755377688843737e+02 7.069047020559732046e-05
5.519759879939970233e+02 7.144298594760614880e-05
5.528764382191095592e+02 7.239444018688925668e-05
5.537768884442220951e+02 7.330872020702235332e-05
5.546773386693346310e+02 7.388537249194126468e-05
5.555777888944471670e+02 7.397412137920237750e-05
5.564782391195597029e+02 7.357662484941278650e-05
5.573786893446723525e+02 7.290839713619072765e-05
5.582791395697848884e+02 7.225893268641587759e-05
5.591795897948974243e+02 7.183092949817915804e-05
5.600800400200099602e+02 7.164481077081809790e-05
5.609804902451224962e+02 7.146652035896499289e-05
5.618809404702351458e+02 7.108131396341267432e-05
5.627813906953476817e+02 7.064444571434808941e-05
5.636818409204602176e+02 7.048104025359851448e-05
5.645822911455727535e+02 7.056584558068249946e-05
5.654827413706852894e+02 7.057546773167345513e-05
5.663831915957978254e+02 7.038836332639727912e-05
5.672836418209104750e+02 7.014122613027322991e-05
5.681840920460230109e+02 6.987767078967634983e-05
5.690845422711355468e+02 6.956139190375538594e-05
5.699849924962480827e+02 6.933055821961926670e-05
5.708854427213606186e+02 6.952258834672941121e-05
5.717858929464731546e+02 7.031591895537541164e-05
5.726863431715858042e+02 7.141085563328939518e-05
5.735867933966983401e+02 7.242401768943736791e-05
5.744872436218108760e+02 7.325785780289874728e-05
5.753876938469234119e+02 7.389773189048197703e-05
5.762881440720359478e+02 7.436852090437138499e-05
5.771885942971485974e+02 7.480146874238254614e-05
5.780890445222611334e+02 7.535583966884211904e-05
5.789894947473736693e+02 7.605037149697192994e-05
5.798899449724862052e+02 7.669819064876309649e-05
5.807903951975987411e+02 7.701259494642255878e-05
5.816908454227112770e+02 7.701059691205859592e-05
5.825912956478239266e+02 7.706218211136596030e-05
5.834917458729364625e+02 7.741538672412874361e-05
5.843921960980489985e+02 7.803803220713181887e-05
5.852926463231615344e+02 7.882650593829293624e-05
5.861930965482740703e+02 7.966660918133292024e-05
5.870935467733867199e+02 8.053718664690804425e-05
5.879939969984992558e+02 8.158117538485509378e-05
5.888944472236117917e+02 8.281393077346331662e-05
5.897948974487243277e+02 8.384434165943149212e-05
5.906953476738368636e+02 8.410913163168828714e-05
5.915957978989493995e+02 8.337966710206961857e-05
5.924962481240620491e+02 8.199005396741118027e-05
5.933966983491745850e+02 8.060018382890899824e-05
5.942971485742871209e+02 7.966611509319980141e-05
5.951975987993996569e+02 7.918118525580791322e-05
5.960980490245121928e+02 7.884828394888892557e-05
5.969984992496247287e+02 7.837995799136242910e-05
5.978989494747373783e+02 7.777021175648574146e-05
5.987993996998499142e+02 7.734501218655991984e-05
5.996998499249624501e+02 7.736253304619155973e-05
6.006003001500749860e+02 7.783818822007115715e-05
6.015007503751875220e+02 7.861581218115709115e-05
6.024012006003001716e+02 7.936504373709335708e-05
6.033016508254127075e+02 7.988571788579507875e-05
6.042021010505252434e+02 8.027647785927850257e-05
6.051025512756377793e+02 8.074813216206391949e-05
6.060030015007503152e+02 8.131683093253151359e-05
6.069034517258628512e+02 8.174201835508960166e-05
6.078039019509755008e+02 8.191288958965000202e-05
6.087043521760880367e+02 8.201681627860458719e-05
6.096048024012005726e+02 8.211929513957529991e-05
6.105052526263131085e+02 8.216154203986343477e-05
6.114057028514256444e+02 8.233860045832883459e-05
6.123061530765382940e+02 8.272007008911889676e-05
6.132066033016508300e+02 8.292730289378562889e-05
6.141070535267633659e+02 8.266035744231727922e-05
6.150075037518759018e+02 8.208077283825659356e-05
6.159079539769884377e+02 8.146699434384917064e-05
6.168084042021009736e+02 8.103359637872158876e-05
6.177088544272136232e+02 8.096164857093633628e-05
6.186093046523261592e+02 8.107904299529389010e-05
6.195097548774386951e+02 8.085908638595140413e-05
6.204102051025512310e+02 8.009303868935522066e-05
6.213106553276637669e+02 7.913994203817950786e-05
6.222111055527763028e+02 7.843450362750667036e-05
6.231115557778889524e+02 7.822163203671287876e-05
6.240120060030014884e+02 7.844834559190621236e-05
6.249124562281140243e+02 7.887353745620393332e-05
6.258129064532265602e+02 7.932833684432131279e-05
6.267133566783390961e+02 7.979915025665176550e-05
6.276138069034517457e+02 8.033616883161565081e-05
6.285142571285642816e+02 8.090775784969405423e-05
6.294147073536768175e+02 8.115754000653857211e-05
6.303151575787893535e+02 8.072678662985400047e-05
6.312156078039018894e+02 7.988817706749547719e-05
6.321160580290144253e+02 7.932779566744614934e-05
6.330165082541270749e+02 7.943812656755406588e-05
6.339169584792396108e+02 7.998389942698601101e-05
6.348174087043521467e+02 8.054226886989148196e-05
6.357178589294646827e+02 8.086393502125467821e-05
6.366183091545772186e+02 8.075698407158150318e-05
6.375187593796898682e+02 8.031421169005305044e-05
6.384192096048024041e+02 7.977746266363450092e-05
6.393196598299149400e+02 7.913030848370091450e-05
6.402201100550274759e+02 7.826890492161897854e-05
6.411205602801400119e+02 7.734257514797528577e-05
6.420210105052525478e+02 7.669314628233130603e-05
6.429214607303651974e+02 7.644156623624945291e-05
6.438219109554777333e+02 7.635220000154321668e-05
6.447223611805902692e+02 7.620644646150472414e-05
6.456228114057028051e+02 7.597596631665461337e-05
6.465232616308153411e+02 7.573511905283609037e-05
6.474237118559278770e+02 7.558913157913256964e-05
6.483241620810405266e+02 7.550600411534867846e-05
6.492246123061530625e+02 7.524431969985109206e-05
6.501250625312655984e+02 7.457498645719051755e-05
6.510255127563781343e+02 7.362015274828258586e-05
6.519259629814906702e+02 7.264753672101336107e-05
6.528264132066033198e+02 7.177430455409508549e-05
6.537268634317158558e+02 7.101219045653264241e-05
6.546273136568283917e+02 7.030972624277768773e-05
6.555277638819409276e+02 6.959704346141668051e-05
6.564282141070534635e+02 6.890167444583386754e-05
6.573286643321659994e+02 6.830373382337234724e-05
6.582291145572786490e+02 6.779805398791134035e-05
6.591295647823911850e+02 6.751056857424482397e-05
6.600300150075037209e+02 6.771184595704902965e-05
6.609304652326162568e+02 6.834016525187720456e-05
6.618309154577287927e+02 6.884009020701180748e-05
6.627313656828414423e+02 6.869362344912681158e-05
6.636318159079539782e+02 6.790360155205705823e-05
6.645322661330665142e+02 6.684158333454289348e-05
6.654327163581790501e+02 6.584521834792313373e-05
6.663331665832915860e+02 6.497638725876206823e-05
6.672336168084041219e+02 6.422753389811609978e-05
6.681340670335167715e+02 6.379826522505794119e-05
6.690345172586293074e+02 6.379754822612126433e-05
6.699349674837418434e+02 6.403345973676294279e-05
6.708354177088543793e+02 6.423014593986003668e-05
6.717358679339669152e+02 6.427337254567544705e-05
6.726363181590794511e+02 6.408071987711001305e-05
6.735367683841921007e+02 6.368383643191203398e-05
6.744372186093046366e+02 6.331641190974887862e-05
6.753376688344171725e+02 6.316767139665589574e-05
6.762381190595297085e+02 6.327309894475889606e-05
6.771385692846422444e+02 6.343816680380893612e-05
6.780390195097548940e+02 6.332614421392957231e-05
6.789394697348674299e+02 6.270816874212867861e-05
6.798399199599799658e+02 6.160872063854603967e-05
6.807403701850925017e+02 6.022473850150928553e-05
6.816408204102050377e+02 5.897252306400097721e-05
6.825412706353175736e+02 5.838014757836144410e-05
6.834417208604302232e+02 5.867420665973943210e-05
6.843421710855427591e+02 5.953479938167951249e-05
6.852426213106552950e+02 6.040603808053842148e-05
6.861430715357678309e+02 6.103575738343756983e-05
6.870435217608803669e+02 6.139193816451080825e-05
6.879439719859930165e+02 6.129136760640951193e-05
6.888444222111055524e+02 6.068760930123079063e-05
6.897448724362180883e+02 5.984702777802963720e-05
6.906453226613306242e+02 5.887028813982087883e-05
6.915457728864431601e+02 5.767139796613098034e-05
6.924462231115556961e+02 5.632715279816252117e-05
6.933466733366683457e+02 5.503686355247049779e-05
6.942471235617808816e+02 5.389143367232778116e-05
6.951475737868934175e+02 5.285754061203316596e-05
6.960480240120059534e+02 5.200222937433459069e-05
6.969484742371184893e+02 5.138072944629277643e-05
6.978489244622311389e+02 5.090810139022993965e-05
6.987493746873436749e+02 5.065583110276383478e-05
6.996498249124562108e+02 5.076638690228793273e-05
7.005502751375687467e+02 5.110246460832968665e-05
7.014507253626812826e+02 5.143361657959080388e-05
7.023511755877938185e+02 5.172841163592053007e-05
7.032516258129064681e+02 5.197141582213075071e-05
7.041520760380190040e+02 5.211153898406933372e-05
7.050525262631315400e+02 5.223764684441794843e-05
7.059529764882440759e+02 5.243556509975116111e-05
7.068534267133566118e+02 5.262503565892646652e-05
7.077538769384691477e+02 5.270663133203627086e-05
7.086543271635817973e+02 5.266715111779766018e-05
7.095547773886943332e+02 5.254206964669991248e-05
7.104552276138068692e+02 5.235559923267086489e-05
7.113556778389194051e+02 5.204887507875447455e-05
7.122561280640319410e+02 5.145052593174479345e-05
7.131565782891445906e+02 5.049243319792848749e-05
7.140570285142571265e+02 4.939953232151139369e-05
7.149574787393696624e+02 4.851968900429133206e-05
7.158579289644821984e+02 4.801892005867034358e-05
7.167583791895947343e+02 4.777337957938485578e-05
7.176588294147072702e+02 4.752360181158412668e-05
7.185592796398199198e+02 4.703804877495260903e-05
7.194597298649324557e+02 4.624440856506336592e-05
7.203601800900449916e+02 4.526091844955693104e-05
7.212606303151575275e+02 4.439589083439244308e-05
7.221610805402700635e+02 4.395345689560422019e-05
7.230615307653827131e+02 4.391966939376808107e-05
7.239619809904952490e+02 4.396001005049138320e-05
7.248624312156077849e+02 4.378817515663525054e-05
7.257628814407203208e+02 4.336903196417532275e-05
7.266633316658328567e+02 4.282547176653217518e-05
7.275637818909453927e+02 4.231291846100149179e-05
7.284642321160580423e+02 4.191094780945399249e-05
7.293646823411705782e+02 4.154893033884592856e-05
7.302651325662831141e+02 4.117370195246247878e-05
7.311655827913956500e+02 4.081959805625125389e-05
7.320660330165081859e+02 4.049513432126898961e-05
7.329664832416207219e+02 4.018709972444401427e-05
7.338669334667333715e+02 3.990655137519995353e-05
7.347673836918459074e+02 3.969687303018398740e-05
7.356678339169584433e+02 3.964072952143056256e-05
7.365682841420709792e+02 3.977979931475498896e-05
7.374687343671835151e+02 4.007177037734012967e-05
7.383691845922961647e+02 4.038767491644145797e-05
7.392696348174087007e+02 4.053019209808750469e-05
7.401700850425212366e+02 4.042964225192771541e-05
7.410705352676337725e+02 4.024212154343540329e-05
7.419709854927463084e+02 4.013125440306500606e-05
7.428714357178588443e+02 4.003556576857975036e-05
7.437718859429714939e+02 3.974151622757603772e-05
7.446723361680840299e+02 3.920396406055658183e-05
7.455727863931965658e+02 3.864708577415531361e-05
7.464732366183091017e+02 3.822688939758236591e-05
7.473736868434216376e+02 3.793550690688492482e-05
7.482741370685342872e+02 3.775770604911143354e-05
7.491745872936468231e+02 3.768044320576898566e-05
7.500750375187593590e+02 3.764181002878438524e-05
7.509754877438718950e+02 3.753463694991882390e-05
7.518759379689844309e+02 3.732875317769918317e-05
7.527763881940969668e+02 3.709978810112784018e-05
7.536768384192096164e+02 3.686562137768686730e-05
7.545772886443221523e+02 3.664210940692140821e-05
7.554777388694346882e+02 3.649782993073841762e-05
7.563781890945472242e+02 3.641350956431746368e-05
7.572786393196597601e+02 3.621442882007592720e-05
7.581790895447722960e+02 3.577599080468003644e-05
7.590795397698849456e+02 3.518875263586832431e-05
7.599799899949974815e+02 3.464960811921165718e-05
7.608804402201100174e+02 3.425821935484797546e-05
7.617808904452225534e+02 3.392608334641679087e-05
7.626813406703350893e+02 3.356641125364397653e-05
7.635817908954477389e+02 3.318759291320464371e-05
7.644822411205602748e+02 3.283076740152364318e-05
7.653826913456728107e+02 3.255431890962149608e-05
7.662831415707853466e+02 3.233092582463060712e-05
7.671835917958978825e+02 3.206070664981749291e-05
7.680840420210104185e+02 3.173560001497432434e-05
7.689844922461230681e+02 3.143907007925408767e-05
7.698849424712356040e+02 3.128793193318776561e-05
7.707853926963481399e+02 3.137418011681842071e-05
7.716858429214606758e+02 3.163964664612726275e-05
7.725862931465732117e+02 3.195850077535636438e-05
7.734867433716858613e+02 3.226320144693688966e-05
7.743871935967983973e+02 3.248566418584417304e-05
7.752876438219109332e+02 3.256075473600370169e-05
7.761880940470234691e+02 3.251010985507528481e-05
7.770885442721360050e+02 3.236220601471963320e-05
7.779889944972485409e+02 3.203525839289025575e-05
7.788894447223611905e+02 3.150821747862925254e-05
7.797898949474737265e+02 3.096728312011681826e-05
7.806903451725862624e+02 3.060859341441479070e-05
7.815907953976987983e+02 3.039706727898002219e-05
7.824912456228113342e+02 3.019949329392008572e-05
7.833916958479238701e+02 2.997005773613076621e-05
7.842921460730365197e+02 2.969415494201552066e-05
7.851925962981490557e+02 2.934283741420488210e-05
7.860930465232615916e+02 2.892296604698318054e-05
7.869934967483741275e+02 2.845948342935901315e-05
7.878939469734866634e+02 2.804556824142311660e-05
7.887943971985993130e+02 2.781905565545357253e-05
7.896948474237118489e+02 2.783395655765280203e-05
7.905952976488243849e+02 2.804269010000368217e-05
7.914957478739369208e+02 2.831831578419084845e-05
7.923961980990494567e+02 2.856618557574989019e-05
7.932966483241619926e+02 2.880912362370277122e-05
7.941970985492746422e+02 2.906152368955290942e-05
7.950975487743871781e+02 2.928149244216308290e-05
7.959979989994997140e+02 2.948292856226341992e-05
7.968984492246122500e+02 2.972563036104547716e-05
7.977988994497247859e+02 2.998822123698305017e-05
7.986993496748374355e+02 3.023606351912501146e-05
7.995997998999499714e+02 3.051058084198090821e-05
8.005002501250625073e+02 3.082870858466335378e-05
8.014007003501750432e+02 3.117133060912724341e-05
8.023011505752875792e+02 3.150481537723080343e-05
8.032016008004001151e+02 3.170642175626042699e-05
8.041020510255127647e+02 3.162734952587190307e-05
8.050025012506253006e+02 3.127878645158078036e-05
8.059029514757378365e+02 3.080323488197676612e-05
8.068034017008503724e+02 3.034354926045979115e-05
8.077038519259629084e+02 3.000755443572756620e-05
8.086043021510754443e+02 2.980869038097213716e-05
8.095047523761880939e+02 2.964584190113189684e-05
8.104052026013006298e+02 2.944014309612421996e-05
8.113056528264131657e+02 2.923081930780008062e-05
8.122061030515257016e+02 2.916650607770344402e-05
8.131065532766382375e+02 2.939001885641802562e-05
8.140070035017508872e+02 2.994421507567063167e-05
8.149074537268634231e+02 3.067295792732855183e-05
8.158079039519759590e+02 3.126518357083804127e-05
8.167083541770884949e+02 3.152939969277691152e-05
8.176088044022010308e+02 3.156893553912456266e-05
8.185092546273135667e+02 3.162060371415403870e-05
8.194097048524262163e+02 3.174873414581061930e-05
8.203101550775387523e+02 3.185423032132803984e-05
8.212106053026512882e+02 3.189875419736409884e-05
8.221110555277638241e+02 3.191547179580767122e-05
8.230115057528763600e+02 3.187158644440098908e-05
8.239119559779890096e+02 3.169167858193505351e-05
8.248124062031015455e+02 3.138389908216569253e-05
8.257128564282140815e+02 3.093234471279674022e-05
8.266133066533266174e+02 3.029998990024926380e-05
8.275137568784391533e+02 2.961136762472643517e-05
8.284142071035516892e+02 2.910347131961690589e-05
8.293146573286643388e+02 2.891761981776664879e-05
8.302151075537768747e+02 2.902179586620132676e-05
8.311155577788894107e+02 2.923478162223946093e-05
8.320160080040019466e+02 2.934283243425632001e-05
8.329164582291144825e+02 2.931158331206573092e-05
8.338169084542270184e+02 2.927180492230081074e-05
8.347173586793396680e+02 2.930551494214870704e-05
8.356178089044522039e+02 2.933024364713993453e-05
8.365182591295647399e+02 2.927191812332521814e-05
8.374187093546772758e+02 2.921219869633734861e-05
8.383191595797898117e+02 2.926639849119789527e-05
8.392196098049024613e+02 2.949090223110547692e-05
8.401200600300149972e+02 2.992230071286937243e-05
8.410205102551275331e+02 3.052514559063452908e-05
8.419209604802400690e+02 3.111394527350587832e-05
8.428214107053526050e+02 3.154723852386420165e-05
8.437218609304651409e+02 3.189587372913470253e-05
8.446223111555777905e+02 3.224314842772830190e-05
8.455227613806903264e+02 3.256189726197224985e-05
8.464232116058028623e+02 3.288378390516166609e-05
8.473236618309153982e+02 3.336539959610479802e-05
8.482241120560279342e+02 3.416855017960648567e-05
8.491245622811405838e+02 3.528893666061010831e-05
8.500250125062531197e+02 3.649352262847632136e-05
8.509254627313656556e+02 3.744394341175258194e-05
8.518259129564781915e+02 3.792623805579269157e-05
8.527263631815907274e+02 3.788724635064664716e-05
8.536268134067032634e+02 3.743655981325982716e-05
8.545272636318159130e+02 3.683313122416008960e-05
8.554277138569284489e+02 3.633185526036737103e-05
8.563281640820409848e+02 3.613892657191109453e-05
8.572286143071535207e+02 3.628832261863831557e-05
8.581290645322660566e+02 3.647701614865803664e-05
8.590295147573785925e+02 3.635545070242918099e-05
8.599299649824912422e+02 3.590012137637813076e-05
8.608304152076037781e+02 3.528028975337598393e-05
8.617308654327163140e+02 3.462896534361139107e-05
8.626313156578288499e+02 3.397628165155594065e-05
8.635317658829413858e+02 3.336890270460728157e-05
8.644322161080540354e+02 3.290347875184627892e-05
8.653326663331665713e+02 3.260222661522294230e-05
8.662331165582791073e+02 3.246232553712368780e-05
8.671335667833916432e+02 3.251749663808938467e-05
8.680340170085041791e+02 3.278742435008801702e-05
8.689344672336167150e+02 3.314153535113632598e-05
8.698349174587293646e+02 3.337119790251622268e-05
8.707353676838419005e+02 3.343621247819737974e-05
8.716358179089544365e+02 3.344317169023018019e-05
8.725362681340669724e+02 3.343195950984057836e-05
8.734367183591795083e+02 3.333411618636230559e-05
8.743371685842921579e+02 3.315624282855445020e-05
8.752376188094046938e+02 3.307352942901532381e-05
8.761380690345172297e+02 3.320697412303261090e-05
8.770385192596297657e+02 3.349216250096660524e-05
8.779389694847423016e+02 3.381210763727107244e-05
8.788394197098548375e+02 3.407047411398519732e-05
8.797398699349674871e+02 3.430249494923520666e-05
8.806403201600800230e+02 3.465688531917445148e-05
8.815407703851925589e+02 3.511846716862236130e-05
8.824412206103050949e+02 3.555217476092646157e-05
8.833416708354176308e+02 3.596004854002197873e-05
8.842421210605301667e+02 3.637677303290235776e-05
8.851425712856428163e+02 3.677077199396182105e-05
8.860430215107553522e+02 3.720034261376253858e-05
8.869434717358678881e+02 3.780446526297322126e-05
8.878439219609804240e+02 3.868380986608418374e-05
8.887443721860929600e+02 3.988693280497625720e-05
8.896448224112056096e+02 4.136620568733333925e-05
8.905452726363181455e+02 4.279978283674741992e-05
8.914457228614306814e+02 4.375018527023459184e-05
8.923461730865432173e+02 4.413070184613832145e-05
8.932466233116557532e+02 4.416602005641927730e-05
8.941470735367682892e+02 4.401541788075268372e-05
8.950475237618809388e+02 4.372165892321472152e-05
8.959479739869934747e+02 4.336653669699282160e-05
8.968484242121060106e+02 4.303812410081544988e-05
8.977488744372185465e+02 4.277160577685467101e-05
8.986493246623310824e+02 4.255492366581182471e-05
8.995497748874437320e+02 4.226802334368260744e-05
9.004502251125562680e+02 4.189728526281479617e-05
9.013506753376688039e+02 4.165712349065992925e-05
9.022511255627813398e+02 4.179556280204446548e-05
9.031515757878938757e+02 4.250805367407681397e-05
9.040520260130064116e+02 4.386135023095254866e-05
9.049524762381190612e+02 4.574764793657755445e-05
9.058529264632315972e+02 4.800727564786519305e-05
9.067533766883441331e+02 5.047093788656875158e-05
9.076538269134566690e+02 5.281717607217779241e-05
9.085542771385692049e+02 5.461117734015002756e-05
9.094547273636817408e+02 5.567983750492151317e-05
9.103551775887943904e+02 5.622288240024704618e-05
9.112556278139069263e+02 5.649526771944463603e-05
9.121560780390194623e+02 5.677442668004847312e-05
9.130565282641319982e+02 5.737087596134096657e-05
9.139569784892445341e+02 5.834174589675201323e-05
9.148574287143571837e+02 5.949242557925759749e-05
9.157578789394697196e+02 6.060807664760490231e-05
9.166583291645822555e+02 6.156050523537743365e-05
9.175587793896947915e+02 6.232522261905144541e-05
9.184592296148073274e+02 6.303628054316672501e-05
9.193596798399198633e+02 6.396730395279306243e-05
9.202601300650325129e+02 6.519947683755866600e-05
9.211605802901450488e+02 6.649045937369783539e-05
9.220610305152575847e+02 6.760886498973403525e-05
9.229614807403701207e+02 6.849933119917684451e-05
9.238619309654826566e+02 6.921570455851204430e-05
9.247623811905953062e+02 6.982821933735858819e-05
9.256628314157078421e+02 7.047893125842500056e-05
9.265632816408203780e+02 7.124390850224964899e-05
9.274637318659329139e+02 7.204121606021993726e-05
9.283641820910454499e+02 7.305422229302301431e-05
9.292646323161579858e+02 7.467793907244345373e-05
9.301650825412706354e+02 7.693476511924829170e-05
9.310655327663831713e+02 7.941942628680841718e-05
9.319659829914957072e+02 8.157029317308793167e-05
9.328664332166082431e+02 8.296136021424721822e-05
9.337668834417207790e+02 8.366365010141713163e-05
9.346673336668334287e+02 8.406299688524200759e-05
9.355677838919459646e+02 8.443843781039514940e-05
9.364682341170585005e+02 8.479576923769624984e-05
9.373686843421710364e+02 8.503147086629142570e-05
9.382691345672835723e+02 8.499268796902205772e-05
9.391695847923961082e+02 8.456171596087963180e-05
9.400700350175087578e+02 8.409550445663038548e-05
9.409704852426212938e+02 8.398326238246217796e-05
9.418709354677338297e+02 8.421084549867809122e-05
9.427713856928463656e+02 8.482140417640578363e-05
9.436718359179589015e+02 8.600361967357652692e-05
9.445722861430714374e+02 8.757326122281568670e-05
9.454727363681840870e+02 8.885511310267155843e-05
9.463731865932966230e+02 8.947787047594594676e-05
9.472736368184091589e+02 8.965784201081374667e-05
9.481740870435216948e+02 8.977225453203792338e-05
9.490745372686342307e+02 9.016179689863600740e-05
9.499749874937468803e+02 9.105841308178063570e-05
9.508754377188594162e+02 9.247050332995319726e-05
9.517758879439719522e+02 9.430257621812896307e-05
9.526763381690844881e+02 9.653224069721007793e-05
9.535767883941970240e+02 9.902586543160864110e-05
9.544772386193095599e+02 1.015454097010175418e-04
9.553776888444222095e+02 1.040648678401472912e-04
9.562781390695347454e+02 1.066688219003719419e-04
9.571785892946472813e+02 1.095650668976435921e-04
9.580790395197598173e+02 1.127794146116405647e-04
9.589794897448723532e+02 1.158592835368676396e-04
9.598799399699850028e+02 1.181272358416136155e-04
9.607803901950975387e+02 1.191254978285684573e-04
9.616808404202100746e+02 1.190116533363006580e-04
9.625812906453226105e+02 1.183862952106649424e-04
9.634817408704351465e+02 1.178066342265713295e-04
9.643821910955476824e+02 1.176385065600629265e-04
9.652826413206603320e+02 1.180302844312480516e-04
9.661830915457728679e+02 1.191392560916196839e-04
9.670835417708854038e+02 1.213351442008049863e-04
9.679839919959979397e+02 1.247401025804019924e-04
9.688844422211104757e+02 1.289659774797982574e-04
9.697848924462230116e+02 1.335936911627254612e-04
9.706853426713356612e+02 1.382725175298132956e-04
9.715857928964481971e+02 1.424484796741289918e-04
9.724862431215607330e+02 1.455744771542774737e-04
9.733866933466732689e+02 1.476596059909213599e-04
9.742871435717858049e+02 1.490561451412138303e-04
9.751875937968984545e+02 1.501504424403556916e-04
9.760880440220109904e+02 1.515380564587241958e-04
9.769884942471235263e+02 1.537550836788144956e-04
9.778889444722360622e+02 1.573604511799986329e-04
9.787893946973485981e+02 1.627010019700689508e-04
9.796898449224611340e+02 1.693667693695865173e-04
9.805902951475737837e+02 1.762568439356449336e-04
9.814907453726863196e+02 1.821451504638391269e-04
9.823911955977988555e+02 1.863968905819188347e-04
9.832916458229113914e+02 1.894943888445886474e-04
9.841920960480239273e+02 1.921172463700044253e-04
9.850925462731365769e+02 1.944943031473578277e-04
9.859929964982491128e+02 1.969602993960833492e-04
9.868934467233616488e+02 1.997446300428866678e-04
9.877938969484741847e+02 2.027023827744534349e-04
9.886943471735867206e+02 2.061361317409457548e-04
9.895947973986992565e+02 2.104189379523696936e-04
9.904952476238119061e+02 2.151289022964127204e-04
9.913956978489244420e+02 2.191834524994216863e-04
9.922961480740369780e+02 2.219733659254077970e-04
9.931965982991495139e+02 2.242011739315791447e-04
9.940970485242620498e+02 2.264847645004572114e-04
9.949974987493745857e+02 2.284300140360577232e-04
9.958979489744872353e+02 2.301180762054360262e-04
9.967983991995997712e+02 2.325286655577227517e-04
9.976988494247123072e+02 2.362396544692238096e-04
9.985992996498248431e+02 2.408660285699424806e-04
9.994997498749373790e+02 2.455964368533087878e-04
1.000400200100050029e+03 2.501159787914995921e-04
1.001300650325162565e+03 2.548196536489331443e-04
1.002201100550275100e+03 2.601709342920044909e-04
1.003101550775387636e+03 2.663564325532308459e-04
1.004002001000500172e+03 2.732163114280399398e-04
1.004902451225612708e+03 2.798326397525195556e-04
1.005802901450725358e+03 2.849126303958954363e-04
1.006703351675837894e+03 2.882823557827606767e-04
1.007603801900950430e+03 2.909655961549273613e-04
1.008504252126062966e+03 2.941148347583740744e-04
1.009404702351175501e+03 2.984261015209280221e-04
1.010305152576288151e+03 3.045413380153336831e-04
1.011205602801400687e+03 3.124267190579200658e-04
1.012106053026513223e+03 3.203389421029718964e-04
1.013006503251625759e+03 3.269086690610819223e-04
1.013906953476738295e+03 3.327305384014136698e-04
1.014807403701850831e+03 3.389844681314801056e-04
1.015707853926963480e+03 3.465303077434510066e-04
1.016608304152076016e+03 3.554460432631702119e-04
1.017508754377188552e+03 3.639978214605260306e-04
1.018409204602301088e+03 3.699614977593804026e-04
1.019309654827413624e+03 3.734462720219344257e-04
1.020210105052526160e+03 3.761388052536525860e-04
1.021110555277638809e+03 3.781291347002011861e-04
1.022011005502751345e+03 3.785667249745449628e-04
1.022911455727863881e+03 3.794881806604185194e-04
1.023811905952976417e+03 3.848824692312887178e-04
1.024712356178089067e+03 3.962061158875098419e-04
1.025612806403201603e+03 4.119946044355990108e-04
1.026513256628314139e+03 4.301411957123417733e-04
1.027413706853426675e+03 4.487292971357432895e-04
1.028314157078539210e+03 4.656932693715369999e-04
1.029214607303651746e+03 4.796891706514983520e-04
1.030115057528764282e+03 4.910025455125087944e-04
1.031015507753876818e+03 5.004693263515740424e-04
1.031915957978989354e+03 5.090408552311253849e-04
1.032816408204101890e+03 5.172594320149284447e-04
1.033716858429214653e+03 5.253395168406773449e-04
1.034617308654327189e+03 5.330817119217397954e-04
1.035517758879439725e+03 5.392499175107112871e-04
1.036418209104552261e+03 5.429558464819570331e-04
1.037318659329664797e+03 5.452949073977697569e-04
1.038219109554777333e+03 5.481840231932942446e-04
1.039119559779889869e+03 5.524814582891991906e-04
1.040020010005002405e+03 5.575510109745692236e-04
1.040920460230114941e+03 5.627364335345079764e-04
1.041820910455227477e+03 5.690933933545483771e-04
1.042721360680340013e+03 5.781666296146915126e-04
1.043621810905452776e+03 5.882932085099301742e-04
1.044522261130565312e+03 5.962661300833383337e-04
1.045422711355677848e+03 6.019667559578203249e-04
1.046323161580790384e+03 6.076091822270207480e-04
1.047223611805902920e+03 6.141931794333312230e-04
1.048124062031015455e+03 6.216667018550538866e-04
1.049024512256127991e+03 6.307502090068996953e-04
1.049924962481240527e+03 6.417479809297396915e-04
1.050825412706353063e+03 6.535851745058671516e-04
1.051725862931465599e+03 6.654298599136391438e-04
1.052626313156578135e+03 6.759658347075529110e-04
1.053526763381690898e+03 6.842727496130244147e-04
1.054427213606803434e+03 6.907841203699126645e-04
1.055327663831915970e+03 6.943261973742752280e-04
1.056228114057028506e+03 6.951638171513702764e-04
1.057128564282141042e+03 6.963365722623348318e-04
1.058029014507253578e+03 6.988565602582690094e-04
1.058929464732366114e+03 7.009622463536336343e-04
1.059829914957478650e+03 7.005917948966664758e-04
1.060730365182591186e+03 6.977305512015004882e-04
1.061630815407703722e+03 6.942755719290495328e-04
1.062531265632816257e+03 6.920189612503822169e-04
1.063431715857929021e+03 6.919606478757021244e-04
1.064332166083041557e+03 6.946384307513962754e-04
1.065232616308154093e+03 6.993460650271355813e-04
1.066133066533266629e+03 7.032928820008521294e-04
1.067033516758379164e+03 7.030175148511354742e-04
1.067933966983491700e+03 6.962021384213708686e-04
1.068834417208604236e+03 6.851690145097916011e-04
1.069734867433716772e+03 6.763233274818088647e-04
1.070635317658829308e+03 6.739352795230490936e-04
1.071535767883941844e+03 6.776023700249873436e-04
1.072436218109054380e+03 6.847520606214247156e-04
1.073336668334167143e+03 6.925002774112467251e-04
1.074237118559279679e+03 6.983966730231127174e-04
1.075137568784392215e+03 7.007948799773957736e-04
1.076038019009504751e+03 6.980604643992032506e-04
1.076938469234617287e+03 6.895007861563756842e-04
1.077838919459729823e+03 6.777066380306646844e-04
1.078739369684842359e+03 6.666000983026234682e-04
1.079639819909954895e+03 6.580018819920399132e-04
1.080540270135067431e+03 6.513633310989972499e-04
1.081440720360179967e+03 6.462793150355647300e-04
1.082341170585292502e+03 6.427016561321729788e-04
1.083241620810405038e+03 6.397363549593040443e-04
1.084142071035517802e+03 6.360518355985064027e-04
1.085042521260630338e+03 6.308650085871824907e-04
1.085942971485742873e+03 6.239142153185223876e-04
1.086843421710855409e+03 6.135741645032056308e-04
1.087743871935967945e+03 5.980725440403377932e-04
1.088644322161080481e+03 5.800449149089820624e-04
1.089544772386193017e+03 5.648939216402348472e-04
1.090445222611305553e+03 5.564780206248168574e-04
1.091345672836418089e+03 5.548348246706512462e-04
1.092246123061530625e+03 5.559847847042817320e-04
1.093146573286643161e+03 5.546900039714688143e-04
1.094047023511755924e+03 5.492857765881598237e-04
1.094947473736868460e+03 5.411931776910262068e-04
1.095847923961980996e+03 5.304234283299801272e-04
1.096748374187093532e+03 5.164934437579659504e-04
1.097648824412206068e+03 5.009061588440068139e-04
1.098549274637318604e+03 4.866035235886794689e-04
1.099449724862431140e+03 4.754663572272785376e-04
1.100350175087543676e+03 4.677474246049720245e-04
1.101250625312656211e+03 4.622793894938986782e-04
1.102151075537768747e+03 4.573173891458046634e-04
1.103051525762881283e+03 4.519366391613999722e-04
1.103951975987994047e+03 4.445124178554712415e-04
1.104852426213106583e+03 4.326731472753968569e-04
1.105752876438219118e+03 4.168435335818912566e-04
1.106653326663331654e+03 4.002510201664989100e-04
1.107553776888444190e+03 3.856910954022162012e-04
1.108454227113556726e+03 3.742922586424600700e-04
1.109354677338669262e+03 3.661866191648872827e-04
1.110255127563781798e+03 3.607205640707180066e-04
1.111155577788894334e+03 3.564908529256425457e-04
1.112056028014006870e+03 3.516291346104413414e-04
1.112956478239119406e+03 3.446022821239740357e-04
1.113856928464232169e+03 3.361097958680566962e-04
1.114757378689344705e+03 3.279039802698008733e-04
1.115657828914457241e+03 3.201009085380313490e-04
1.116558279139569777e+03 3.113620880497734505e-04
1.117458729364682313e+03 3.007864911364899739e-04
1.118359179589794849e+03 2.889310172552402348e-04
1.119259629814907385e+03 2.769430399539802635e-04
1.120160080040019920e+03 2.650855569723827932e-04
1.121060530265132456e+03 2.529730332725197003e-04
1.121960980490244992e+03 2.409986442809249963e-04
1.122861430715357528e+03 2.303838444439558074e-04
1.123761880940470292e+03 2.221938999650845028e-04
1.124662331165582827e+03 2.164858984226145544e-04
1.125562781390695363e+03 2.119042471113534703e-04
1.126463231615807899e+03 2.067245938057723565e-04
1.127363681840920435e+03 2.004221752044892493e-04
1.128264132066032971e+03 1.941678010074936232e-04
1.129164582291145507e+03 1.898809200590622400e-04
1.130065032516258043e+03 1.879390806401251427e-04
1.130965482741370579e+03 1.855367364473776157e-04
1.131865932966483115e+03 1.795049660522967869e-04
1.132766383191595651e+03 1.700673546588413675e-04
1.133666833416708187e+03 1.592419521539110159e-04
1.134567283641820950e+03 1.487080820899749271e-04
1.135467733866933486e+03 1.395728112747316634e-04
1.136368184092046022e+03 1.320388449987685870e-04
1.137268634317158558e+03 1.254680027639768446e-04
1.138169084542271094e+03 1.195135581480882462e-04
1.139069534767383630e+03 1.143486702122370778e-04
1.139969984992496165e+03 1.100751572406285232e-04
1.140870435217608701e+03 1.066805089804672991e-04
1.141770885442721237e+03 1.038444836606268522e-04
1.142671335667833773e+03 1.011144707565662238e-04
1.143571785892946309e+03 9.835073246626528556e-05
1.144472236118059072e+03 9.558852439442299287e-05
1.145372686343171608e+03 9.285929935924094143e-05
1.146273136568284144e+03 9.044967823733231856e-05
1.147173586793396680e+03 8.875125717171132632e-05
1.148074037018509216e+03 8.778481995433207793e-05
1.148974487243621752e+03 8.720826608820359080e-05
1.149874937468734288e+03 8.663293739643844623e-05
1.150775387693846824e+03 8.586117170742610632e-05
1.151675837918959360e+03 8.503719830452010893e-05
1.152576288144071896e+03 8.448213356500110889e-05
1.153476738369184432e+03 8.434202880299133682e-05
1.154377188594297195e+03 8.451799714011996249e-05
1.155277638819409731e+03 8.500362435731362472e-05
1.156178089044522267e+03 8.574922258960397030e-05
1.157078539269634803e+03 8.656941018226263084e-05
1.157978989494747339e+03 8.744859859935256096e-05
1.158879439719859874e+03 8.848327450091865865e-05
1.159779889944972410e+03 8.976695974860865132e-05
1.160680340170084946e+03 9.146965320218322139e-05
1.161580790395197482e+03 9.368766140456365828e-05
1.162481240620310018e+03 9.626329197435484612e-05
1.163381690845422554e+03 9.904525459387600837e-05
1.164282141070535317e+03 1.021275800783618163e-04
1.165182591295647853e+03 1.060292086587984482e-04
1.166083041520760389e+03 1.109150469656930985e-04
1.166983491745872925e+03 1.157135616542776603e-04
1.167883941970985461e+03 1.190163084916575801e-04
1.168784392196097997e+03 1.206042948689600724e-04
1.169684842421210533e+03 1.213259884501078235e-04
1.170585292646323069e+03 1.219087784465940901e-04
1.171485742871435605e+03 1.227366703461719348e-04
1.172386193096548141e+03 1.242022929808305289e-04
1.173286643321660677e+03 1.265696822486172342e-04
1.174187093546773440e+03 1.296980705895948831e-04
1.175087543771885976e+03 1.332334663123747984e-04
1.175987993996998512e+03 1.373016134746632866e-04
1.176888444222111048e+03 1.417700977061070596e-04
1.177788894447223583e+03 1.455689035919659527e-04
1.178689344672336119e+03 1.480840639150462839e-04
1.179589794897448655e+03 1.500064337204962042e-04
1.180490245122561191e+03 1.523573117452431641e-04
1.181390695347673727e+03 1.556180748329593548e-04
1.182291145572786263e+03 1.598314779013464072e-04
1.183191595797898799e+03 1.650576919942060253e-04
1.184092046023011562e+03 1.711039212712456563e-04
1.184992496248124098e+03 1.776086950809180592e-04
1.185892946473236634e+03 1.844549610171093896e-04
1.186793396698349170e+03 1.915592351186230031e-04
1.187693846923461706e+03 1.988885583848527708e-04
1.188594297148574242e+03 2.061538645733263593e-04
1.189494747373686778e+03 2.121948508716521836e-04
1.190395197598799314e+03 2.158292482113655607e-04
1.191295647823911850e+03 2.167337757192991116e-04
1.192196098049024386e+03 2.154254495048366373e-04
1.193096548274136921e+03 2.132427260335656677e-04
1.193996998499249457e+03 2.116053577396333717e-04
1.194897448724362221e+03 2.108802695517099596e-04
1.195797898949474757e+03 2.106879772959165131e-04
1.196698349174587293e+03 2.113170412055349792e-04
1.197598799399699828e+03 2.139899602101720489e-04
1.198499249624812364e+03 2.191485225508835145e-04
1.199399699849924900e+03 2.259118348555466725e-04
1.200300150075037436e+03 2.331146375172916203e-04
1.201200600300149972e+03 2.395225648186730214e-04
1.202101050525262508e+03 2.442450220465842070e-04
1.203001500750375044e+03 2.475072383204061617e-04
1.203901950975487580e+03 2.502862153375230497e-04
1.204802401200600343e+03 2.532615536567087633e-04
1.205702851425712879e+03 2.560398106965930875e-04
1.206603301650825415e+03 2.572973471141214359e-04
1.207503751875937951e+03 2.564580810108517167e-04
1.208404202101050487e+03 2.546342751230502117e-04
1.209304652326163023e+03 2.535962017283220106e-04
1.210205102551275559e+03 2.542323020985190127e-04
1.211105552776388095e+03 2.562655209943101803e-04
1.212006003001500630e+03 2.599142751705703900e-04
1.212906453226613166e+03 2.663889683128246692e-04
1.213806903451725702e+03 2.761022699873229920e-04
1.214707353676838466e+03 2.875009161055027047e-04
1.215607803901951002e+03 2.984945062273916083e-04
1.216508254127063537e+03 3.088435856686185801e-04
1.217408704352176073e+03 3.195117169514681619e-04
1.218309154577288609e+03 3.306807948322653518e-04
1.219209604802401145e+03 3.423634488804350347e-04
1.220110055027513681e+03 3.545534823380211593e-04
1.221010505252626217e+03 3.663765282970419808e-04
1.221910955477738753e+03 3.769091755122404080e-04
1.222811405702851289e+03 3.863120967070725093e-04
1.223711855927963825e+03 3.967055254881738800e-04
1.224612306153076588e+03 4.097317949507589584e-04
1.225512756378189124e+03 4.245220957823937747e-04
1.226413206603301660e+03 4.391824310589309923e-04
1.227313656828414196e+03 4.523736971125326303e-04
1.228214107053526732e+03 4.639949053875140552e-04
1.229114557278639268e+03 4.747904602281450355e-04
1.230015007503751804e+03 4.862734829424537799e-04
1.230915457728864340e+03 5.004284079499188818e-04
1.231815907953976875e+03 5.177732557651882348e-04
1.232716358179089411e+03 5.380019092981664676e-04
1.233616808404201947e+03 5.605576613770154844e-04
1.234517258629314711e+03 5.841246523018505483e-04
1.235417708854427246e+03 6.075383791132054788e-04
1.236318159079539782e+03 6.297127947526831972e-04
1.237218609304652318e+03 6.490091190702136290e-04
1.238119059529764854e+03 6.646282518836736479e-04
1.239019509754877390e+03 6.780102541660020963e-04
1.239919959979989926e+03 6.909520696789720048e-04
1.240820410205102462e+03 7.030997991377021909e-04
1.241720860430214998e+03 7.134547917234085974e-04
1.242621310655327534e+03 7.235017963696022993e-04
1.243521760880440070e+03 7.351347762370408169e-04
1.244422211105552606e+03 7.481295287771497172e-04
1.245322661330665369e+03 7.609746110977802167e-04
1.246223111555777905e+03 7.717248830025742702e-04
1.247123561780890441e+03 7.785489354463727071e-04
1.248024012006002977e+03 7.810297108746477000e-04
1.248924462231115513e+03 7.810622500668557965e-04
1.249824912456228049e+03 7.814526935595356204e-04
1.250725362681340584e+03 7.838131085552141461e-04
1.251625812906453120e+03 7.887242033243597149e-04
1.252526263131565656e+03 7.955238396140912717e-04
1.253426713356678192e+03 8.029044813551135468e-04
1.254327163581790728e+03 8.111175106415408585e-04
1.255227613806903491e+03 8.210680750745363160e-04
1.256128064032016027e+03 8.324485553923248590e-04
1.257028514257128563e+03 8.452890493632550647e-04
1.257928964482241099e+03 8.604570836090030947e-04
1.258829414707353635e+03 8.774711565705118742e-04
1.259729864932466171e+03 8.940504333788318108e-04
1.260630315157578707e+03 9.087040747515022759e-04
1.261530765382691243e+03 9.221417536541296834e-04
1.262431215607803779e+03 9.354539998643381787e-04
1.263331665832916315e+03 9.492383269296850732e-04
1.264232116058028851e+03 9.644750088925712608e-04
1.265132566283141614e+03 9.815216954590329831e-04
1.266033016508254150e+03 9.986299418940360832e-04
1.266933466733366686e+03 1.013930430248740624e-03
1.267833916958479222e+03 1.027078275873704802e-03
1.268734367183591758e+03 1.038359487257058253e-03
1.269634817408704293e+03 1.049038585074186982e-03
1.270535267633816829e+03 1.061533422689888654e-03
1.271435717858929365e+03 1.076702830213440223e-03
1.272336168084041901e+03 1.092489818847467136e-03
1.273236618309154437e+03 1.106975821610462667e-03
1.274137068534266973e+03 1.121157427508534662e-03
1.275037518759379736e+03 1.137055534401602060e-03
1.275937968984492272e+03 1.155099626157160553e-03
1.276838419209604808e+03 1.172938377915372929e-03
1.277738869434717344e+03 1.189439333404673912e-03
1.278639319659829880e+03 1.205327269319780631e-03
1.279539769884942416e+03 1.219184202154753550e-03
1.280440220110054952e+03 1.229483850256167521e-03
1.281340670335167488e+03 1.236978924270966526e-03
1.282241120560280024e+03 1.244202159368997841e-03
1.283141570785392560e+03 1.254094283741342139e-03
1.284042021010505096e+03 1.268752027527862529e-03
1.284942471235617859e+03 1.290043872770179527e-03
1.285842921460730395e+03 1.319276339038234639e-03
1.286743371685842931e+03 1.354441290897470240e-03
1.287643821910955467e+03 1.390031746512737382e-03
1.288544272136068003e+03 1.421048599128789608e-03
1.289444722361180538e+03 1.445186767709009425e-03
1.290345172586293074e+03 1.463172643178503943e-03
1.291245622811405610e+03 1.478844610788318569e-03
1.292146073036518146e+03 1.495529560527548854e-03
1.293046523261630682e+03 1.511305159409808384e-03
1.293946973486743218e+03 1.521783096726959635e-03
1.294847423711855754e+03 1.527375918913809931e-03
1.295747873936968517e+03 1.532897528158411182e-03
1.296648324162081053e+03 1.540441963709452983e-03
1.297548774387193589e+03 1.548702130291806749e-03
1.298449224612306125e+03 1.558000853577237894e-03
1.299349674837418661e+03 1.568542134570137178e-03
1.300250125062531197e+03 1.580691735143418316e-03
1.301150575287643733e+03 1.598016378887780154e-03
1.302051025512756269e+03 1.623140421189214712e-03
1.302951475737868805e+03 1.653867784936663031e-03
1.303851925962981340e+03 1.686625999368631008e-03
1.304752376188093876e+03 1.719401145896191137e-03
1.305652826413206640e+03 1.750055303363651183e-03
1.306553276638319176e+03 1.775808993141361064e-03
1.307453726863431712e+03 1.796923083160596431e-03
1.308354177088544247e+03 1.819014751220319115e-03
1.309254627313656783e+03 1.846064763812559550e-03
1.310155077538769319e+03 1.874561155576065117e-03
1.311055527763881855e+03 1.899186303702809619e-03
1.311955977988994391e+03 1.920411173795416116e-03
1.312856428214106927e+03 1.942376964755842487e-03
1.313756878439219463e+03 1.967383773912376090e-03
1.314657328664331999e+03 1.996388716187055389e-03
1.315557778889444762e+03 2.031987506417509345e-03
1.316458229114557298e+03 2.076876446263828911e-03
1.317358679339669834e+03 2.130762003172262387e-03
1.318259129564782370e+03 2.191055251833575607e-03
1.319159579789894906e+03 2.252658374142546202e-03
1.320060030015007442e+03 2.307271894373531460e-03
1.320960480240119978e+03 2.349847771471573216e-03
1.321860930465232514e+03 2.382887288358522156e-03
1.322761380690345050e+03 2.411890210158256116e-03
1.323661830915457585e+03 2.442280467256992878e-03
1.324562281140570121e+03 2.479228836929958917e-03
1.325462731365682885e+03 2.526036791995776420e-03
1.326363181590795421e+03 2.582929706472357478e-03
1.327263631815907956e+03 2.650698688884701830e-03
1.328164082041020492e+03 2.728146935597856870e-03
1.329064532266133028e+03 2.809252562857415120e-03
1.329964982491245564e+03 2.889698356717886139e-03
1.330865432716358100e+03 2.970492801351305549e-03
1.331765882941470636e+03 3.055956052762943184e-03
1.332666333166583172e+03 3.147691565986464931e-03
1.333566783391695708e+03 3.241488452675144166e-03
1.334467233616808244e+03 3.332720487232706391e-03
1.335367683841921007e+03 3.423100914886628363e-03
1.336268134067033543e+03 3.517650072770262242e-03
1.337168584292146079e+03 3.617622079429048433e-03
1.338069034517258615e+03 3.724918887306914381e-03
1.338969484742371151e+03 3.844270521351412888e-03
1.339869934967483687e+03 3.970705668047360207e-03
1.340770385192596223e+03 4.088379611666474039e-03
1.341670835417708759e+03 4.192207164498939521e-03
1.342571285642821294e+03 4.294392355851450044e-03
1.343471735867933830e+03 4.399048776083129206e-03
1.344372186093046366e+03 4.496770908700261499e-03
1.345272636318158902e+03 4.586229689567418617e-03
1.346173086543271666e+03 4.680729537896288067e-03
1.347073536768384201e+03 4.792138325820883768e-03
1.347973986993496737e+03 4.920930961456179004e-03
1.348874437218609273e+03 5.072832427883436357e-03
1.349774887443721809e+03 5.264673548324955848e-03
1.350675337668834345e+03 5.503037162987078380e-03
1.351575787893946881e+03 5.775508976373957756e-03
1.352476238119059417e+03 6.071503582852431913e-03
1.353376688344171953e+03 6.388544827402167087e-03
1.354277138569284489e+03 6.713639588950768775e-03
1.355177588794397025e+03 7.029930949756933029e-03
1.356078039019509788e+03 7.332552791859850254e-03
1.356978489244622324e+03 7.615987006203914396e-03
1.357878939469734860e+03 7.865416062672107161e-03
1.358779389694847396e+03 8.083923864895044276e-03
1.359679839919959932e+03 8.295681617462994858e-03
1.360580290145072468e+03 8.515947016524737581e-03
1.361480740370185003e+03 8.751507617350020446e-03
1.362381190595297539e+03 9.021166500445022829e-03
1.363281640820410075e+03 9.337493402481852195e-03
1.364182091045522611e+03 9.687151737187971873e-03
1.365082541270635147e+03 1.004017825825507040e-02
1.365982991495747910e+03 1.036907743415493334e-02
1.366883441720860446e+03 1.066505400136358306e-02
1.367783891945972982e+03 1.094272032820189575e-02
1.368684342171085518e+03 1.121749175154446512e-02
1.369584792396198054e+03 1.148119507656682019e-02
1.370485242621310590e+03 1.172918744784645639e-02
1.371385692846423126e+03 1.198307488490420007e-02
1.372286143071535662e+03 1.228577870872005900e-02
1.373186593296648198e+03 1.267864026217032682e-02
1.374087043521760734e+03 1.315203119831317297e-02
1.374987493746873270e+03 1.364642709250440435e-02
1.375887943971986033e+03 1.412467028319569322e-02
1.376788394197098569e+03 1.461798867605552943e-02
1.377688844422211105e+03 1.518738257160474198e-02
1.378589294647323641e+03 1.586374855171631890e-02
1.379489744872436177e+03 1.664425088839262962e-02
1.380390195097548713e+03 1.749756472792417944e-02
1.381290645322661248e+03 1.837472045964281750e-02
1.382191095547773784e+03 1.926247923588156677e-02
1.383091545772886320e+03 2.018856577399479393e-02
1.383991995997998856e+03 2.111675104997085689e-02
1.384892446223111392e+03 2.194046781458604267e-02
1.385792896448224155e+03 2.261421309549021749e-02
1.386693346673336691e+03 2.319403593459964247e-02
1.387593796898449227e+03 2.374841364179017256e-02
1.388494247123561763e+03 2.432815657755290489e-02
1.389394697348674299e+03 2.497184120596171106e-02
1.390295147573786835e+03 2.568079029841698058e-02
1.391195597798899371e+03 2.646471135996987523e-02
1.392096048024011907e+03 2.737770167752232378e-02
1.392996498249124443e+03 2.845602786242619128e-02
1.393896948474236979e+03 2.962800536504525337e-02
1.394797398699349515e+03 3.076418590511971821e-02
1.395697848924462278e+03 3.180090446305178925e-02
1.396598299149574814e+03 3.274011744289976461e-02
1.397498749374687350e+03 3.354684252574534342e-02
1.398399199599799886e+03 3.421292753714035018e-02
1.399299649824912422e+03 3.478270447589661835e-02
1.400200100050024957e+03 3.516596788697209236e-02
1.401100550275137493e+03 3.524851237566392625e-02
1.402001000500250029e+03 3.516453240311902262e-02
1.402901450725362565e+03 3.512211507089963575e-02
1.403801900950475101e+03 3.502422350501278869e-02
1.404702351175587637e+03 3.455022697189082809e-02
1.405602801400700173e+03 3.356575105706499640e-02
1.406503251625812936e+03 3.223631937251586477e-02
1.407403701850925472e+03 3.076076157911689785e-02
1.408304152076038008e+03 2.914973773304430429e-02
1.409204602301150544e+03 2.732165202686052258e-02
1.410105052526263080e+03 2.532049874553233410e-02
1.411005502751375616e+03 2.329202642597847858e-02
1.411905952976488152e+03 2.136590486733767544e-02
1.412806403201600688e+03 1.964163844805629638e-02
1.413706853426713224e+03 1.813664079613616989e-02
1.414607303651825760e+03 1.679278912103855312e-02
1.415507753876938295e+03 1.557776583625212520e-02
1.416408204102051059e+03 1.450013355428484904e-02
1.417308654327163595e+03 1.353290662249716919e-02
1.418209104552276131e+03 1.261342060275034635e-02
1.419109554777388666e+03 1.170706331299259384e-02
1.420010005002501202e+03 1.082943013184707072e-02
1.420910455227613738e+03 1.003585327840796765e-02
1.421810905452726274e+03 9.362146773718360224e-03
1.422711355677838810e+03 8.781079457851902886e-03
1.423611805902951346e+03 8.247315629589819369e-03
1.424512256128063882e+03 7.744815227608574729e-03
1.425412706353176418e+03 7.275113987046820732e-03
1.426313156578289181e+03 6.843168775317927215e-03
1.427213606803401717e+03 6.457192858498966848e-03
1.428114057028514253e+03 6.118381362484055785e-03
1.429014507253626789e+03 5.822552932747848513e-03
1.429914957478739325e+03 5.555236337509087373e-03
1.430815407703851861e+03 5.294791974564097038e-03
1.431715857928964397e+03 5.043723354036558706e-03
1.432616308154076933e+03 4.820905930141406066e-03
1.433516758379189469e+03 4.627842175505587560e-03
1.434417208604302004e+03 4.456985012273938923e-03
1.435317658829414540e+03 4.304788764368711919e-03
1.436218109054527304e+03 4.171114975829256014e-03
1.437118559279639840e+03 4.053507184246514343e-03
1.438019009504752376e+03 3.942964000153332399e-03
1.438919459729864911e+03 3.834485961422091135e-03
1.439819909954977447e+03 3.734493634878603436e-03
1.440720360180089983e+03 3.643266768953377140e-03
1.441620810405202519e+03 3.545439473305263527e-03
1.442521260630315055e+03 3.430167410955766837e-03
1.443421710855427591e+03 3.305487502476167627e-03
1.444322161080540127e+03 3.182513453376005236e-03
1.445222611305652663e+03 3.069349448573743550e-03
1.446123061530765426e+03 2.973874781775364979e-03
1.447023511755877962e+03 2.889993739827060280e-03
1.447923961980990498e+03 2.798468150257376122e-03
1.448824412206103034e+03 2.690599028536478851e-03
1.449724862431215570e+03 2.579518555923164969e-03
1.450625312656328106e+03 2.486907545550714853e-03
1.451525762881440642e+03 2.417917017926798830e-03
1.452426213106553178e+03 2.359482783136244207e-03
1.453326663331665713e+03 2.304110212131544808e-03
1.454227113556778249e+03 2.255889256858217926e-03
1.455127563781890785e+03 2.216590691732764004e-03
1.456028014007003321e+03 2.182938317705474061e-03
1.456928464232116085e+03 2.149940146632689855e-03
1.457828914457228620e+03 2.109866546135672448e-03
1.458729364682341156e+03 2.061445022209712659e-03
1.459629814907453692e+03 2.014739465290840779e-03
1.460530265132566228e+03 1.975884678769927651e-03
1.461430715357678764e+03 1.942207995328537303e-03
1.462331165582791300e+03 1.910064900879935050e-03
1.463231615807903836e+03 1.878623936234448746e-03
1.464132066033016372e+03 1.848641921739682670e-03
1.465032516258128908e+03 1.818462236584465199e-03
1.465932966483241444e+03 1.788474245539270957e-03
1.466833416708354207e+03 1.763545774329409880e-03
1.467733866933466743e+03 1.744189099052293216e-03
1.468634317158579279e+03 1.728213325267844705e-03
1.469534767383691815e+03 1.716247162760965901e-03
1.470435217608804351e+03 1.705649751252652805e-03
1.471335667833916887e+03 1.688778917620273757e-03
1.472236118059029423e+03 1.660903619943732016e-03
1.473136568284141958e+03 1.623786557388222059e-03
1.474037018509254494e+03 1.580123661877776012e-03
1.474937468734367030e+03 1.533663549186854193e-03
1.475837918959479566e+03 1.491842513521231131e-03
1.476738369184592329e+03 1.460884638715780753e-03
1.477638819409704865e+03 1.437928103323056483e-03
1.478539269634817401e+03 1.413199852573942183e-03
1.479439719859929937e+03 1.380112083394845245e-03
1.480340170085042473e+03 1.338880946213698948e-03
1.481240620310155009e+03 1.294658350245663598e-03
1.482141070535267545e+03 1.255673041464422076e-03
1.483041520760380081e+03 1.225601653023747697e-03
1.483941970985492617e+03 1.198839868450406578e-03
1.484842421210605153e+03 1.169290262209476267e-03
1.485742871435717689e+03 1.137850716967718848e-03
1.486643321660830452e+03 1.109443668863734685e-03
1.487543771885942988e+03 1.086153678758451863e-03
1.488444222111055524e+03 1.064990576642724923e-03
1.489344672336168060e+03 1.042876616485557788e-03
1.490245122561280596e+03 1.021069354184598200e-03
1.491145572786393132e+03 1.003948425065548248e-03
1.492046023011505667e+03 9.949616087412654474e-04
1.492946473236618203e+03 9.916803615833749957e-04
1.493846923461730739e+03 9.867814547793775110e-04
1.494747373686843275e+03 9.759838190302912164e-04
1.495647823911955811e+03 9.608767894984329315e-04
1.496548274137068574e+03 9.452917072506915102e-04
1.497448724362181110e+03 9.307443063480365158e-04
1.498349174587293646e+03 9.156820691630726409e-04
1.499249624812406182e+03 8.981886252284109959e-04
1.500150075037518718e+03 8.796132563487115818e-04
1.501050525262631254e+03 8.634971219185150681e-04
1.501950975487743790e+03 8.511419308829135328e-04
1.502851425712856326e+03 8.404868942625276246e-04
1.503751875937968862e+03 8.276994134232807353e-04
1.504652326163081398e+03 8.100708926605600275e-04
1.505552776388193934e+03 7.890381006377389633e-04
1.506453226613306470e+03 7.681520337584009416e-04
1.507353676838419233e+03 7.491629966875326847e-04
1.508254127063531769e+03 7.330363814840079638e-04
1.509154577288644305e+03 7.216446678109182363e-04
1.510055027513756841e+03 7.161304557168832186e-04
1.510955477738869376e+03 7.152110990089645404e-04
1.511855927963981912e+03 7.157716261518172734e-04
1.512756378189094448e+03 7.148791440917275607e-04
1.513656828414206984e+03 7.104953116114667800e-04
1.514557278639319520e+03 7.007590806763928839e-04
1.515457728864432056e+03 6.837327839968822176e-04
1.516358179089544592e+03 6.602101632122636329e-04
1.517258629314657355e+03 6.347539842897720287e-04
1.518159079539769891e+03 6.128842737759504326e-04
1.519059529764882427e+03 5.976529069644394808e-04
1.519959979989994963e+03 5.881168759414298142e-04
1.520860430215107499e+03 5.814724892866884008e-04
1.521760880440220035e+03 5.770480151294453668e-04
1.522661330665332571e+03 5.761136305338663893e-04
1.523561780890445107e+03 5.783038896376277351e-04
1.524462231115557643e+03 5.814992012259251070e-04
1.525362681340670179e+03 5.844309718951578182e-04
1.526263131565782714e+03 5.869073345146162126e-04
1.527163581790895478e+03 5.888867319758560662e-04
1.528064032016008014e+03 5.897336565500397578e-04
1.528964482241120550e+03 5.879143731491884512e-04
1.529864932466233086e+03 5.833459261107485066e-04
1.530765382691345621e+03 5.766602220628800181e-04
1.531665832916458157e+03 5.667416790831530460e-04
1.532566283141570693e+03 5.518414811686847207e-04
1.533466733366683229e+03 5.328595841469046775e-04
1.534367183591795765e+03 5.138408032301541558e-04
1.535267633816908301e+03 4.986770082076423527e-04
1.536168084042020837e+03 4.886895658071210412e-04
1.537068534267133600e+03 4.823770217803745211e-04
1.537968984492246136e+03 4.778655938711771217e-04
1.538869434717358672e+03 4.748746072012151646e-04
1.539769884942471208e+03 4.736244662073086698e-04
1.540670335167583744e+03 4.734590377797281524e-04
1.541570785392696280e+03 4.724677054184571695e-04
1.542471235617808816e+03 4.677926414225465021e-04
1.543371685842921352e+03 4.578590199393598099e-04
1.544272136068033888e+03 4.439801663635216606e-04
1.545172586293146423e+03 4.296326608636253752e-04
1.546073036518258959e+03 4.178824575454130781e-04
1.546973486743371723e+03 4.097287386885016341e-04
1.547873936968484259e+03 4.040891504125294909e-04
1.548774387193596795e+03 3.996882550472178686e-04
1.549674837418709330e+03 3.969387458910148057e-04
1.550575287643821866e+03 3.966079274453316802e-04
1.551475737868934402e+03 3.979036117284613042e-04
1.552376188094046938e+03 3.986115572268845845e-04
1.553276638319159474e+03 3.975775577618295394e-04
1.554177088544272010e+03 3.948645190614048935e-04
1.555077538769384546e+03 3.896743133778942281e-04
1.555977988994497082e+03 3.810942292885173251e-04
1.556878439219609618e+03 3.705531860656092373e-04
1.557778889444722381e+03 3.617175285170736994e-04
1.558679339669834917e+03 3.570613309370481532e-04
1.559579789894947453e+03 3.562539913102751379e-04
1.560480240120059989e+03 3.575961950018078424e-04
1.561380690345172525e+03 3.595881536957028527e-04
1.562281140570285061e+03 3.609491980614368831e-04
1.563181590795397597e+03 3.605480359030853324e-04
1.564082041020510133e+03 3.586524207329526491e-04
1.564982491245622668e+03 3.561785720580009761e-04
1.565882941470735204e+03 3.532041428237999076e-04
1.566783391695847740e+03 3.495665039464172503e-04
1.567683841920960504e+03 3.456759109076996787e-04
1.568584292146073039e+03 3.403363168128042916e-04
1.569484742371185575e+03 3.307271635148309138e-04
1.570385192596298111e+03 3.164933979081894101e-04
1.571285642821410647e+03 2.999049095764554757e-04
1.572186093046523183e+03 2.825143662865299012e-04
1.573086543271635719e+03 2.642160908556635476e-04
1.573986993496748255e+03 2.444369252604036702e-04
1.574887443721860791e+03 2.232400342651354988e-04
1.575787893946973327e+03 2.015963833314582767e-04
1.576688344172085863e+03 1.807297101838332336e-04
1.577588794397198626e+03 1.615503867340179888e-04
1.578489244622311162e+03 1.443064783075148215e-04
1.579389694847423698e+03 1.291108606812868629e-04
1.580290145072536234e+03 1.163089898392992964e-04
1.581190595297648770e+03 1.060028692207415460e-04
1.582091045522761306e+03 9.787958797281942863e-05
1.582991495747873842e+03 9.145676027886472581e-05
1.583891945972986377e+03 8.629190547043932738e-05
1.584792396198098913e+03 8.204927041329525782e-05
1.585692846423211449e+03 7.849087681533578034e-05
1.586593296648323985e+03 7.545025936827935394e-05
1.587493746873436749e+03 7.280981380177970819e-05
1.588394197098549284e+03 7.048491416531428696e-05
1.589294647323661820e+03 6.841340409647164071e-05
1.590195097548774356e+03 6.654870670478823624e-05
1.591095547773886892e+03 6.485526329172934925e-05
1.591995997998999428e+03 6.330546262746376731e-05
1.592896448224111964e+03 6.187753390162551023e-05
1.593796898449224500e+03 6.055407290972166618e-05
1.594697348674337036e+03 5.932099204369227166e-05
1.595597798899449572e+03 5.816675923878445066e-05
1.596498249124562108e+03 5.708183750527609247e-05
1.597398699349674871e+03 5.605826608339369228e-05
1.598299149574787407e+03 5.508934318933095806e-05
1.599199599799899943e+03 5.416938271693711712e-05
1.600100050025012479e+03 5.329352551660467859e-05
1.601000500250125015e+03 5.245759146243124014e-05
1.601900950475237551e+03 5.165796236112749800e-05
1.602801400700350086e+03 5.089148843598908058e-05
1.603701850925462622e+03 5.015541301377816978e-05
1.604602301150575158e+03 4.944731139885962250e-05
1.605502751375687694e+03 4.876504090180475484e-05
1.606403201600800230e+03 4.810669970980767580e-05
1.607303651825912766e+03 4.747059281943315516e-05
1.608204102051025529e+03 4.685520365085123955e-05
1.609104552276138065e+03 4.625917026350946008e-05
1.610005002501250601e+03 4.568126532213968443e-05
1.610905452726363137e+03 4.512037913770228692e-05
1.611805902951475673e+03 4.457550524370058859e-05
1.612706353176588209e+03 4.404572807414959697e-05
1.613606803401700745e+03 4.353021239245659358e-05
1.614507253626813281e+03 4.302819418600314910e-05
1.615407703851925817e+03 4.253897279324912376e-05
1.616308154077038353e+03 4.206190407176537690e-05
1.617208604302150889e+03 4.159639444899367017e-05
1.618109054527263652e+03 4.114189572452989202e-05
1.619009504752376188e+03 4.069790051460950921e-05
1.619909954977488724e+03 4.026393824735171641e-05
1.620810405202601260e+03 3.983957163195612805e-05
1.621710855427713796e+03 3.942439353708882200e-05
1.622611305652826331e+03 3.901802422366217065e-05
1.623511755877938867e+03 3.862010888547137862e-05
1.624412206103051403e+03 3.823031545803932740e-05
1.625312656328163939e+03 3.784833266177424022e-05
1.626213106553276475e+03 3.747386825038563575e-05
1.627113556778389011e+03 3.710664743955523562e-05
1.628014007003501774e+03 3.674641149431795309e-05
1.628914457228614310e+03 3.639291645650059956e-05
1.629814907453726846e+03 3.604593199605559198e-05
1.630715357678839382e+03 3.570524037222949030e-05
1.631615807903951918e+03 3.537063549232078938e-05
1.632516258129064454e+03 3.504192205731561691e-05
1.633416708354176990e+03 3.471891478503337004e-05
1.634317158579289526e+03 3.440143770255121728e-05
1.635217608804402062e+03 3.408932350067810747e-05
1.636118059029514598e+03 3.378241294408754409e-05
1.637018509254627133e+03 3.348055433148805162e-05
1.637918959479739897e+03 3.318360300083823068e-05
1.638819409704852433e+03 3.289142087518628574e-05
1.639719859929964969e+03 3.260387604520838018e-05
1.640620310155077505e+03 3.232084238495032375e-05
1.641520760380190040e+03 3.204219919765597871e-05
1.642421210605302576e+03 3.176783088889867525e-05
1.643321660830415112e+03 3.149762666453072621e-05
1.644222111055527648e+03 3.123148025121411504e-05
1.645122561280640184e+03 3.096928963753949190e-05
1.646023011505752720e+03 3.071095683392534027e-05
1.646923461730865256e+03 3.045638764968811759e-05
1.647823911955978019e+03 3.020549148581429960e-05
1.648724362181090555e+03 2.995818114212672983e-05
1.649624812406203091e+03 2.971437263764545542e-05
1.650525262631315627e+03 2.947398504307293488e-05
1.651425712856428163e+03 2.923694032442104962e-05
1.652326163081540699e+03 2.900316319689703616e-05
1.653226613306653235e+03 2.877258098824257042e-05
1.654127063531765771e+03 2.854512351078979007e-05
1.655027513756878307e+03 2.832072294157212910e-05
1.655927963981990843e+03 2.809931370987793622e-05
1.656828414207103378e+03 2.788083239169050827e-05
1.657728864432216142e+03 2.766521761051148252e-05
1.658629314657328678e+03 2.745240994409602772e-05
1.659529764882441214e+03 2.724235183668129786e-05
1.660430215107553749e+03 2.703498751631194059e-05
1.661330665332666285e+03 2.683026291690982705e-05
1.662231115557778821e+03 2.662812560475444820e-05
1.663131565782891357e+03 2.642852470907372495e-05
1.664032016008003893e+03 2.623141085646728320e-05
1.664932466233116429e+03 2.603673610890332019e-05
1.665832916458228965e+03 2.584445390505361764e-05
1.666733366683341501e+03 2.565451900474931211e-05
1.667633816908454037e+03 2.546688743635243751e-05
1.668534267133566800e+03 2.528151644686008049e-05
1.669434717358679336e+03 2.509836445456638227e-05
1.670335167583791872e+03 2.491739100412037656e-05
1.671235617808904408e+03 2.473855672383700282e-05
1.672136068034016944e+03 2.456182328511839373e-05
1.673036518259129480e+03 2.438715336385768732e-05
1.673936968484242016e+03 2.421451060371175969e-05
1.674837418709354552e+03 2.404385958112513399e-05
1.675737868934467087e+03 2.387516577200854111e-05
1.676638319159579623e+03 2.370839551997159616e-05
1.677538769384692159e+03 2.354351600602478230e-05
1.678439219609804923e+03 2.338049521966211521e-05
1.679339669834917459e+03 2.321930193125183994e-05
1.680240120060029994e+03 2.305990566566020096e-05
1.681140570285142530e+03 2.290227667703951332e-05
1.682041020510255066e+03 2.274638592471919259e-05
1.682941470735367602e+03 2.259220505013866245e-05
1.683841920960480138e+03 2.243970635476781464e-05
1.684742371185592674e+03 2.228886277896160393e-05
1.685642821410705210e+03 2.213964788170054126e-05
1.686543271635817746e+03 2.199203582117147411e-05
1.687443721860930282e+03 2.184600133614516060e-05
1.688344172086043045e+03 2.170151972810991869e-05
1.689244622311155581e+03 2.155856684412371863e-05
1.690145072536268117e+03 2.141711906034994616e-05
1.691045522761380653e+03 2.127715326623995666e-05
1.691945972986493189e+03 2.113864684933464784e-05
1.692846423211605725e+03 2.100157768065274831e-05
1.693746873436718261e+03 2.086592410063879176e-05
1.694647323661830796e+03 2.073166490564194015e-05
1.695547773886943332e+03 2.059877933490548990e-05
1.696448224112055868e+03 2.046724705803681176e-05
1.697348674337168404e+03 2.033704816294163749e-05
1.698249124562281168e+03 2.020816314419711309e-05
1.699149574787393703e+03 2.008057289184601364e-05
1.700050025012506239e+03 1.995425868059288213e-05
1.700950475237618775e+03 1.982920215938218690e-05
1.701850925462731311e+03 1.970538534134495196e-05
1.702751375687843847e+03 1.958279059409615382e-05
1.703651825912956383e+03 1.946140063036569344e-05
1.704552276138068919e+03 1.934119849895244689e-05
1.705452726363181455e+03 1.922216757598412540e-05
1.706353176588293991e+03 1.910429155647336654e-05
1.707253626813406527e+03 1.898755444615389513e-05
1.708154077038519290e+03 1.887194055358759579e-05
1.709054527263631826e+03 1.875743448253211596e-05
1.709954977488744362e+03 1.864402112455507392e-05
1.710855427713856898e+03 1.853168565188801462e-05
1.711755877938969434e+03 1.842041351050923022e-05
1.712656328164081970e+03 1.831019041344571498e-05
1.713556778389194506e+03 1.820100233428706125e-05
1.714457228614307041e+03 1.809283550090220639e-05
1.715357678839419577e+03 1.798567638934989599e-05
1.716258129064532113e+03 1.787951171797896058e-05
1.717158579289644649e+03 1.777432844170591340e-05
1.718059029514757185e+03 1.767011374646893112e-05
1.718959479739869948e+03 1.756685504384623671e-05
1.719859929964982484e+03 1.746453996583707211e-05
1.720760380190095020e+03 1.736315635979612608e-05
1.721660830415207556e+03 1.726269228351753795e-05
1.722561280640320092e+03 1.716313600046229723e-05
1.723461730865432628e+03 1.706447597512441436e-05
1.724362181090545164e+03 1.696670086852982830e-05
1.725262631315657700e+03 1.686979953386393097e-05
1.726163081540770236e+03 1.677376101222406292e-05
1.727063531765882772e+03 1.667857452849097989e-05
1.727963981990995308e+03 1.658422948731591565e-05
1.728864432216108071e+03 1.649071546921907367e-05
1.729764882441220607e+03 1.639802222679623416e-05
1.730665332666333143e+03 1.630613968102926148e-05
1.731565782891445679e+03 1.621505791769632768e-05
1.732466233116558215e+03 1.612476718388024621e-05
1.733366683341670750e+03 1.603525788457020959e-05
1.734267133566783286e+03 1.594652057935403428e-05
1.735167583791895822e+03 1.585854597919870027e-05
1.736068034017008358e+03 1.577132494331457411e-05
1.736968484242120894e+03 1.568484847610374569e-05
1.737868934467233430e+03 1.559910772418560772e-05
1.738769384692346193e+03 1.551409397350075178e-05
1.739669834917458729e+03 1.542979864648845470e-05
1.740570285142571265e+03 1.534621329933753139e-05
1.741470735367683801e+03 1.526332961930482515e-05
1.742371185592796337e+03 1.518113942210352720e-05
1.743271635817908873e+03 1.509963464935571830e-05
1.744172086043021409e+03 1.501880736610895631e-05
1.745072536268133945e+03 1.493864975841397536e-05
1.745972986493246481e+03 1.485915413096241939e-05
1.746873436718359017e+03 1.478031290478259913e-05
1.747773886943471553e+03 1.470211861499048581e-05
1.748674337168584316e+03 1.462456390859651583e-05
1.749574787393696852e+03 1.454764154236396792e-05
1.750475237618809388e+03 1.447134438071924987e-05
1.751375687843921924e+03 1.439566539371183824e-05
1.752276138069034459e+03 1.432059765502286334e-05
1.753176588294146995e+03 1.424613434001904079e-05
1.754077038519259531e+03 1.417226872385506194e-05
1.754977488744372067e+03 1.409899417961739573e-05
1.755877938969484603e+03 1.402630417651213282e-05
1.756778389194597139e+03 1.395419227809563711e-05
1.757678839419709675e+03 1.388265214054362882e-05
1.758579289644822438e+03 1.381167751096159943e-05
1.759479739869934974e+03 1.374126222573302456e-05
1.760380190095047510e+03 1.367140020890420428e-05
1.761280640320160046e+03 1.360208547060608827e-05
1.762181090545272582e+03 1.353331210551140023e-05
1.763081540770385118e+03 1.346507429132559276e-05
1.763981990995497654e+03 1.339736628731160059e-05
1.764882441220610190e+03 1.333018243284679968e-05
1.765782891445722726e+03 1.326351714601161482e-05
1.766683341670835262e+03 1.319736492220917783e-05
1.767583791895947797e+03 1.313172033281438793e-05
1.768484242121060333e+03 1.306657802385294860e-05
1.769384692346173097e+03 1.300193271470784326e-05
1.770285142571285633e+03 1.293777919685414247e-05
1.771185592796398169e+03 1.287411233262057060e-05
1.772086043021510704e+03 1.281092705397724416e-05
1.772986493246623240e+03 1.274821836134873806e-05
1.773886943471735776e+03 1.268598132245305248e-05
1.774787393696848312e+03 1.262421107116331410e-05
1.775687843921960848e+03 1.256290280639452745e-05
1.776588294147073384e+03 1.250205179101264562e-05
1.777488744372185920e+03 1.244165335076608561e-05
1.778389194597298456e+03 1.238170287324011363e-05
1.779289644822411219e+03 1.232219580683088149e-05
1.780190095047523755e+03 1.226312765974242948e-05
1.781090545272636291e+03 1.220449399900198686e-05
1.781990995497748827e+03 1.214629044949685306e-05
1.782891445722861363e+03 1.208851269302916308e-05
1.783791895947973899e+03 1.203115646739095468e-05
1.784692346173086435e+03 1.197421756545645053e-05
1.785592796398198971e+03 1.191769183429288713e-05
1.786493246623311506e+03 1.186157517428913810e-05
1.787393696848424042e+03 1.180586353830120872e-05
1.788294147073536578e+03 1.175055293081390710e-05
1.789194597298649342e+03 1.169563940712018953e-05
1.790095047523761878e+03 1.164111907251536445e-05
1.790995497748874413e+03 1.158698808150714790e-05
1.791895947973986949e+03 1.153324263704092137e-05
1.792796398199099485e+03 1.147987898974055487e-05
1.793696848424212021e+03 1.142689343716242326e-05
1.794597298649324557e+03 1.137428232306501319e-05
1.795497748874437093e+03 1.132204203669121340e-05
1.796398199099549629e+03 1.127016901206506392e-05
1.797298649324662165e+03 1.121865972730119557e-05
1.798199099549774701e+03 1.116751070392774395e-05
1.799099549774887464e+03 1.111671850622108303e-05
1.800000000000000000e+03 1.106627974055387741e-05
