0.000000000000000000e+00 1.501362297044322308e-03
9.004502251125562351e-01 1.987887790389315876e-03
1.800900450225112470e+00 2.651454919489812552e-03
2.701350675337668594e+00 3.464326341425438913e-03
3.601800900450224940e+00 4.236084379490024678e-03
4.502251125562780842e+00 4.651882887178384988e-03
5.402701350675337189e+00 4.574800886361016228e-03
6.303151575787893535e+00 4.117409047750385069e-03
7.203601800900449881e+00 3.420432557686354288e-03
8.104052026013006227e+00 2.672891116575598722e-03
9.004502251125561685e+00 2.040503739313030435e-03
9.904952476238118919e+00 1.563447995031916164e-03
1.080540270135067438e+01 1.212260672619628341e-03
1.170585292646323161e+01 9.533380130765732163e-04
1.260630315157578707e+01 7.623752620512533416e-04
1.350675337668834430e+01 6.206142283654847436e-04
1.440720360180089976e+01 5.138522461841623290e-04
1.530765382691345522e+01 4.320010923652598629e-04
1.620810405202601245e+01 3.681175689303244005e-04
1.710855427713856969e+01 3.174430293785659757e-04
1.800900450225112337e+01 2.766779424297576267e-04
1.890945472736368060e+01 2.434906408645183421e-04
1.980990495247623784e+01 2.161592746912903320e-04
2.071035517758879507e+01 1.932735264353063623e-04
2.161080540270134875e+01 1.736524336725238870e-04
2.251125562781390599e+01 1.565697258961454774e-04
2.341170585292646322e+01 1.417251182280192961e-04
2.431215607803901690e+01 1.288934577350908661e-04
2.521260630315157414e+01 1.178022399959196030e-04
2.611305652826413137e+01 1.081844300130431512e-04
2.701350675337668861e+01 9.981690456487036253e-05
2.791395697848924229e+01 9.252001549926589441e-05
2.881440720360179952e+01 8.612578567346859182e-05
2.971485742871435676e+01 8.042224420500078169e-05
3.061530765382691044e+01 7.516185753944683583e-05
3.151575787893946767e+01 7.022678601257946072e-05
3.241620810405202491e+01 6.568132216331866989e-05
3.331665832916458214e+01 6.159505911628525396e-05
3.421710855427713938e+01 5.795945414624868882e-05
3.511755877938969661e+01 5.471170777125573906e-05
3.601800900450224674e+01 5.175523003194707833e-05
3.691845922961480397e+01 4.900867731951788454e-05
3.781890945472736121e+01 4.647075369165313576e-05
3.871935967983991844e+01 4.418135816550714992e-05
3.961980990495247568e+01 4.215337649284135290e-05
4.052026013006503291e+01 4.034833801819713936e-05
4.142071035517759015e+01 3.865389584904418193e-05
4.232116058029014027e+01 3.692954929780791422e-05
4.322161080540269751e+01 3.516147643592544504e-05
4.412206103051525474e+01 3.345869071630029449e-05
4.502251125562781198e+01 3.189952409094532523e-05
4.592296148074036921e+01 3.049645377762144995e-05
4.682341170585292645e+01 2.923565549625596553e-05
4.772386193096548368e+01 2.810208773293995820e-05
4.862431215607803381e+01 2.708653857537045965e-05
4.952476238119059104e+01 2.618541297954174598e-05
5.042521260630314828e+01 2.539564948085219003e-05
5.132566283141570551e+01 2.470541222193999820e-05
5.222611305652826275e+01 2.409513089932830519e-05
5.312656328164081998e+01 2.355574748052444121e-05
5.402701350675337721e+01 2.306733265430929521e-05
5.492746373186592734e+01 2.254319162313574910e-05
5.582791395697848458e+01 2.189609214273614444e-05
5.672836418209104181e+01 2.118386594352828891e-05
5.762881440720359905e+01 2.054745880062846524e-05
5.852926463231615628e+01 2.005725733123349196e-05
5.942971485742871351e+01 1.967845720938247924e-05
6.033016508254127075e+01 1.931929460712110058e-05
6.123061530765382088e+01 1.892436705203483078e-05
6.213106553276637811e+01 1.847311044331205549e-05
6.303151575787893535e+01 1.791268491907387024e-05
6.393196598299149258e+01 1.726049215080304553e-05
6.483241620810404982e+01 1.664058093027343625e-05
6.573286643321659994e+01 1.614566637455666545e-05
6.663331665832916428e+01 1.578893924970137304e-05
6.753376688344171441e+01 1.552541963851171539e-05
6.843421710855427875e+01 1.528957199988137831e-05
6.933466733366682888e+01 1.507890828402035477e-05
7.023511755877939322e+01 1.495795908842783678e-05
7.113556778389194335e+01 1.494974487221420396e-05
7.203601800900449348e+01 1.498581407156028737e-05
7.293646823411705782e+01 1.498244251459919255e-05
7.383691845922960795e+01 1.492403070228610947e-05
7.473736868434217229e+01 1.477660378269774219e-05
7.563781890945472242e+01 1.447822429586497678e-05
7.653826913456728676e+01 1.408814822276535829e-05
7.743871935967983688e+01 1.375642262535390257e-05
7.833916958479238701e+01 1.356983532947993714e-05
7.923961980990495135e+01 1.351188802877767911e-05
8.014007003501750148e+01 1.351852729368860310e-05
8.104052026013006582e+01 1.351464060441381421e-05
8.194097048524261595e+01 1.342553790174115191e-05
8.284142071035518029e+01 1.318046816702278062e-05
8.374187093546773042e+01 1.275701849866562726e-05
8.464232116058028055e+01 1.227737870086018546e-05
8.554277138569284489e+01 1.191600774737203653e-05
8.644322161080539502e+01 1.176260899487650213e-05
8.734367183591795936e+01 1.182950810576640140e-05
8.824412206103050949e+01 1.208176233344622007e-05
8.914457228614307382e+01 1.242867215313660969e-05
9.004502251125562395e+01 1.271205830596805158e-05
9.094547273636817408e+01 1.276189505198546322e-05
9.184592296148073842e+01 1.258406690277256937e-05
9.274637318659328855e+01 1.235483933175756288e-05
9.364682341170585289e+01 1.217000664939469557e-05
9.454727363681840302e+01 1.195363809047082929e-05
9.544772386193096736e+01 1.157058362167494847e-05
9.634817408704351749e+01 1.102225652651196574e-05
9.724862431215606762e+01 1.044106653447689121e-05
9.814907453726863196e+01 9.939292190419282694e-06
9.904952476238118209e+01 9.584644235633954344e-06
9.994997498749374643e+01 9.412818471328850896e-06
1.008504252126062966e+02 9.420957875336384593e-06
1.017508754377188609e+02 9.555879406479866509e-06
1.026513256628314110e+02 9.703546015113926021e-06
1.035517758879439612e+02 9.743811781612762328e-06
1.044522261130565255e+02 9.656077316672504406e-06
1.053526763381690756e+02 9.542331087653938977e-06
1.062531265632816400e+02 9.507707480666579002e-06
1.071535767883941901e+02 9.555321312503101185e-06
1.080540270135067544e+02 9.577286633325786535e-06
1.089544772386193046e+02 9.448269236815699955e-06
1.098549274637318547e+02 9.147157742948434312e-06
1.107553776888444190e+02 8.765669605981925861e-06
1.116558279139569692e+02 8.425396814021038951e-06
1.125562781390695335e+02 8.211700850213786025e-06
1.134567283641820836e+02 8.147153334595910572e-06
1.143571785892946480e+02 8.187438906605829357e-06
1.152576288144071981e+02 8.241244118408277636e-06
1.161580790395197482e+02 8.253994268066225317e-06
1.170585292646323126e+02 8.271526721111714509e-06
1.179589794897448627e+02 8.370352136366948601e-06
1.188594297148574270e+02 8.583628137070945964e-06
1.197598799399699772e+02 8.895043860289634268e-06
1.206603301650825415e+02 9.233129683671100765e-06
1.215607803901950916e+02 9.526720632214058011e-06
1.224612306153076418e+02 9.820768801454887045e-06
1.233616808404202061e+02 1.019647505513001485e-05
1.242621310655327562e+02 1.059962989762834307e-05
1.251625812906453206e+02 1.088744563835901650e-05
1.260630315157578707e+02 1.094477847683386420e-05
1.269634817408704350e+02 1.077071826997441754e-05
1.278639319659829852e+02 1.049592551366400381e-05
1.287643821910955353e+02 1.021907485717051777e-05
1.296648324162080996e+02 9.938898884456587619e-06
1.305652826413206640e+02 9.684031376928137460e-06
1.314657328664331999e+02 9.558170936132665528e-06
1.323661830915457642e+02 9.637712438799287900e-06
1.332666333166583286e+02 9.894663436438322853e-06
1.341670835417708929e+02 1.019784755430415209e-05
1.350675337668834288e+02 1.039982512113790025e-05
1.359679839919959932e+02 1.044196170048267719e-05
1.368684342171085575e+02 1.034346062586072433e-05
1.377688844422210934e+02 1.014555959288022802e-05
1.386693346673336578e+02 9.956506718599523464e-06
1.395697848924462221e+02 9.927391064731748169e-06
1.404702351175587864e+02 1.017048213783973425e-05
1.413706853426713224e+02 1.071852330680895077e-05
1.422711355677838867e+02 1.148317455352930319e-05
1.431715857928964510e+02 1.225238504032541793e-05
1.440720360180089870e+02 1.276947431256409629e-05
1.449724862431215513e+02 1.287767853122527319e-05
1.458729364682341156e+02 1.265547585993482875e-05
1.467733866933466800e+02 1.235592756882993960e-05
1.476738369184592159e+02 1.214157087035780570e-05
1.485742871435717802e+02 1.192745410553010499e-05
1.494747373686843446e+02 1.155226435117568340e-05
1.503751875937968805e+02 1.104218451764452640e-05
1.512756378189094448e+02 1.060254109663554716e-05
1.521760880440220092e+02 1.038942567273810785e-05
1.530765382691345735e+02 1.044312445023137508e-05
1.539769884942471094e+02 1.071957242336331303e-05
1.548774387193596738e+02 1.104249583760700476e-05
1.557778889444722381e+02 1.113589639310437089e-05
1.566783391695847740e+02 1.082586558829373502e-05
1.575787893946973384e+02 1.023630980762194775e-05
1.584792396198099027e+02 9.650705017269146070e-06
1.593796898449224670e+02 9.242429479190806572e-06
1.602801400700350030e+02 9.022886316225461068e-06
1.611805902951475673e+02 8.924437308020744547e-06
1.620810405202601316e+02 8.892980066163960726e-06
1.629814907453726676e+02 8.889933141553841859e-06
1.638819409704852319e+02 8.875973916395447550e-06
1.647823911955977962e+02 8.837020069656901269e-06
1.656828414207103606e+02 8.802266757180865245e-06
1.665832916458228965e+02 8.833326726641950550e-06
1.674837418709354608e+02 8.930338329537014958e-06
1.683841920960480252e+02 8.972527123035673946e-06
1.692846423211605611e+02 8.842481304511034867e-06
1.701850925462731254e+02 8.589982544357395512e-06
1.710855427713856898e+02 8.392270789097723796e-06
1.719859929964982541e+02 8.391156730797734540e-06
1.728864432216107900e+02 8.643990249548364309e-06
1.737868934467233544e+02 9.139876406206780762e-06
1.746873436718359187e+02 9.777722170419530500e-06
1.755877938969484546e+02 1.038717607569524208e-05
1.764882441220610190e+02 1.086793739958831561e-05
1.773886943471735833e+02 1.123935224108141616e-05
1.782891445722861476e+02 1.153178650595548020e-05
1.791895947973986836e+02 1.178653794921052755e-05
1.800900450225112479e+02 1.206305557876517671e-05
1.809904952476238122e+02 1.233265886726146432e-05
1.818909454727363482e+02 1.245768391432396136e-05
1.827913956978489125e+02 1.235480274681542874e-05
1.836918459229614768e+02 1.207280599834207235e-05
1.845922961480740412e+02 1.171164918054213912e-05
1.854927463731865771e+02 1.134891169938625218e-05
1.863931965982991414e+02 1.101159043519249997e-05
1.872936468234117058e+02 1.070612694213267371e-05
1.881940970485242417e+02 1.047956197645535023e-05
1.890945472736368060e+02 1.045301339003109139e-05
1.899949974987493704e+02 1.072814248479419608e-05
1.908954477238619347e+02 1.126861123787354591e-05
1.917958979489744706e+02 1.195087672716690971e-05
1.926963481740870350e+02 1.271413503978803425e-05
1.935967983991995993e+02 1.351333116862287187e-05
1.944972486243121352e+02 1.417194768948332069e-05
1.953976988494246996e+02 1.447188179255723365e-05
1.962981490745372639e+02 1.436916554884150390e-05
1.971985992996498283e+02 1.397474490581463558e-05
1.980990495247623642e+02 1.344183932861912617e-05
1.989994997498749285e+02 1.296563631010465918e-05
1.998999499749874929e+02 1.271687073786792353e-05
2.008004002001000288e+02 1.272853562058074804e-05
2.017008504252125931e+02 1.289254567497331889e-05
2.026013006503251574e+02 1.305646181590711165e-05
2.035017508754377218e+02 1.313581113344214540e-05
2.044022011005502577e+02 1.320366943155329385e-05
2.053026513256628220e+02 1.337978389989609768e-05
2.062031015507753864e+02 1.359771080292697874e-05
2.071035517758879223e+02 1.368680026424822733e-05
2.080040020010004866e+02 1.363705500987249477e-05
2.089044522261130510e+02 1.357564045159169780e-05
2.098049024512256153e+02 1.363357890301778221e-05
2.107053526763381512e+02 1.390722992078825196e-05
2.116058029014507156e+02 1.439922118550174358e-05
2.125062531265632799e+02 1.497650243574227460e-05
2.134067033516758158e+02 1.542590883919161702e-05
2.143071535767883802e+02 1.554516406949327963e-05
2.152076038019009445e+02 1.528733769641108509e-05
2.161080540270135089e+02 1.479800488691907031e-05
2.170085042521260448e+02 1.428139588153775915e-05
2.179089544772386091e+02 1.389593861649638896e-05
2.188094047023511735e+02 1.369198106621836772e-05
2.197098549274637094e+02 1.364206642749798219e-05
2.206103051525762737e+02 1.375234904423865159e-05
2.215107553776888381e+02 1.405615446010171570e-05
2.224112056028014024e+02 1.450003993178866156e-05
2.233116558279139383e+02 1.495058865928296417e-05
2.242121060530265027e+02 1.529098536991969014e-05
2.251125562781390670e+02 1.555693090409611236e-05
2.260130065032516029e+02 1.589422430125444379e-05
2.269134567283641672e+02 1.641554494513350053e-05
2.278139069534767316e+02 1.713252659009283478e-05
2.287143571785892959e+02 1.792495387797515577e-05
2.296148074037018318e+02 1.868024098187559214e-05
2.305152576288143962e+02 1.939596758150759499e-05
2.314157078539269605e+02 2.008671865682752939e-05
2.323161580790394964e+02 2.064573937170307308e-05
2.332166083041520608e+02 2.084395363477645221e-05
2.341170585292646251e+02 2.057453437425754426e-05
2.350175087543771895e+02 1.996295431518948011e-05
2.359179589794897254e+02 1.927791114134381594e-05
2.368184092046022897e+02 1.880398091801369176e-05
2.377188594297148541e+02 1.869807410696071372e-05
2.386193096548273900e+02 1.890676770545895213e-05
2.395197598799399543e+02 1.920108127662377551e-05
2.404202101050525187e+02 1.937093858340480996e-05
2.413206603301650830e+02 1.932430769482178370e-05
2.422211105552776189e+02 1.907409145700345661e-05
2.431215607803901833e+02 1.876529018273246486e-05
2.440220110055027476e+02 1.856299937073869322e-05
2.449224612306152835e+02 1.847160039211324665e-05
2.458229114557278479e+02 1.840012157118820206e-05
2.467233616808404122e+02 1.832205126580223339e-05
2.476238119059529765e+02 1.823913889277015501e-05
2.485242621310655124e+02 1.819073421132300910e-05
2.494247123561780768e+02 1.826501584216291081e-05
2.503251625812906411e+02 1.852230006095893224e-05
2.512256128064031770e+02 1.890080032528795368e-05
2.521260630315157414e+02 1.924497484109237156e-05
2.530265132566283057e+02 1.950721919870922720e-05
2.539269634817408701e+02 1.972055902605284632e-05
2.548274137068534060e+02 1.983855880621450597e-05
2.557278639319659703e+02 1.979210782300323132e-05
2.566283141570785347e+02 1.959219097584334262e-05
2.575287643821910706e+02 1.930808672442899801e-05
2.584292146073036633e+02 1.901858202235036895e-05
2.593296648324161993e+02 1.874862413496995102e-05
2.602301150575287352e+02 1.847125953848699825e-05
2.611305652826413279e+02 1.818797428413344969e-05
2.620310155077538639e+02 1.792533530571711650e-05
2.629314657328663998e+02 1.769623619508774095e-05
2.638319159579789925e+02 1.757444493635723973e-05
2.647323661830915285e+02 1.766134407154242559e-05
2.656328164082040644e+02 1.799692356407957191e-05
2.665332666333166571e+02 1.850597608957896175e-05
2.674337168584291931e+02 1.893765271597868015e-05
2.683341670835417858e+02 1.903519771813498896e-05
2.692346173086543217e+02 1.881219031491156783e-05
2.701350675337668577e+02 1.847520793266983294e-05
2.710355177588794504e+02 1.811969716722570709e-05
2.719359679839919863e+02 1.774794418702169022e-05
2.728364182091045222e+02 1.745400028356677892e-05
2.737368684342171150e+02 1.737309484824458552e-05
2.746373186593296509e+02 1.753616749005674225e-05
2.755377688844421868e+02 1.781934431405664642e-05
2.764382191095547796e+02 1.808302025840071003e-05
2.773386693346673155e+02 1.830156050019198478e-05
2.782391195597798514e+02 1.851160443138571637e-05
2.791395697848924442e+02 1.873636935052678490e-05
2.800400200100049801e+02 1.894294522193381059e-05
2.809404702351175729e+02 1.907728808806455689e-05
2.818409204602301088e+02 1.914184755335353151e-05
2.827413706853426447e+02 1.904092695364977415e-05
2.836418209104552375e+02 1.860892779215582172e-05
2.845422711355677734e+02 1.795557250071337736e-05
2.854427213606803093e+02 1.738497323543975324e-05
2.863431715857929021e+02 1.703623263348115425e-05
2.872436218109054380e+02 1.685129927286225141e-05
2.881440720360179739e+02 1.675473635836853623e-05
2.890445222611305667e+02 1.676207898715898650e-05
2.899449724862431026e+02 1.693455053989775908e-05
2.908454227113556385e+02 1.725295309988036035e-05
2.917458729364682313e+02 1.755463612894020848e-05
2.926463231615807672e+02 1.766258093667050151e-05
2.935467733866933600e+02 1.755636991390553643e-05
2.944472236118058959e+02 1.734690808553506424e-05
2.953476738369184318e+02 1.719336027500628625e-05
2.962481240620310246e+02 1.720109232216337597e-05
2.971485742871435605e+02 1.732318730818259545e-05
2.980490245122560964e+02 1.739561585296173503e-05
2.989494747373686891e+02 1.730375644407128143e-05
2.998499249624812251e+02 1.707499820683855716e-05
3.007503751875937610e+02 1.680486765454050740e-05
3.016508254127063537e+02 1.650403556360354848e-05
3.025512756378188897e+02 1.612099266538002501e-05
3.034517258629314256e+02 1.571490856774445253e-05
3.043521760880440183e+02 1.543218997123073979e-05
3.052526263131565543e+02 1.535733423096883818e-05
3.061530765382691470e+02 1.542612638065846221e-05
3.070535267633816829e+02 1.548615151974765318e-05
3.079539769884942189e+02 1.547209878607817108e-05
3.088544272136068116e+02 1.544711376709244978e-05
3.097548774387193475e+02 1.546715972490479712e-05
3.106553276638318835e+02 1.554306391344716326e-05
3.115557778889444762e+02 1.568704917549239728e-05
3.124562281140570121e+02 1.591176909253486061e-05
3.133566783391695481e+02 1.615556948797155771e-05
3.142571285642821408e+02 1.630779975423001234e-05
3.151575787893946767e+02 1.637290622188804288e-05
3.160580290145072127e+02 1.646909636398820797e-05
3.169584792396198054e+02 1.660936459457028680e-05
3.178589294647323413e+02 1.666655900377461783e-05
3.187593796898449341e+02 1.658411473901146328e-05
3.196598299149574700e+02 1.640938451878800738e-05
3.205602801400700059e+02 1.619384197823439973e-05
3.214607303651825987e+02 1.599938873212248083e-05
3.223611805902951346e+02 1.590535286509447871e-05
3.232616308154076705e+02 1.591744913932448721e-05
3.241620810405202633e+02 1.593961876230880355e-05
3.250625312656327992e+02 1.594033125971860632e-05
3.259629814907453351e+02 1.601496658289720365e-05
3.268634317158579279e+02 1.621610431479645050e-05
3.277638819409704638e+02 1.648234143518972119e-05
3.286643321660829997e+02 1.671704972250205500e-05
3.295647823911955925e+02 1.685293177755943096e-05
3.304652326163081284e+02 1.692050768632518713e-05
3.313656828414207212e+02 1.697702868432815043e-05
3.322661330665332571e+02 1.695736794174806066e-05
3.331665832916457930e+02 1.676401957296265653e-05
3.340670335167583858e+02 1.639063723144197786e-05
3.349674837418709217e+02 1.590334161202678617e-05
3.358679339669834576e+02 1.545211626373657737e-05
3.367683841920960504e+02 1.522943970869951610e-05
3.376688344172085863e+02 1.531022701038150185e-05
3.385692846423211222e+02 1.559907640468038411e-05
3.394697348674337150e+02 1.592701943337199719e-05
3.403701850925462509e+02 1.614438551794620001e-05
3.412706353176587868e+02 1.619611337600071496e-05
3.421710855427713796e+02 1.616177053691994793e-05
3.430715357678839155e+02 1.616777416651305391e-05
3.439719859929965082e+02 1.624058998951986223e-05
3.448724362181090441e+02 1.633772141483760996e-05
3.457728864432215801e+02 1.649212267963969859e-05
3.466733366683341728e+02 1.677922019466966043e-05
3.475737868934467087e+02 1.720908714656092033e-05
3.484742371185592447e+02 1.772724931160003911e-05
3.493746873436718374e+02 1.828257528727530171e-05
3.502751375687843733e+02 1.881411571782237512e-05
3.511755877938969093e+02 1.925492090458851309e-05
3.520760380190095020e+02 1.962964928041750434e-05
3.529764882441220379e+02 1.990658331882888353e-05
3.538769384692345739e+02 1.993572265034154929e-05
3.547773886943471666e+02 1.967234593609248951e-05
3.556778389194597025e+02 1.928491926204575036e-05
3.565782891445722953e+02 1.899744455016060384e-05
3.574787393696848312e+02 1.888695314156068491e-05
3.583791895947973671e+02 1.889364969636797705e-05
3.592796398199099599e+02 1.893479006884688168e-05
3.601800900450224958e+02 1.895377737979256355e-05
3.610805402701350317e+02 1.895086651961714428e-05
3.619809904952476245e+02 1.895874964185842578e-05
3.628814407203601604e+02 1.897558650477488545e-05
3.637818909454726963e+02 1.894423178596044751e-05
3.646823411705852891e+02 1.887999641195296742e-05
3.655827913956978250e+02 1.885464060316535849e-05
3.664832416208103609e+02 1.885879674156737285e-05
3.673836918459229537e+02 1.885832130417979685e-05
3.682841420710354896e+02 1.890912720620820467e-05
3.691845922961480824e+02 1.907656337589237996e-05
3.700850425212606183e+02 1.928867353786192009e-05
3.709854927463731542e+02 1.943282729171358852e-05
3.718859429714857470e+02 1.950326522835047827e-05
3.727863931965982829e+02 1.953858018869473402e-05
3.736868434217108188e+02 1.955681751276935716e-05
3.745872936468234116e+02 1.958482187387749153e-05
3.754877438719359475e+02 1.961126182572523350e-05
3.763881940970484834e+02 1.959868130872197831e-05
3.772886443221610762e+02 1.955536720078543546e-05
3.781890945472736121e+02 1.954234568569789807e-05
3.790895447723861480e+02 1.957567631786066763e-05
3.799899949974987408e+02 1.959301986364681301e-05
3.808904452226112767e+02 1.957522498043816060e-05
3.817908954477238694e+02 1.963974262623143695e-05
3.826913456728364054e+02 1.988653437849960637e-05
3.835917958979489413e+02 2.025809376329545906e-05
3.844922461230615340e+02 2.060538963690970512e-05
3.853926963481740700e+02 2.083549839919650957e-05
3.862931465732866059e+02 2.098478975669543600e-05
3.871935967983991986e+02 2.119810476939085170e-05
3.880940470235117346e+02 2.159258574314626333e-05
3.889944972486242705e+02 2.214117871026309345e-05
3.898949474737368632e+02 2.265213881789137514e-05
3.907953976988493991e+02 2.287620522636163027e-05
3.916958479239619351e+02 2.278241231205789169e-05
3.925962981490745278e+02 2.255837868200124963e-05
3.934967483741870637e+02 2.238575839651881308e-05
3.943971985992996565e+02 2.237371601079389267e-05
3.952976488244121924e+02 2.254254575458247524e-05
3.961980990495247283e+02 2.280648258048319164e-05
3.970985492746373211e+02 2.306398038606586058e-05
3.979989994997498570e+02 2.332456313083051255e-05
3.988994497248623929e+02 2.364072887557631307e-05
3.997998999499749857e+02 2.403201630540850685e-05
4.007003501750875216e+02 2.449362985700088323e-05
4.016008004002000575e+02 2.493534360097332441e-05
4.025012506253126503e+02 2.524052202618123631e-05
4.034017008504251862e+02 2.542348401410686720e-05
4.043021510755377221e+02 2.553664576066835514e-05
4.052026013006503149e+02 2.556709878451910605e-05
4.061030515257628508e+02 2.547324090674355713e-05
4.070035017508754436e+02 2.517132183722594710e-05
4.079039519759879795e+02 2.463412131758009846e-05
4.088044022011005154e+02 2.401159840898470539e-05
4.097048524262131082e+02 2.356444502670416446e-05
4.106053026513256441e+02 2.346470656932309436e-05
4.115057528764381800e+02 2.366529163186719239e-05
4.124062031015507728e+02 2.402925325693890500e-05
4.133066533266633087e+02 2.451428512236603099e-05
4.142071035517758446e+02 2.514245243511205376e-05
4.151075537768884374e+02 2.588652605691857918e-05
4.160080040020009733e+02 2.662629221918426034e-05
4.169084542271135092e+02 2.716122287356397439e-05
4.178089044522261020e+02 2.735997602725295978e-05
4.187093546773386379e+02 2.730421131132143575e-05
4.196098049024512306e+02 2.716499600354510801e-05
4.205102551275637666e+02 2.702149786384301457e-05
4.214107053526763025e+02 2.691639837710906974e-05
4.223111555777888952e+02 2.690203669820159386e-05
4.232116058029014312e+02 2.701940848616429358e-05
4.241120560280139671e+02 2.727448274237093584e-05
4.250125062531265598e+02 2.753740454672688149e-05
4.259129564782390958e+02 2.767288352606985687e-05
4.268134067033516317e+02 2.776277030065398463e-05
4.277138569284642244e+02 2.789265929036885332e-05
4.286143071535767604e+02 2.792660769487362275e-05
4.295147573786892963e+02 2.779112460550548129e-05
4.304152076038018890e+02 2.769033182856130975e-05
4.313156578289144250e+02 2.780376604224260372e-05
4.322161080540270177e+02 2.807519817902432636e-05
4.331165582791395536e+02 2.837638487025062633e-05
4.340170085042520896e+02 2.869481619778043360e-05
4.349174587293646823e+02 2.901899411975247258e-05
4.358179089544772182e+02 2.930663479093638572e-05
4.367183591795897541e+02 2.966007650962261265e-05
4.376188094047023469e+02 3.022654400141397893e-05
4.385192596298148828e+02 3.100980446628924552e-05
4.394197098549274187e+02 3.189583638600670945e-05
4.403201600800400115e+02 3.271814309336211138e-05
4.412206103051525474e+02 3.322535378833982544e-05
4.421210605302650833e+02 3.320563388420328353e-05
4.430215107553776761e+02 3.266965041420423390e-05
4.439219609804902120e+02 3.186242700951856554e-05
4.448224112056028048e+02 3.114017559456875531e-05
4.457228614307153407e+02 3.077367132768404738e-05
4.466233116558278766e+02 3.083498220649743323e-05
4.475237618809404694e+02 3.120188192053824778e-05
4.484242121060530053e+02 3.165863334252219289e-05
4.493246623311655412e+02 3.197676690089536802e-05
4.502251125562781340e+02 3.204348204101151572e-05
4.511255627813906699e+02 3.196898036043137434e-05
4.520260130065032058e+02 3.190865494458504310e-05
4.529264632316157986e+02 3.187396396922969347e-05
4.538269134567283345e+02 3.173439747828677332e-05
4.547273636818408704e+02 3.137156091998362617e-05
4.556278139069534632e+02 3.088831020411396205e-05
4.565282641320659991e+02 3.049571446319780733e-05
4.574287143571785919e+02 3.029774900422025391e-05
4.583291645822911278e+02 3.036761264601841866e-05
4.592296148074036637e+02 3.080403974919889207e-05
4.601300650325162565e+02 3.154640895210517726e-05
4.610305152576287924e+02 3.232388967449552808e-05
4.619309654827413283e+02 3.289933630415012116e-05
4.628314157078539210e+02 3.322740396165381965e-05
4.637318659329664570e+02 3.331596844449294977e-05
4.646323161580789929e+02 3.318973531506816957e-05
4.655327663831915856e+02 3.297119026187887681e-05
4.664332166083041216e+02 3.281648734205046199e-05
4.673336668334167143e+02 3.287734905390036409e-05
4.682341170585292502e+02 3.322787027227754698e-05
4.691345672836417862e+02 3.374448506032499620e-05
4.700350175087543789e+02 3.424032335616393160e-05
4.709354677338669148e+02 3.468241620128479871e-05
4.718359179589794508e+02 3.506182410823621725e-05
4.727363681840920435e+02 3.521371524963857921e-05
4.736368184092045794e+02 3.498366797205692614e-05
4.745372686343171154e+02 3.451974699958116195e-05
4.754377188594297081e+02 3.419564670284900085e-05
4.763381690845422440e+02 3.420306070630370359e-05
4.772386193096547800e+02 3.437739192345266219e-05
4.781390695347673727e+02 3.443078915996739556e-05
4.790395197598799086e+02 3.421207804566805624e-05
4.799399699849925014e+02 3.375625354033702708e-05
4.808404202101050373e+02 3.320743086441486154e-05
4.817408704352175732e+02 3.270333382752463265e-05
4.826413206603301660e+02 3.233184766939984126e-05
4.835417708854427019e+02 3.214079112354613626e-05
4.844422211105552378e+02 3.218362941441902194e-05
4.853426713356678306e+02 3.249370492594988333e-05
4.862431215607803665e+02 3.296823501725045918e-05
4.871435717858929024e+02 3.348031857772431165e-05
4.880440220110054952e+02 3.405972919938352034e-05
4.889444722361180311e+02 3.470142364971224040e-05
4.898449224612305670e+02 3.524848304764582001e-05
4.907453726863431598e+02 3.564498392716910325e-05
4.916458229114556957e+02 3.592754705491879033e-05
4.925462731365682885e+02 3.608204532255804834e-05
4.934467233616808244e+02 3.606751821762811661e-05
4.943471735867933603e+02 3.592662678033627230e-05
4.952476238119059531e+02 3.576641610497006984e-05
4.961480740370184890e+02 3.564495029495129717e-05
4.970485242621310249e+02 3.564366040770971009e-05
4.979489744872436177e+02 3.590168130634948605e-05
4.988494247123561536e+02 3.641209594678269424e-05
4.997498749374686895e+02 3.701714368775069799e-05
5.006503251625812823e+02 3.761205204132521347e-05
5.015507753876938182e+02 3.814291964440745590e-05
5.024512256128063541e+02 3.858954760235748104e-05
5.033516758379189469e+02 3.899528767552036990e-05
5.042521260630314828e+02 3.941028652220218790e-05
5.051525762881440755e+02 3.988745465419943364e-05
5.060530265132566115e+02 4.043219856154530025e-05
5.069534767383691474e+02 4.093654724841492122e-05
5.078539269634817401e+02 4.132704202575059521e-05
5.087543771885942760e+02 4.161937471607798651e-05
5.096548274137068120e+02 4.189938546773460857e-05
5.105552776388194047e+02 4.234150695256930615e-05
5.114557278639319406e+02 4.301854291069066123e-05
5.123561780890445334e+02 4.376840222733633626e-05
5.132566283141570693e+02 4.428057431589705462e-05
5.141570785392696052e+02 4.434518451513353566e-05
5.150575287643821412e+02 4.401602415506634779e-05
5.159579789894946771e+02 4.353231935305615504e-05
5.168584292146073267e+02 4.312143816087033452e-05
5.177588794397198626e+02 4.281210456679125696e-05
5.186593296648323985e+02 4.259872286669721974e-05
5.195597798899449344e+02 4.257607734158389576e-05
5.204602301150574704e+02 4.285119699170079736e-05
5.213606803401700063e+02 4.347760169450422924e-05
5.222611305652826559e+02 4.438721974324410911e-05
5.231615807903951918e+02 4.542061646803967009e-05
5.240620310155077277e+02 4.631575214021452387e-05
5.249624812406202636e+02 4.681827658247821814e-05
5.258629314657327996e+02 4.693071432151131063e-05
5.267633816908454492e+02 4.686426462538476669e-05
5.276638319159579851e+02 4.683837798162780302e-05
5.285642821410705210e+02 4.705624535175173079e-05
5.294647323661830569e+02 4.762656655105645660e-05
5.303651825912955928e+02 4.850456860812516543e-05
5.312656328164081287e+02 4.961618761531395774e-05
5.321660830415207784e+02 5.088003002272689293e-05
5.330665332666333143e+02 5.213975506268405866e-05
5.339669834917458502e+02 5.328130413730430354e-05
5.348674337168583861e+02 5.432622018542963702e-05
5.357678839419709220e+02 5.538428630861734811e-05
5.366683341670835716e+02 5.643364003740397610e-05
5.375687843921961075e+02 5.733271054334966176e-05
5.384692346173086435e+02 5.806313774770916354e-05
5.393696848424211794e+02 5.873426996179826758e-05
5.402701350675337153e+02 5.944421033271459235e-05
5.411705852926462512e+02 6.020773191075348864e-05
5.420710355177589008e+02 6.104663945538877094e-05
5.429714857428714367e+02 6.198351268688580338e-05
5.438719359679839727e+02 6.294615409871450514e-05
5.447723861930965086e+02 6.378119172370730881e-05
5.456728364182090445e+02 6.434701785464872099e-05
5.465732866433215804e+02 6.469921426940274264e-05
5.474737368684342300e+02 6.503180453160415991e-05
5.483741870935467659e+02 6.554480574247113789e-05
5.492746373186593019e+02 6.634513904238890610e-05
5.501750875437718378e+02 6.734388114646755366e-05
5.510755377688843737e+02 6.823173670497647344e-05
5.519759879939970233e+02 6.875856016251719602e-05
5.528764382191095592e+02 6.898156957935222533e-05
5.537768884442220951e+02 6.902725850881685278e-05
5.546773386693346310e+02 6.883091776911495405e-05
5.555777888944471670e+02 6.842359366974088168e-05
5.564782391195597029e+02 6.804411283275876236e-05
5.573786893446723525e+02 6.793597989271832381e-05
5.582791395697848884e+02 6.830709738521822494e-05
5.591795897948974243e+02 6.922759121303004976e-05
5.600800400200099602e+02 7.053825765802880477e-05
5.609804902451224962e+02 7.200694869124435178e-05
5.618809404702351458e+02 7.346481635915971548e-05
5.627813906953476817e+02 7.471073388571713818e-05
5.636818409204602176e+02 7.562609227530940679e-05
5.645822911455727535e+02 7.632967040785702990e-05
5.654827413706852894e+02 7.710338609513098804e-05
5.663831915957978254e+02 7.820121351666327217e-05
5.672836418209104750e+02 7.964473801100614681e-05
5.681840920460230109e+02 8.114208706761679162e-05
5.690845422711355468e+02 8.229828203019711949e-05
5.699849924962480827e+02 8.306069169557162273e-05
5.708854427213606186e+02 8.369967336383101570e-05
5.717858929464731546e+02 8.434435679451211169e-05
5.726863431715858042e+02 8.500180200505668034e-05
5.735867933966983401e+02 8.553731261782007657e-05
5.744872436218108760e+02 8.549703758957806835e-05
5.753876938469234119e+02 8.451582655211548826e-05
5.762881440720359478e+02 8.302077619501791546e-05
5.771885942971485974e+02 8.184631526165916059e-05
5.780890445222611334e+02 8.128386330311515313e-05
5.789894947473736693e+02 8.112031785133980795e-05
5.798899449724862052e+02 8.113794186688883610e-05
5.807903951975987411e+02 8.123646042113878891e-05
5.816908454227112770e+02 8.134594066814121438e-05
5.825912956478239266e+02 8.151701328364202115e-05
5.834917458729364625e+02 8.199814160880578701e-05
5.843921960980489985e+02 8.289693305286783859e-05
5.852926463231615344e+02 8.392146572284627252e-05
5.861930965482740703e+02 8.460441959717966579e-05
5.870935467733867199e+02 8.473860038785095412e-05
5.879939969984992558e+02 8.458085793046735709e-05
5.888944472236117917e+02 8.453496270203941158e-05
5.897948974487243277e+02 8.478654607905150933e-05
5.906953476738368636e+02 8.535945709084558184e-05
5.915957978989493995e+02 8.602245231837422695e-05
5.924962481240620491e+02 8.634784264101824614e-05
5.933966983491745850e+02 8.624517906658984219e-05
5.942971485742871209e+02 8.604541154698006847e-05
5.951975987993996569e+02 8.592791292276860985e-05
5.960980490245121928e+02 8.579917543874749654e-05
5.969984992496247287e+02 8.568889990940966922e-05
5.978989494747373783e+02 8.580513356644172969e-05
5.987993996998499142e+02 8.615794105402239532e-05
5.996998499249624501e+02 8.674170410478517965e-05
6.006003001500749860e+02 8.773986195605197949e-05
6.015007503751875220e+02 8.907941188810509006e-05
6.024012006003001716e+02 9.049871083074673519e-05
6.033016508254127075e+02 9.184042783813265332e-05
6.042021010505252434e+02 9.278523938501608242e-05
6.051025512756377793e+02 9.296569232864578989e-05
6.060030015007503152e+02 9.240359479344521234e-05
6.069034517258628512e+02 9.133924011687621219e-05
6.078039019509755008e+02 8.994964599708223172e-05
6.087043521760880367e+02 8.852168174803546794e-05
6.096048024012005726e+02 8.743229745541195822e-05
6.105052526263131085e+02 8.657090474234097510e-05
6.114057028514256444e+02 8.559490378984539337e-05
6.123061530765382940e+02 8.463609997562546920e-05
6.132066033016508300e+02 8.386591230570705096e-05
6.141070535267633659e+02 8.308788055599702742e-05
6.150075037518759018e+02 8.215809462132765456e-05
6.159079539769884377e+02 8.114123042169382510e-05
6.168084042021009736e+02 8.021800055499716631e-05
6.177088544272136232e+02 7.960880370117317314e-05
6.186093046523261592e+02 7.943757472349824910e-05
6.195097548774386951e+02 7.966576012706212771e-05
6.204102051025512310e+02 8.020290423025183419e-05
6.213106553276637669e+02 8.085930104759859929e-05
6.222111055527763028e+02 8.127723069106545411e-05
6.231115557778889524e+02 8.137464639204574810e-05
6.240120060030014884e+02 8.128983089140247537e-05
6.249124562281140243e+02 8.105554037178058161e-05
6.258129064532265602e+02 8.072877616454770318e-05
6.267133566783390961e+02 8.037276126216728574e-05
6.276138069034517457e+02 7.998077786709714059e-05
6.285142571285642816e+02 7.966158415128518622e-05
6.294147073536768175e+02 7.963527534288281778e-05
6.303151575787893535e+02 7.975605905225040791e-05
6.312156078039018894e+02 7.949111067271955283e-05
6.321160580290144253e+02 7.868466360835887766e-05
6.330165082541270749e+02 7.770246436236202131e-05
6.339169584792396108e+02 7.690270734960457917e-05
6.348174087043521467e+02 7.638119771431777687e-05
6.357178589294646827e+02 7.597477802452944691e-05
6.366183091545772186e+02 7.556337405700663649e-05
6.375187593796898682e+02 7.529411081740770091e-05
6.384192096048024041e+02 7.528121553109554771e-05
6.393196598299149400e+02 7.541359514800018181e-05
6.402201100550274759e+02 7.553569178012179428e-05
6.411205602801400119e+02 7.557804653269370075e-05
6.420210105052525478e+02 7.566181095220976885e-05
6.429214607303651974e+02 7.599841632636785706e-05
6.438219109554777333e+02 7.656584514367133763e-05
6.447223611805902692e+02 7.703363695790280987e-05
6.456228114057028051e+02 7.721739182969190505e-05
6.465232616308153411e+02 7.736183603509486572e-05
6.474237118559278770e+02 7.774264071311101361e-05
6.483241620810405266e+02 7.812832373411103277e-05
6.492246123061530625e+02 7.776355233512618407e-05
6.501250625312655984e+02 7.627099498861756623e-05
6.510255127563781343e+02 7.417866897001220490e-05
6.519259629814906702e+02 7.218111560680656345e-05
6.528264132066033198e+02 7.052701974005291927e-05
6.537268634317158558e+02 6.908658063067344671e-05
6.546273136568283917e+02 6.759978061020715807e-05
6.555277638819409276e+02 6.610317756718145875e-05
6.564282141070534635e+02 6.495492260639125688e-05
6.573286643321659994e+02 6.439415817039487969e-05
6.582291145572786490e+02 6.426970771247243752e-05
6.591295647823911850e+02 6.417687663856213318e-05
6.600300150075037209e+02 6.389943443024030906e-05
6.609304652326162568e+02 6.351286139715039763e-05
6.618309154577287927e+02 6.314398884923844255e-05
6.627313656828414423e+02 6.286903048822388125e-05
6.636318159079539782e+02 6.275548882829444356e-05
6.645322661330665142e+02 6.275476692158066044e-05
6.654327163581790501e+02 6.278151367231222634e-05
6.663331665832915860e+02 6.285241932257782749e-05
6.672336168084041219e+02 6.292323330893059971e-05
6.681340670335167715e+02 6.294302692141369004e-05
6.690345172586293074e+02 6.294798401233430807e-05
6.699349674837418434e+02 6.291879190938360505e-05
6.708354177088543793e+02 6.282165623212979414e-05
6.717358679339669152e+02 6.273827947653267702e-05
6.726363181590794511e+02 6.279377833154050140e-05
6.735367683841921007e+02 6.300092563446440847e-05
6.744372186093046366e+02 6.336124111011949198e-05
6.753376688344171725e+02 6.377656059293667571e-05
6.762381190595297085e+02 6.392368935356732983e-05
6.771385692846422444e+02 6.357057187432497037e-05
6.780390195097548940e+02 6.276089162706372838e-05
6.789394697348674299e+02 6.174479227958756822e-05
6.798399199599799658e+02 6.082409575055639493e-05
6.807403701850925017e+02 6.010894295289544821e-05
6.816408204102050377e+02 5.963504533968346514e-05
6.825412706353175736e+02 5.951476131628335759e-05
6.834417208604302232e+02 5.970768930213807616e-05
6.843421710855427591e+02 5.991826259114302805e-05
6.852426213106552950e+02 5.980931357823523971e-05
6.861430715357678309e+02 5.925701415274037286e-05
6.870435217608803669e+02 5.839220277197905716e-05
6.879439719859930165e+02 5.742718733189262404e-05
6.888444222111055524e+02 5.651309627619921776e-05
6.897448724362180883e+02 5.572969122603296268e-05
6.906453226613306242e+02 5.523429508926450652e-05
6.915457728864431601e+02 5.517459988410273011e-05
6.924462231115556961e+02 5.542026725395030149e-05
6.933466733366683457e+02 5.563824195479431941e-05
6.942471235617808816e+02 5.554103610260680056e-05
6.951475737868934175e+02 5.508847019102633711e-05
6.960480240120059534e+02 5.456622433039081023e-05
6.969484742371184893e+02 5.428274592467270985e-05
6.978489244622311389e+02 5.427819908682026935e-05
6.987493746873436749e+02 5.434753914290627025e-05
6.996498249124562108e+02 5.423716298190148276e-05
7.005502751375687467e+02 5.386922215056466954e-05
7.014507253626812826e+02 5.339034959029675622e-05
7.023511755877938185e+02 5.291722214371936224e-05
7.032516258129064681e+02 5.238979138657746146e-05
7.041520760380190040e+02 5.165423974915071863e-05
7.050525262631315400e+02 5.066235791908619830e-05
7.059529764882440759e+02 4.956041118891900724e-05
7.068534267133566118e+02 4.860762169560046747e-05
7.077538769384691477e+02 4.806737080442704553e-05
7.086543271635817973e+02 4.801146238421107732e-05
7.095547773886943332e+02 4.821617738937703228e-05
7.104552276138068692e+02 4.837218143612808828e-05
7.113556778389194051e+02 4.824868237229717240e-05
7.122561280640319410e+02 4.784108343635802698e-05
7.131565782891445906e+02 4.742837568024053837e-05
7.140570285142571265e+02 4.725326198377182427e-05
7.149574787393696624e+02 4.727582695762256839e-05
7.158579289644821984e+02 4.728666978503975540e-05
7.167583791895947343e+02 4.711812107183139191e-05
7.176588294147072702e+02 4.673182024272058439e-05
7.185592796398199198e+02 4.625883341411417949e-05
7.194597298649324557e+02 4.588402105150295803e-05
7.203601800900449916e+02 4.560002657847176104e-05
7.212606303151575275e+02 4.527892208806658943e-05
7.221610805402700635e+02 4.484039628540035280e-05
7.230615307653827131e+02 4.431128483847578673e-05
7.239619809904952490e+02 4.380193724918911004e-05
7.248624312156077849e+02 4.334517309097774798e-05
7.257628814407203208e+02 4.282533499471111323e-05
7.266633316658328567e+02 4.212165194555563149e-05
7.275637818909453927e+02 4.127103941527785012e-05
7.284642321160580423e+02 4.051441433149216933e-05
7.293646823411705782e+02 4.007973973172299298e-05
7.302651325662831141e+02 3.997620679304153063e-05
7.311655827913956500e+02 4.014030126979704476e-05
7.320660330165081859e+02 4.059028500945698287e-05
7.329664832416207219e+02 4.126695649369893626e-05
7.338669334667333715e+02 4.192377824065816053e-05
7.347673836918459074e+02 4.223325557255244711e-05
7.356678339169584433e+02 4.199006836192272678e-05
7.365682841420709792e+02 4.126649887071858028e-05
7.374687343671835151e+02 4.028050271553622585e-05
7.383691845922961647e+02 3.922619074839320253e-05
7.392696348174087007e+02 3.821727064772316955e-05
7.401700850425212366e+02 3.732213109516797797e-05
7.410705352676337725e+02 3.665763180177220688e-05
7.419709854927463084e+02 3.634540901673349227e-05
7.428714357178588443e+02 3.632431299704398653e-05
7.437718859429714939e+02 3.640411572301247733e-05
7.446723361680840299e+02 3.649356837702039385e-05
7.455727863931965658e+02 3.657784309973797875e-05
7.464732366183091017e+02 3.660937459121491380e-05
7.473736868434216376e+02 3.654659628319713359e-05
7.482741370685342872e+02 3.638552219400109845e-05
7.491745872936468231e+02 3.604580452364122015e-05
7.500750375187593590e+02 3.556144434894602577e-05
7.509754877438718950e+02 3.518668071698542933e-05
7.518759379689844309e+02 3.504507604961873803e-05
7.527763881940969668e+02 3.502932791665278143e-05
7.536768384192096164e+02 3.507406284981198736e-05
7.545772886443221523e+02 3.517460313497251329e-05
7.554777388694346882e+02 3.518292773891204984e-05
7.563781890945472242e+02 3.490519021640702988e-05
7.572786393196597601e+02 3.435412290564977236e-05
7.581790895447722960e+02 3.372941592993667341e-05
7.590795397698849456e+02 3.325595583104532741e-05
7.599799899949974815e+02 3.302409472861484580e-05
7.608804402201100174e+02 3.291608895322348444e-05
7.617808904452225534e+02 3.279922676921317125e-05
7.626813406703350893e+02 3.263315492059661900e-05
7.635817908954477389e+02 3.241258985565849236e-05
7.644822411205602748e+02 3.210184083828630303e-05
7.653826913456728107e+02 3.165039865010284102e-05
7.662831415707853466e+02 3.113379943815897013e-05
7.671835917958978825e+02 3.069036843191941916e-05
7.680840420210104185e+02 3.034626736425768021e-05
7.689844922461230681e+02 3.006951162668393027e-05
7.698849424712356040e+02 2.983428426662235603e-05
7.707853926963481399e+02 2.966452787513171777e-05
7.716858429214606758e+02 2.964580314101819029e-05
7.725862931465732117e+02 2.976827383261471894e-05
7.734867433716858613e+02 2.991284119049400809e-05
7.743871935967983973e+02 2.997587510353576825e-05
7.752876438219109332e+02 2.990987934027938507e-05
7.761880940470234691e+02 2.974275517767565320e-05
7.770885442721360050e+02 2.955557626562849862e-05
7.779889944972485409e+02 2.942292615845812983e-05
7.788894447223611905e+02 2.936788036921708005e-05
7.797898949474737265e+02 2.929988633599038282e-05
7.806903451725862624e+02 2.914719946942724330e-05
7.815907953976987983e+02 2.900840273133315988e-05
7.824912456228113342e+02 2.899564110336622525e-05
7.833916958479238701e+02 2.906039877343571305e-05
7.842921460730365197e+02 2.910011100125206330e-05
7.851925962981490557e+02 2.907836424602861132e-05
7.860930465232615916e+02 2.901569690906597750e-05
7.869934967483741275e+02 2.899375841923427678e-05
7.878939469734866634e+02 2.905212839213443740e-05
7.887943971985993130e+02 2.913382439535217865e-05
7.896948474237118489e+02 2.920830011447905699e-05
7.905952976488243849e+02 2.932990317086621023e-05
7.914957478739369208e+02 2.955267904076216805e-05
7.923961980990494567e+02 2.985976755703425477e-05
7.932966483241619926e+02 3.012709575817910427e-05
7.941970985492746422e+02 3.023095332188155662e-05
7.950975487743871781e+02 3.017837062007741153e-05
7.959979989994997140e+02 3.007920578789740839e-05
7.968984492246122500e+02 3.004424198355736694e-05
7.977988994497247859e+02 3.010268759581900781e-05
7.986993496748374355e+02 3.021327445128329421e-05
7.995997998999499714e+02 3.028509138921595692e-05
8.005002501250625073e+02 3.024273026650362253e-05
8.014007003501750432e+02 3.008012349981485672e-05
8.023011505752875792e+02 2.988916942984954611e-05
8.032016008004001151e+02 2.980336685150892037e-05
8.041020510255127647e+02 2.992728832643404421e-05
8.050025012506253006e+02 3.030531327557798327e-05
8.059029514757378365e+02 3.086412071483790045e-05
8.068034017008503724e+02 3.140074384356464891e-05
8.077038519259629084e+02 3.173609976533092730e-05
8.086043021510754443e+02 3.186101047138780720e-05
8.095047523761880939e+02 3.183454825201034651e-05
8.104052026013006298e+02 3.167554044543609520e-05
8.113056528264131657e+02 3.138558583506303556e-05
8.122061030515257016e+02 3.094064896897153708e-05
8.131065532766382375e+02 3.035833711011259067e-05
8.140070035017508872e+02 2.977475150507515945e-05
8.149074537268634231e+02 2.937226415181335752e-05
8.158079039519759590e+02 2.920228732609455333e-05
8.167083541770884949e+02 2.918675974551337968e-05
8.176088044022010308e+02 2.930472546115726513e-05
8.185092546273135667e+02 2.966094761127586939e-05
8.194097048524262163e+02 3.034521919530312162e-05
8.203101550775387523e+02 3.119681564879977364e-05
8.212106053026512882e+02 3.184529217414845909e-05
8.221110555277638241e+02 3.212400223306409518e-05
8.230115057528763600e+02 3.220371133388769054e-05
8.239119559779890096e+02 3.229347588469051760e-05
8.248124062031015455e+02 3.245543845098959249e-05
8.257128564282140815e+02 3.263115237630450608e-05
8.266133066533266174e+02 3.270206190151695905e-05
8.275137568784391533e+02 3.249919420100053118e-05
8.284142071035516892e+02 3.198086575151771907e-05
8.293146573286643388e+02 3.137161331865905164e-05
8.302151075537768747e+02 3.091263840396333814e-05
8.311155577788894107e+02 3.065756888213331003e-05
8.320160080040019466e+02 3.061069157916038728e-05
8.329164582291144825e+02 3.079054692873661563e-05
8.338169084542270184e+02 3.108772194684578642e-05
8.347173586793396680e+02 3.129320503786702212e-05
8.356178089044522039e+02 3.128079847861762867e-05
8.365182591295647399e+02 3.119263689586388366e-05
8.374187093546772758e+02 3.131232429078308435e-05
8.383191595797898117e+02 3.171911277485928111e-05
8.392196098049024613e+02 3.220075493672424884e-05
8.401200600300149972e+02 3.257922108421830280e-05
8.410205102551275331e+02 3.297514006640025260e-05
8.419209604802400690e+02 3.357031203838953785e-05
8.428214107053526050e+02 3.430055919169560015e-05
8.437218609304651409e+02 3.494643288857047624e-05
8.446223111555777905e+02 3.536426080935702352e-05
8.455227613806903264e+02 3.552820936791085558e-05
8.464232116058028623e+02 3.549646041090053313e-05
8.473236618309153982e+02 3.544173029639415370e-05
8.482241120560279342e+02 3.555809291753033976e-05
8.491245622811405838e+02 3.588827552617941967e-05
8.500250125062531197e+02 3.630356554647012294e-05
8.509254627313656556e+02 3.650975900363531143e-05
8.518259129564781915e+02 3.626115658471821813e-05
8.527263631815907274e+02 3.572987828748659883e-05
8.536268134067032634e+02 3.535421517590670888e-05
8.545272636318159130e+02 3.534377338588616567e-05
8.554277138569284489e+02 3.557605987219715867e-05
8.563281640820409848e+02 3.584953774757812392e-05
8.572286143071535207e+02 3.611515624341120995e-05
8.581290645322660566e+02 3.639291907744788879e-05
8.590295147573785925e+02 3.664536244889672752e-05
8.599299649824912422e+02 3.671474149132909943e-05
8.608304152076037781e+02 3.648528396620339629e-05
8.617308654327163140e+02 3.613641956220111756e-05
8.626313156578288499e+02 3.587647380741448611e-05
8.635317658829413858e+02 3.568075603068298783e-05
8.644322161080540354e+02 3.545047093378661746e-05
8.653326663331665713e+02 3.513295550292743277e-05
8.662331165582791073e+02 3.479027312899362847e-05
8.671335667833916432e+02 3.453705946308965598e-05
8.680340170085041791e+02 3.446785146063922574e-05
8.689344672336167150e+02 3.466722476965950096e-05
8.698349174587293646e+02 3.510897936044878699e-05
8.707353676838419005e+02 3.565995652606884683e-05
8.716358179089544365e+02 3.622996679795338908e-05
8.725362681340669724e+02 3.686881623613793099e-05
8.734367183591795083e+02 3.764231464713132386e-05
8.743371685842921579e+02 3.838048051577546641e-05
8.752376188094046938e+02 3.872441888162531950e-05
8.761380690345172297e+02 3.845546093615596022e-05
8.770385192596297657e+02 3.769010701391540895e-05
8.779389694847423016e+02 3.675193657415122198e-05
8.788394197098548375e+02 3.592771938234267325e-05
8.797398699349674871e+02 3.544657779932622630e-05
8.806403201600800230e+02 3.542362299953300740e-05
8.815407703851925589e+02 3.572728346876758197e-05
8.824412206103050949e+02 3.606825635608399219e-05
8.833416708354176308e+02 3.632623193880574436e-05
8.842421210605301667e+02 3.662486677691508821e-05
8.851425712856428163e+02 3.704666703941155733e-05
8.860430215107553522e+02 3.752500278581215987e-05
8.869434717358678881e+02 3.801434580728857844e-05
8.878439219609804240e+02 3.857346360626527334e-05
8.887443721860929600e+02 3.917802827490210346e-05
8.896448224112056096e+02 3.962280522779277025e-05
8.905452726363181455e+02 3.976267274591660164e-05
8.914457228614306814e+02 3.970461359281105300e-05
8.923461730865432173e+02 3.969313441190058312e-05
8.932466233116557532e+02 3.992187584096562960e-05
8.941470735367682892e+02 4.045848813925557026e-05
8.950475237618809388e+02 4.123949717296855502e-05
8.959479739869934747e+02 4.216183491275388102e-05
8.968484242121060106e+02 4.321445698346288794e-05
8.977488744372185465e+02 4.442826276244425833e-05
8.986493246623310824e+02 4.582465404972485508e-05
8.995497748874437320e+02 4.733894368677288316e-05
9.004502251125562680e+02 4.888584330306724643e-05
9.013506753376688039e+02 5.050845888334370921e-05
9.022511255627813398e+02 5.218902752982045539e-05
9.031515757878938757e+02 5.366463448378273990e-05
9.040520260130064116e+02 5.449116550721748637e-05
9.049524762381190612e+02 5.448369302389882691e-05
9.058529264632315972e+02 5.406356626510053193e-05
9.067533766883441331e+02 5.386400407379055819e-05
9.076538269134566690e+02 5.411573442949527325e-05
9.085542771385692049e+02 5.467452483611949564e-05
9.094547273636817408e+02 5.534061865835315233e-05
9.103551775887943904e+02 5.603464949420193671e-05
9.112556278139069263e+02 5.672998576175395432e-05
9.121560780390194623e+02 5.741893555215244930e-05
9.130565282641319982e+02 5.829871714312092555e-05
9.139569784892445341e+02 5.958408255051183378e-05
9.148574287143571837e+02 6.113545005323165100e-05
9.157578789394697196e+02 6.246790063379766662e-05
9.166583291645822555e+02 6.316006529202747961e-05
9.175587793896947915e+02 6.330151071733987464e-05
9.184592296148073274e+02 6.342407113849627906e-05
9.193596798399198633e+02 6.386384321575654501e-05
9.202601300650325129e+02 6.443023239699436711e-05
9.211605802901450488e+02 6.497501297423162740e-05
9.220610305152575847e+02 6.575347962299053967e-05
9.229614807403701207e+02 6.706130651206635253e-05
9.238619309654826566e+02 6.881612280358219013e-05
9.247623811905953062e+02 7.061426079927330258e-05
9.256628314157078421e+02 7.195051259312738217e-05
9.265632816408203780e+02 7.245667640443562130e-05
9.274637318659329139e+02 7.231366110276672482e-05
9.283641820910454499e+02 7.205815296429480209e-05
9.292646323161579858e+02 7.213694514839077390e-05
9.301650825412706354e+02 7.275616648955818928e-05
9.310655327663831713e+02 7.383979229184410640e-05
9.319659829914957072e+02 7.521327506908231171e-05
9.328664332166082431e+02 7.670830572928812963e-05
9.337668834417207790e+02 7.801430333478433547e-05
9.346673336668334287e+02 7.895484412525002199e-05
9.355677838919459646e+02 7.969446621718872875e-05
9.364682341170585005e+02 8.047578694318055959e-05
9.373686843421710364e+02 8.140543794706806631e-05
9.382691345672835723e+02 8.234839052011313262e-05
9.391695847923961082e+02 8.309406436073349985e-05
9.400700350175087578e+02 8.372105184563717899e-05
9.409704852426212938e+02 8.449305070927986628e-05
9.418709354677338297e+02 8.539492458557441891e-05
9.427713856928463656e+02 8.631558074352919658e-05
9.436718359179589015e+02 8.718775466361743554e-05
9.445722861430714374e+02 8.788056767369866254e-05
9.454727363681840870e+02 8.851374145506792719e-05
9.463731865932966230e+02 8.949988208866440449e-05
9.472736368184091589e+02 9.086723131451387157e-05
9.481740870435216948e+02 9.219687498761034382e-05
9.490745372686342307e+02 9.346250137491414099e-05
9.499749874937468803e+02 9.512214031333621471e-05
9.508754377188594162e+02 9.739467858105471958e-05
9.517758879439719522e+02 9.986651524774633343e-05
9.526763381690844881e+02 1.018701146336685231e-04
9.535767883941970240e+02 1.033658376284185684e-04
9.544772386193095599e+02 1.048734755100500199e-04
9.553776888444222095e+02 1.066534658321292015e-04
9.562781390695347454e+02 1.086567417549534235e-04
9.571785892946472813e+02 1.110529888567760785e-04
9.580790395197598173e+02 1.139272898681072550e-04
9.589794897448723532e+02 1.168014967393970609e-04
9.598799399699850028e+02 1.189619201000734986e-04
9.607803901950975387e+02 1.201810218774275024e-04
9.616808404202100746e+02 1.209659461857955716e-04
9.625812906453226105e+02 1.220198272401530181e-04
9.634817408704351465e+02 1.235291051705726521e-04
9.643821910955476824e+02 1.256430896963133545e-04
9.652826413206603320e+02 1.286377508280422315e-04
9.661830915457728679e+02 1.323706201389649004e-04
9.670835417708854038e+02 1.364435870469162405e-04
9.679839919959979397e+02 1.406054893508830027e-04
9.688844422211104757e+02 1.447600743355447893e-04
9.697848924462230116e+02 1.489727599845261938e-04
9.706853426713356612e+02 1.531672066527126346e-04
9.715857928964481971e+02 1.571133502575147354e-04
9.724862431215607330e+02 1.605036025064657441e-04
9.733866933466732689e+02 1.627692072646700803e-04
9.742871435717858049e+02 1.636019199430221581e-04
9.751875937968984545e+02 1.635897331336506660e-04
9.760880440220109904e+02 1.635002055450251904e-04
9.769884942471235263e+02 1.636331240499117512e-04
9.778889444722360622e+02 1.643332503450400408e-04
9.787893946973485981e+02 1.660002208306895328e-04
9.796898449224611340e+02 1.686198767549448559e-04
9.805902951475737837e+02 1.717045011577184954e-04
9.814907453726863196e+02 1.750221092685308748e-04
9.823911955977988555e+02 1.787673528066986554e-04
9.832916458229113914e+02 1.828922470991164334e-04
9.841920960480239273e+02 1.869045368527561771e-04
9.850925462731365769e+02 1.904244045406164917e-04
9.859929964982491128e+02 1.933971540307736960e-04
9.868934467233616488e+02 1.961853740619567629e-04
9.877938969484741847e+02 1.996673970416969895e-04
9.886943471735867206e+02 2.037786872381348348e-04
9.895947973986992565e+02 2.074319516164426012e-04
9.904952476238119061e+02 2.103730625122265149e-04
9.913956978489244420e+02 2.134216981650246961e-04
9.922961480740369780e+02 2.176932604306775973e-04
9.931965982991495139e+02 2.232680145079138226e-04
9.940970485242620498e+02 2.284572386604923544e-04
9.949974987493745857e+02 2.318465183066396212e-04
9.958979489744872353e+02 2.341285421187455434e-04
9.967983991995997712e+02 2.367716066657255089e-04
9.976988494247123072e+02 2.405880095972520239e-04
9.985992996498248431e+02 2.459986369206432189e-04
9.994997498749373790e+02 2.526830398407531124e-04
1.000400200100050029e+03 2.598062295092968882e-04
1.001300650325162565e+03 2.669570504131741902e-04
1.002201100550275100e+03 2.736979379205316514e-04
1.003101550775387636e+03 2.794060653970358238e-04
1.004002001000500172e+03 2.842334593610132583e-04
1.004902451225612708e+03 2.891906747837560401e-04
1.005802901450725358e+03 2.944886258400300038e-04
1.006703351675837894e+03 2.990699948612063341e-04
1.007603801900950430e+03 3.025544336399042214e-04
1.008504252126062966e+03 3.055770495061637814e-04
1.009404702351175501e+03 3.086114003014033295e-04
1.010305152576288151e+03 3.120088865079474662e-04
1.011205602801400687e+03 3.161932880026941078e-04
1.012106053026513223e+03 3.214662773045112915e-04
1.013006503251625759e+03 3.284362089849066752e-04
1.013906953476738295e+03 3.371897180015748620e-04
1.014807403701850831e+03 3.463153680795572650e-04
1.015707853926963480e+03 3.545547308130425493e-04
1.016608304152076016e+03 3.622345808461267997e-04
1.017508754377188552e+03 3.705390032236503210e-04
1.018409204602301088e+03 3.804847795810148664e-04
1.019309654827413624e+03 3.922235296099739065e-04
1.020210105052526160e+03 4.047855246657440184e-04
1.021110555277638809e+03 4.173704636015732787e-04
1.022011005502751345e+03 4.295808259234748386e-04
1.022911455727863881e+03 4.404749137610041430e-04
1.023811905952976417e+03 4.505460948669332303e-04
1.024712356178089067e+03 4.615804817537684512e-04
1.025612806403201603e+03 4.743871215421229881e-04
1.026513256628314139e+03 4.895114372380298361e-04
1.027413706853426675e+03 5.064449306619752105e-04
1.028314157078539210e+03 5.226510093089357370e-04
1.029214607303651746e+03 5.362575006398822512e-04
1.030115057528764282e+03 5.474586971182784836e-04
1.031015507753876818e+03 5.565252197498090497e-04
1.031915957978989354e+03 5.640040359036050700e-04
1.032816408204101890e+03 5.708064611962173750e-04
1.033716858429214653e+03 5.764803450352778925e-04
1.034617308654327189e+03 5.807497513715879738e-04
1.035517758879439725e+03 5.858199910962246307e-04
1.036418209104552261e+03 5.945532588683583334e-04
1.037318659329664797e+03 6.065307712166340473e-04
1.038219109554777333e+03 6.186218449317169030e-04
1.039119559779889869e+03 6.289928799282994793e-04
1.040020010005002405e+03 6.374186860005047212e-04
1.040920460230114941e+03 6.439688338513251988e-04
1.041820910455227477e+03 6.497920281958759203e-04
1.042721360680340013e+03 6.570303175143733711e-04
1.043621810905452776e+03 6.656207109439056481e-04
1.044522261130565312e+03 6.738297312188961177e-04
1.045422711355677848e+03 6.800862096390908025e-04
1.046323161580790384e+03 6.825761306074800772e-04
1.047223611805902920e+03 6.803518896424394068e-04
1.048124062031015455e+03 6.747782309518483672e-04
1.049024512256127991e+03 6.691084832185561701e-04
1.049924962481240527e+03 6.658795479340113947e-04
1.050825412706353063e+03 6.651988305571727165e-04
1.051725862931465599e+03 6.657324331801316728e-04
1.052626313156578135e+03 6.662170297954515688e-04
1.053526763381690898e+03 6.651870247980887392e-04
1.054427213606803434e+03 6.604748589417231731e-04
1.055327663831915970e+03 6.529019940179403353e-04
1.056228114057028506e+03 6.470515825867438706e-04
1.057128564282141042e+03 6.457674011763984154e-04
1.058029014507253578e+03 6.487303353125360153e-04
1.058929464732366114e+03 6.544668988404469829e-04
1.059829914957478650e+03 6.612412732664992932e-04
1.060730365182591186e+03 6.678058244312685271e-04
1.061630815407703722e+03 6.721817626724757317e-04
1.062531265632816257e+03 6.711893939124570019e-04
1.063431715857929021e+03 6.641526648127217937e-04
1.064332166083041557e+03 6.558219765587430588e-04
1.065232616308154093e+03 6.518135578865908754e-04
1.066133066533266629e+03 6.526471760272195078e-04
1.067033516758379164e+03 6.550114828133703866e-04
1.067933966983491700e+03 6.566991480238744709e-04
1.068834417208604236e+03 6.574869708591248507e-04
1.069734867433716772e+03 6.571479896697385911e-04
1.070635317658829308e+03 6.539122685747108480e-04
1.071535767883941844e+03 6.456930458887812996e-04
1.072436218109054380e+03 6.326279235764683141e-04
1.073336668334167143e+03 6.161232925446741369e-04
1.074237118559279679e+03 5.981027531537937668e-04
1.075137568784392215e+03 5.826137584124300257e-04
1.076038019009504751e+03 5.736404264064169471e-04
1.076938469234617287e+03 5.713326759147354479e-04
1.077838919459729823e+03 5.741462848076304840e-04
1.078739369684842359e+03 5.813610951243882580e-04
1.079639819909954895e+03 5.902682636908702669e-04
1.080540270135067431e+03 5.970804275616327416e-04
1.081440720360179967e+03 6.018631720061492401e-04
1.082341170585292502e+03 6.068421775813482959e-04
1.083241620810405038e+03 6.118160991369492449e-04
1.084142071035517802e+03 6.148651880318506445e-04
1.085042521260630338e+03 6.154061252404115570e-04
1.085942971485742873e+03 6.147257781048427044e-04
1.086843421710855409e+03 6.130865418478813333e-04
1.087743871935967945e+03 6.097483684659813765e-04
1.088644322161080481e+03 6.046906035595889847e-04
1.089544772386193017e+03 5.979656621187006858e-04
1.090445222611305553e+03 5.890211400066032183e-04
1.091345672836418089e+03 5.769747892263001532e-04
1.092246123061530625e+03 5.627682560545477393e-04
1.093146573286643161e+03 5.479997732457730442e-04
1.094047023511755924e+03 5.326387076018836543e-04
1.094947473736868460e+03 5.176384442526035150e-04
1.095847923961980996e+03 5.048179301831479159e-04
1.096748374187093532e+03 4.942975123882464026e-04
1.097648824412206068e+03 4.850802235624179651e-04
1.098549274637318604e+03 4.759089322516326997e-04
1.099449724862431140e+03 4.642570562654506697e-04
1.100350175087543676e+03 4.488188983438417775e-04
1.101250625312656211e+03 4.332162104285103852e-04
1.102151075537768747e+03 4.225024755275911007e-04
1.103051525762881283e+03 4.172884746039151214e-04
1.103951975987994047e+03 4.144705449377272203e-04
1.104852426213106583e+03 4.105098069109602865e-04
1.105752876438219118e+03 4.031628750069153264e-04
1.106653326663331654e+03 3.931851058330486479e-04
1.107553776888444190e+03 3.837059906434753731e-04
1.108454227113556726e+03 3.752589759723107851e-04
1.109354677338669262e+03 3.657216581400174775e-04
1.110255127563781798e+03 3.536396804392175509e-04
1.111155577788894334e+03 3.393811262590080047e-04
1.112056028014006870e+03 3.252175017820807166e-04
1.112956478239119406e+03 3.128745552046737800e-04
1.113856928464232169e+03 3.026105045536544766e-04
1.114757378689344705e+03 2.946794640070482811e-04
1.115657828914457241e+03 2.893407068905288777e-04
1.116558279139569777e+03 2.850483069000132549e-04
1.117458729364682313e+03 2.795009064611912275e-04
1.118359179589794849e+03 2.731207482475983355e-04
1.119259629814907385e+03 2.682036192148191836e-04
1.120160080040019920e+03 2.653810426349067532e-04
1.121060530265132456e+03 2.618025051199387131e-04
1.121960980490244992e+03 2.537548141527089240e-04
1.122861430715357528e+03 2.411898537185357767e-04
1.123761880940470292e+03 2.270975685316099172e-04
1.124662331165582827e+03 2.137351531013528024e-04
1.125562781390695363e+03 2.013036156666699690e-04
1.126463231615807899e+03 1.896250802039507548e-04
1.127363681840920435e+03 1.792416053046403822e-04
1.128264132066032971e+03 1.706492693652439082e-04
1.129164582291145507e+03 1.631789924206483884e-04
1.130065032516258043e+03 1.559488262807925041e-04
1.130965482741370579e+03 1.489092836473946010e-04
1.131865932966483115e+03 1.422137796908126478e-04
1.132766383191595651e+03 1.359638389285107115e-04
1.133666833416708187e+03 1.302361931436982916e-04
1.134567283641820950e+03 1.250431441825241034e-04
1.135467733866933486e+03 1.204702069175759725e-04
1.136368184092046022e+03 1.167114243049176861e-04
1.137268634317158558e+03 1.136394892536875316e-04
1.138169084542271094e+03 1.105665138102753984e-04
1.139069534767383630e+03 1.068453527235419545e-04
1.139969984992496165e+03 1.027415439247098493e-04
1.140870435217608701e+03 9.902414648572660375e-05
1.141770885442721237e+03 9.596657318940237746e-05
1.142671335667833773e+03 9.327654976813072488e-05
1.143571785892946309e+03 9.086592564039770996e-05
1.144472236118059072e+03 8.900537527095772009e-05
1.145372686343171608e+03 8.762134688507286484e-05
1.146273136568284144e+03 8.638643282720403235e-05
1.147173586793396680e+03 8.530535876933376452e-05
1.148074037018509216e+03 8.459317090146373816e-05
1.148974487243621752e+03 8.426760372266502500e-05
1.149874937468734288e+03 8.400283569645607357e-05
1.150775387693846824e+03 8.348881315085152793e-05
1.151675837918959360e+03 8.274288743786738828e-05
1.152576288144071896e+03 8.189715151825932983e-05
1.153476738369184432e+03 8.097285091546617744e-05
1.154377188594297195e+03 8.013131314862384860e-05
1.155277638819409731e+03 7.974978711149197661e-05
1.156178089044522267e+03 8.011808212442967389e-05
1.157078539269634803e+03 8.113120323055972034e-05
1.157978989494747339e+03 8.244651704530066099e-05
1.158879439719859874e+03 8.375801834253049068e-05
1.159779889944972410e+03 8.498921577489583056e-05
1.160680340170084946e+03 8.626047004032414507e-05
1.161580790395197482e+03 8.777265958586739577e-05
1.162481240620310018e+03 8.973607518559698851e-05
1.163381690845422554e+03 9.221597547294762675e-05
1.164282141070535317e+03 9.521647107351928127e-05
1.165182591295647853e+03 9.884930620802325396e-05
1.166083041520760389e+03 1.029371352764967852e-04
1.166983491745872925e+03 1.067142424777340807e-04
1.167883941970985461e+03 1.095041357317283340e-04
1.168784392196097997e+03 1.114117376592944274e-04
1.169684842421210533e+03 1.131258868361281322e-04
1.170585292646323069e+03 1.155187800950024983e-04
1.171485742871435605e+03 1.191694290078683166e-04
1.172386193096548141e+03 1.238392009834150148e-04
1.173286643321660677e+03 1.289508941690158388e-04
1.174187093546773440e+03 1.340581392638315284e-04
1.175087543771885976e+03 1.389650190650511144e-04
1.175987993996998512e+03 1.439414905586248322e-04
1.176888444222111048e+03 1.491682734090829228e-04
1.177788894447223583e+03 1.539964302130985381e-04
1.178689344672336119e+03 1.571641139800390317e-04
1.179589794897448655e+03 1.585472899659395093e-04
1.180490245122561191e+03 1.596222950368302506e-04
1.181390695347673727e+03 1.612287788591846346e-04
1.182291145572786263e+03 1.627814825199418614e-04
1.183191595797898799e+03 1.640507207798383785e-04
1.184092046023011562e+03 1.657345530104256291e-04
1.184992496248124098e+03 1.683119748112692302e-04
1.185892946473236634e+03 1.717392754532501243e-04
1.186793396698349170e+03 1.759151476403043456e-04
1.187693846923461706e+03 1.806076435052958169e-04
1.188594297148574242e+03 1.853656843664559187e-04
1.189494747373686778e+03 1.900930669375157898e-04
1.190395197598799314e+03 1.946382427437279121e-04
1.191295647823911850e+03 1.984317556488049742e-04
1.192196098049024386e+03 2.011333898519290461e-04
1.193096548274136921e+03 2.030183804489726050e-04
1.193996998499249457e+03 2.046244488660346576e-04
1.194897448724362221e+03 2.066870609677112346e-04
1.195797898949474757e+03 2.102444442208336217e-04
1.196698349174587293e+03 2.158535086674578810e-04
1.197598799399699828e+03 2.230430541217845268e-04
1.198499249624812364e+03 2.308780039666153739e-04
1.199399699849924900e+03 2.382556466031892739e-04
1.200300150075037436e+03 2.438344522051365466e-04
1.201200600300149972e+03 2.473454819011475106e-04
1.202101050525262508e+03 2.500952518219184441e-04
1.203001500750375044e+03 2.532002166904008945e-04
1.203901950975487580e+03 2.571042960441474452e-04
1.204802401200600343e+03 2.619321216499073094e-04
1.205702851425712879e+03 2.672474649764239253e-04
1.206603301650825415e+03 2.724048478830133819e-04
1.207503751875937951e+03 2.767940264840193705e-04
1.208404202101050487e+03 2.793354113037028693e-04
1.209304652326163023e+03 2.797040299864567083e-04
1.210205102551275559e+03 2.792379529527617282e-04
1.211105552776388095e+03 2.793381136576920509e-04
1.212006003001500630e+03 2.806566409849428623e-04
1.212906453226613166e+03 2.835132379004247230e-04
1.213806903451725702e+03 2.880202818553754618e-04
1.214707353676838466e+03 2.939767296772494956e-04
1.215607803901951002e+03 3.005564726492842946e-04
1.216508254127063537e+03 3.063921296058369167e-04
1.217408704352176073e+03 3.109643947081253417e-04
1.218309154577288609e+03 3.163607084668442859e-04
1.219209604802401145e+03 3.249774270165824695e-04
1.220110055027513681e+03 3.369088183593054180e-04
1.221010505252626217e+03 3.514320391786802033e-04
1.221910955477738753e+03 3.684042687274600623e-04
1.222811405702851289e+03 3.866458133701821558e-04
1.223711855927963825e+03 4.020945885841209792e-04
1.224612306153076588e+03 4.118868946473149776e-04
1.225512756378189124e+03 4.175333377630894584e-04
1.226413206603301660e+03 4.212827627499956878e-04
1.227313656828414196e+03 4.248022402998143381e-04
1.228214107053526732e+03 4.307643090825372177e-04
1.229114557278639268e+03 4.422734553432509236e-04
1.230015007503751804e+03 4.614168352652573790e-04
1.230915457728864340e+03 4.877605985915212453e-04
1.231815907953976875e+03 5.185904769086145758e-04
1.232716358179089411e+03 5.510857922681381251e-04
1.233616808404201947e+03 5.829260031078176011e-04
1.234517258629314711e+03 6.106110548664029237e-04
1.235417708854427246e+03 6.308628340736595775e-04
1.236318159079539782e+03 6.441361992104908908e-04
1.237218609304652318e+03 6.525686021674945419e-04
1.238119059529764854e+03 6.572250361177823727e-04
1.239019509754877390e+03 6.594188320806881453e-04
1.239919959979989926e+03 6.614380892661202984e-04
1.240820410205102462e+03 6.652066371928262809e-04
1.241720860430214998e+03 6.715694164024450840e-04
1.242621310655327534e+03 6.809946343026789363e-04
1.243521760880440070e+03 6.938985363453824707e-04
1.244422211105552606e+03 7.087196224973071890e-04
1.245322661330665369e+03 7.224925299426109872e-04
1.246223111555777905e+03 7.341634741860888569e-04
1.247123561780890441e+03 7.451041474402206365e-04
1.248024012006002977e+03 7.567178270652576014e-04
1.248924462231115513e+03 7.674910288739264985e-04
1.249824912456228049e+03 7.738712611839492286e-04
1.250725362681340584e+03 7.755765497725685504e-04
1.251625812906453120e+03 7.761191234700499670e-04
1.252526263131565656e+03 7.782333141714688164e-04
1.253426713356678192e+03 7.820128288205677397e-04
1.254327163581790728e+03 7.861952067640777054e-04
1.255227613806903491e+03 7.900785219230762029e-04
1.256128064032016027e+03 7.938539725028566363e-04
1.257028514257128563e+03 7.979498674723306756e-04
1.257928964482241099e+03 8.029399427493841106e-04
1.258829414707353635e+03 8.094749163389997103e-04
1.259729864932466171e+03 8.183535284982492494e-04
1.260630315157578707e+03 8.302645169550831698e-04
1.261530765382691243e+03 8.442479752714426074e-04
1.262431215607803779e+03 8.571055863225853595e-04
1.263331665832916315e+03 8.666765298332448041e-04
1.264232116058028851e+03 8.749990115698259375e-04
1.265132566283141614e+03 8.851551945608538557e-04
1.266033016508254150e+03 8.979513298087598606e-04
1.266933466733366686e+03 9.135560097420789352e-04
1.267833916958479222e+03 9.328269478158523770e-04
1.268734367183591758e+03 9.563453118484574770e-04
1.269634817408704293e+03 9.822976705213455097e-04
1.270535267633816829e+03 1.008084184399488537e-03
1.271435717858929365e+03 1.032673074291419815e-03
1.272336168084041901e+03 1.056597049217311264e-03
1.273236618309154437e+03 1.081987403454431505e-03
1.274137068534266973e+03 1.110019793064422793e-03
1.275037518759379736e+03 1.139708197897476094e-03
1.275937968984492272e+03 1.168219897030725813e-03
1.276838419209604808e+03 1.192194623983516485e-03
1.277738869434717344e+03 1.211781215991187275e-03
1.278639319659829880e+03 1.230889857987072867e-03
1.279539769884942416e+03 1.251923190805413408e-03
1.280440220110054952e+03 1.275542380249397459e-03
1.281340670335167488e+03 1.303009594933261231e-03
1.282241120560280024e+03 1.333846081128413959e-03
1.283141570785392560e+03 1.364413649474423328e-03
1.284042021010505096e+03 1.390261073344417403e-03
1.284942471235617859e+03 1.409370075137117949e-03
1.285842921460730395e+03 1.422546987368428781e-03
1.286743371685842931e+03 1.431611224908203557e-03
1.287643821910955467e+03 1.438259851701006054e-03
1.288544272136068003e+03 1.444363650604179195e-03
1.289444722361180538e+03 1.450915160171734053e-03
1.290345172586293074e+03 1.457224487433138793e-03
1.291245622811405610e+03 1.462691769373975674e-03
1.292146073036518146e+03 1.467253104933089738e-03
1.293046523261630682e+03 1.470323712961139071e-03
1.293946973486743218e+03 1.473156489958979409e-03
1.294847423711855754e+03 1.478128449248463944e-03
1.295747873936968517e+03 1.485092939056727266e-03
1.296648324162081053e+03 1.493194338886011472e-03
1.297548774387193589e+03 1.503717437833376226e-03
1.298449224612306125e+03 1.517963345597837235e-03
1.299349674837418661e+03 1.535476623710086428e-03
1.300250125062531197e+03 1.555958779991611744e-03
1.301150575287643733e+03 1.580541373809894257e-03
1.302051025512756269e+03 1.609603515354924783e-03
1.302951475737868805e+03 1.641752677579635424e-03
1.303851925962981340e+03 1.674902751476007538e-03
1.304752376188093876e+03 1.707133866241163436e-03
1.305652826413206640e+03 1.736100197624766998e-03
1.306553276638319176e+03 1.761496297039376368e-03
1.307453726863431712e+03 1.787218602601733193e-03
1.308354177088544247e+03 1.817739324848800060e-03
1.309254627313656783e+03 1.854439956070366800e-03
1.310155077538769319e+03 1.896919178832412803e-03
1.311055527763881855e+03 1.942900637110963171e-03
1.311955977988994391e+03 1.986216390984160696e-03
1.312856428214106927e+03 2.020691626042019247e-03
1.313756878439219463e+03 2.046189346429350391e-03
1.314657328664331999e+03 2.067587932354989725e-03
1.315557778889444762e+03 2.090641623327416879e-03
1.316458229114557298e+03 2.119418540348625736e-03
1.317358679339669834e+03 2.155160105448963945e-03
1.318259129564782370e+03 2.196451644438794735e-03
1.319159579789894906e+03 2.241766669256595526e-03
1.320060030015007442e+03 2.291958920192599825e-03
1.320960480240119978e+03 2.350499665016238509e-03
1.321860930465232514e+03 2.417216142136868057e-03
1.322761380690345050e+03 2.483808951244103995e-03
1.323661830915457585e+03 2.541777731259061823e-03
1.324562281140570121e+03 2.587216588767161582e-03
1.325462731365682885e+03 2.622921031339477300e-03
1.326363181590795421e+03 2.657897063990946433e-03
1.327263631815907956e+03 2.698249629996296670e-03
1.328164082041020492e+03 2.745096488271422681e-03
1.329064532266133028e+03 2.799796917453158378e-03
1.329964982491245564e+03 2.866971299838042692e-03
1.330865432716358100e+03 2.951770880140720549e-03
1.331765882941470636e+03 3.050929427301468481e-03
1.332666333166583172e+03 3.149414082855442679e-03
1.333566783391695708e+03 3.228226716440198672e-03
1.334467233616808244e+03 3.280479523722023855e-03
1.335367683841921007e+03 3.322704850677491665e-03
1.336268134067033543e+03 3.378055599889440673e-03
1.337168584292146079e+03 3.456452997877461266e-03
1.338069034517258615e+03 3.554363620093000872e-03
1.338969484742371151e+03 3.664234829512936359e-03
1.339869934967483687e+03 3.784172555583903679e-03
1.340770385192596223e+03 3.913721766350486755e-03
1.341670835417708759e+03 4.041725086578575390e-03
1.342571285642821294e+03 4.157416543701558317e-03
1.343471735867933830e+03 4.266472536824844446e-03
1.344372186093046366e+03 4.381279996556891772e-03
1.345272636318158902e+03 4.504240800049180184e-03
1.346173086543271666e+03 4.632839827141388943e-03
1.347073536768384201e+03 4.771962836701453166e-03
1.347973986993496737e+03 4.927806602870541536e-03
1.348874437218609273e+03 5.099414175830284390e-03
1.349774887443721809e+03 5.282284203617819592e-03
1.350675337668834345e+03 5.474919279895682986e-03
1.351575787893946881e+03 5.680241387892580839e-03
1.352476238119059417e+03 5.897336174887825994e-03
1.353376688344171953e+03 6.122831882057824804e-03
1.354277138569284489e+03 6.357153291295719252e-03
1.355177588794397025e+03 6.607521336864766864e-03
1.356078039019509788e+03 6.884009159624064796e-03
1.356978489244622324e+03 7.180818459634180813e-03
1.357878939469734860e+03 7.482936860837792470e-03
1.358779389694847396e+03 7.788453573931994681e-03
1.359679839919959932e+03 8.103435125227648542e-03
1.360580290145072468e+03 8.421577222958128925e-03
1.361480740370185003e+03 8.717446100975080950e-03
1.362381190595297539e+03 8.969570193062685257e-03
1.363281640820410075e+03 9.185844366747243986e-03
1.364182091045522611e+03 9.398281955472086516e-03
1.365082541270635147e+03 9.639436188538042308e-03
1.365982991495747910e+03 9.928165842891467641e-03
1.366883441720860446e+03 1.026017566856227831e-02
1.367783891945972982e+03 1.061133317280866552e-02
1.368684342171085518e+03 1.095172562637779755e-02
1.369584792396198054e+03 1.127436039172397854e-02
1.370485242621310590e+03 1.161017803059392374e-02
1.371385692846423126e+03 1.198127419873386452e-02
1.372286143071535662e+03 1.237752195670927674e-02
1.373186593296648198e+03 1.278162672477328211e-02
1.374087043521760734e+03 1.318272196658445104e-02
1.374987493746873270e+03 1.358759309190614439e-02
1.375887943971986033e+03 1.400076773581646582e-02
1.376788394197098569e+03 1.439196668693165822e-02
1.377688844422211105e+03 1.473343778674296965e-02
1.378589294647323641e+03 1.505043029443752130e-02
1.379489744872436177e+03 1.539084776858210511e-02
1.380390195097548713e+03 1.578198090574961174e-02
1.381290645322661248e+03 1.626221570815637035e-02
1.382191095547773784e+03 1.686148242570692166e-02
1.383091545772886320e+03 1.757080730303667293e-02
1.383991995997998856e+03 1.836045678033010331e-02
1.384892446223111392e+03 1.919889890632358459e-02
1.385792896448224155e+03 2.008785129163555630e-02
1.386693346673336691e+03 2.106895744405404280e-02
1.387593796898449227e+03 2.213467846185692214e-02
1.388494247123561763e+03 2.322893898279027383e-02
1.389394697348674299e+03 2.435727247775491822e-02
1.390295147573786835e+03 2.556389881677745973e-02
1.391195597798899371e+03 2.685271456735472545e-02
1.392096048024011907e+03 2.818302932770134009e-02
1.392996498249124443e+03 2.953752827014139576e-02
1.393896948474236979e+03 3.094392047542248933e-02
1.394797398699349515e+03 3.239576535679189462e-02
1.395697848924462278e+03 3.376889072507358036e-02
1.396598299149574814e+03 3.486922197063391932e-02
1.397498749374687350e+03 3.563346925357400996e-02
1.398399199599799886e+03 3.619809023790460101e-02
1.399299649824912422e+03 3.664177417975484491e-02
1.400200100050024957e+03 3.682953925033875808e-02
1.401100550275137493e+03 3.667219470646972124e-02
1.402001000500250029e+03 3.620326187519819910e-02
1.402901450725362565e+03 3.544633944105427675e-02
1.403801900950475101e+03 3.445495272416401050e-02
1.404702351175587637e+03 3.341422668044288780e-02
1.405602801400700173e+03 3.247752909462927468e-02
1.406503251625812936e+03 3.157817784670510775e-02
1.407403701850925472e+03 3.055322595081048573e-02
1.408304152076038008e+03 2.933871624690828975e-02
1.409204602301150544e+03 2.791767997657868330e-02
1.410105052526263080e+03 2.628263734076813699e-02
1.411005502751375616e+03 2.451754506207207140e-02
1.411905952976488152e+03 2.276678014535259489e-02
1.412806403201600688e+03 2.113025210667175344e-02
1.413706853426713224e+03 1.962596986973807328e-02
1.414607303651825760e+03 1.823169537911688981e-02
1.415507753876938295e+03 1.692224834319791191e-02
1.416408204102051059e+03 1.567708110556893103e-02
1.417308654327163595e+03 1.449613866465937831e-02
1.418209104552276131e+03 1.338317754518582661e-02
1.419109554777388666e+03 1.234191323925022503e-02
1.420010005002501202e+03 1.138426592385633623e-02
1.420910455227613738e+03 1.050691735025017885e-02
1.421810905452726274e+03 9.702501585727444505e-03
1.422711355677838810e+03 8.987901295708809399e-03
1.423611805902951346e+03 8.376494258260988937e-03
1.424512256128063882e+03 7.847316737384363652e-03
1.425412706353176418e+03 7.378889873985636054e-03
1.426313156578289181e+03 6.978555180051591693e-03
1.427213606803401717e+03 6.650776957669374094e-03
1.428114057028514253e+03 6.370877236290890117e-03
1.429014507253626789e+03 6.102907891197955140e-03
1.429914957478739325e+03 5.823004299234347050e-03
1.430815407703851861e+03 5.535292749863449796e-03
1.431715857928964397e+03 5.268351924082111289e-03
1.432616308154076933e+03 5.036669365993730677e-03
1.433516758379189469e+03 4.824537478855243054e-03
1.434417208604302004e+03 4.621548382627106710e-03
1.435317658829414540e+03 4.436186180164471832e-03
1.436218109054527304e+03 4.272746755961885114e-03
1.437118559279639840e+03 4.128658026958195552e-03
1.438019009504752376e+03 3.995809982029968101e-03
1.438919459729864911e+03 3.857270643159151687e-03
1.439819909954977447e+03 3.705287205304917848e-03
1.440720360180089983e+03 3.553061974112346061e-03
1.441620810405202519e+03 3.416859120043590475e-03
1.442521260630315055e+03 3.298421159059372176e-03
1.443421710855427591e+03 3.192706682211040713e-03
1.444322161080540127e+03 3.103729052560477621e-03
1.445222611305652663e+03 3.031349280488751172e-03
1.446123061530765426e+03 2.965780950035794717e-03
1.447023511755877962e+03 2.901949075608974832e-03
1.447923961980990498e+03 2.838210149752811145e-03
1.448824412206103034e+03 2.766896226256029562e-03
1.449724862431215570e+03 2.684137202354315230e-03
1.450625312656328106e+03 2.596080632609181361e-03
1.451525762881440642e+03 2.511162706082945093e-03
1.452426213106553178e+03 2.433317146180905000e-03
1.453326663331665713e+03 2.360127127064646623e-03
1.454227113556778249e+03 2.287438434624264674e-03
1.455127563781890785e+03 2.215803677336382425e-03
1.456028014007003321e+03 2.150302482534996971e-03
1.456928464232116085e+03 2.095581009443526262e-03
1.457828914457228620e+03 2.051488539167534587e-03
1.458729364682341156e+03 2.013587745794462053e-03
1.459629814907453692e+03 1.974994567228536158e-03
1.460530265132566228e+03 1.932774758279638900e-03
1.461430715357678764e+03 1.892924312610092799e-03
1.462331165582791300e+03 1.861979293088168686e-03
1.463231615807903836e+03 1.839742123068118093e-03
1.464132066033016372e+03 1.822303782983906604e-03
1.465032516258128908e+03 1.804177829750440573e-03
1.465932966483241444e+03 1.780313934708056345e-03
1.466833416708354207e+03 1.749178232611944134e-03
1.467733866933466743e+03 1.712170284632144081e-03
1.468634317158579279e+03 1.671461765808209335e-03
1.469534767383691815e+03 1.627176503285592815e-03
1.470435217608804351e+03 1.576975446432557796e-03
1.471335667833916887e+03 1.522562674507033651e-03
1.472236118059029423e+03 1.471567428720388631e-03
1.473136568284141958e+03 1.430497476648960944e-03
1.474037018509254494e+03 1.400057519652567412e-03
1.474937468734367030e+03 1.377915092909322986e-03
1.475837918959479566e+03 1.360416100314692459e-03
1.476738369184592329e+03 1.340710844389393424e-03
1.477638819409704865e+03 1.314644253724335391e-03
1.478539269634817401e+03 1.284791468126233278e-03
1.479439719859929937e+03 1.256343848643089872e-03
1.480340170085042473e+03 1.232832965045186019e-03
1.481240620310155009e+03 1.215883191292886981e-03
1.482141070535267545e+03 1.203824753806512042e-03
1.483041520760380081e+03 1.191154064503222466e-03
1.483941970985492617e+03 1.173684987087931716e-03
1.484842421210605153e+03 1.152463324756093166e-03
1.485742871435717689e+03 1.132870045889525050e-03
1.486643321660830452e+03 1.118418717683414363e-03
1.487543771885942988e+03 1.107670005399682489e-03
1.488444222111055524e+03 1.098334979850614347e-03
1.489344672336168060e+03 1.087222249164839687e-03
1.490245122561280596e+03 1.069248323950969422e-03
1.491145572786393132e+03 1.042731320283456740e-03
1.492046023011505667e+03 1.012569121584655160e-03
1.492946473236618203e+03 9.860028541644448325e-04
1.493846923461730739e+03 9.652926117124646177e-04
1.494747373686843275e+03 9.469879188823401633e-04
1.495647823911955811e+03 9.286753143231572458e-04
1.496548274137068574e+03 9.123683085638519766e-04
1.497448724362181110e+03 9.007816758125571956e-04
1.498349174587293646e+03 8.921838581495551658e-04
1.499249624812406182e+03 8.825054416675397889e-04
1.500150075037518718e+03 8.713132525506547300e-04
1.501050525262631254e+03 8.629148978602425336e-04
1.501950975487743790e+03 8.606402068700150145e-04
1.502851425712856326e+03 8.620731554399265395e-04
1.503751875937968862e+03 8.608676705708348314e-04
1.504652326163081398e+03 8.525082130239074098e-04
1.505552776388193934e+03 8.376511637735559353e-04
1.506453226613306470e+03 8.204486472579978389e-04
1.507353676838419233e+03 8.038487172075717800e-04
1.508254127063531769e+03 7.875763599590503150e-04
1.509154577288644305e+03 7.730985682679205164e-04
1.510055027513756841e+03 7.637752140964106963e-04
1.510955477738869376e+03 7.603188273284875722e-04
1.511855927963981912e+03 7.606117270545914577e-04
1.512756378189094448e+03 7.616277213186457276e-04
1.513656828414206984e+03 7.606745365494536589e-04
1.514557278639319520e+03 7.563813826550907539e-04
1.515457728864432056e+03 7.470385106737686791e-04
1.516358179089544592e+03 7.303963530395011887e-04
1.517258629314657355e+03 7.085846395387068817e-04
1.518159079539769891e+03 6.871265883575504311e-04
1.519059529764882427e+03 6.698009912691081560e-04
1.519959979989994963e+03 6.575679879233549538e-04
1.520860430215107499e+03 6.490613823382847692e-04
1.521760880440220035e+03 6.421869128491704878e-04
1.522661330665332571e+03 6.351021345175211644e-04
1.523561780890445107e+03 6.261905009098926592e-04
1.524462231115557643e+03 6.150656832389549220e-04
1.525362681340670179e+03 6.023919967913004062e-04
1.526263131565782714e+03 5.901514288140946064e-04
1.527163581790895478e+03 5.811103643493345820e-04
1.528064032016008014e+03 5.754004481473931100e-04
1.528964482241120550e+03 5.709063296724379340e-04
1.529864932466233086e+03 5.667308047729874981e-04
1.530765382691345621e+03 5.641550314509681269e-04
1.531665832916458157e+03 5.642871966827485517e-04
1.532566283141570693e+03 5.660334064317605000e-04
1.533466733366683229e+03 5.661405113421421557e-04
1.534367183591795765e+03 5.618803497707055162e-04
1.535267633816908301e+03 5.534884807672480443e-04
1.536168084042020837e+03 5.423501728744092691e-04
1.537068534267133600e+03 5.302270205426804894e-04
1.537968984492246136e+03 5.194343871697461746e-04
1.538869434717358672e+03 5.114312326304441131e-04
1.539769884942471208e+03 5.058523278680783844e-04
1.540670335167583744e+03 5.002674755293782301e-04
1.541570785392696280e+03 4.926319581369240693e-04
1.542471235617808816e+03 4.834486267765908982e-04
1.543371685842921352e+03 4.744210285430634105e-04
1.544272136068033888e+03 4.669470087127338223e-04
1.545172586293146423e+03 4.612383591593537785e-04
1.546073036518258959e+03 4.570380458176892665e-04
1.546973486743371723e+03 4.542193312899786952e-04
1.547873936968484259e+03 4.517902866565347004e-04
1.548774387193596795e+03 4.481484194806208588e-04
1.549674837418709330e+03 4.433182293288608598e-04
1.550575287643821866e+03 4.382496179408731517e-04
1.551475737868934402e+03 4.323347043363708411e-04
1.552376188094046938e+03 4.238827191666734700e-04
1.553276638319159474e+03 4.134447108777772784e-04
1.554177088544272010e+03 4.042070669380524463e-04
1.555077538769384546e+03 3.987473754129504779e-04
1.555977988994497082e+03 3.970164317664519457e-04
1.556878439219609618e+03 3.974523689895923147e-04
1.557778889444722381e+03 3.983580150336366857e-04
1.558679339669834917e+03 3.980999770351654034e-04
1.559579789894947453e+03 3.949728339192871388e-04
1.560480240120059989e+03 3.878036194406290940e-04
1.561380690345172525e+03 3.775812634094701144e-04
1.562281140570285061e+03 3.667122378614100339e-04
1.563181590795397597e+03 3.569371745472998871e-04
1.564082041020510133e+03 3.491569183076950657e-04
1.564982491245622668e+03 3.436226064368121417e-04
1.565882941470735204e+03 3.394212573624051654e-04
1.566783391695847740e+03 3.353163827579866006e-04
1.567683841920960504e+03 3.310008184523097999e-04
1.568584292146073039e+03 3.268354647504660682e-04
1.569484742371185575e+03 3.221219137261932064e-04
1.570385192596298111e+03 3.144055270778532284e-04
1.571285642821410647e+03 3.024255462037290479e-04
1.572186093046523183e+03 2.873634918457499527e-04
1.573086543271635719e+03 2.707817983459403490e-04
1.573986993496748255e+03 2.537777806832457032e-04
1.574887443721860791e+03 2.363030844503263611e-04
1.575787893946973327e+03 2.171216175724304746e-04
1.576688344172085863e+03 1.961230358342707237e-04
1.577588794397198626e+03 1.748056664155393065e-04
1.578489244622311162e+03 1.547871926379065560e-04
1.579389694847423698e+03 1.371566564995329446e-04
1.580290145072536234e+03 1.224893678286572752e-04
1.581190595297648770e+03 1.108324772552253420e-04
1.582091045522761306e+03 1.017538468176685450e-04
1.582991495747873842e+03 9.464899853255851045e-05
1.583891945972986377e+03 8.898552275832571142e-05
1.584792396198098913e+03 8.436889293313420144e-05
1.585692846423211449e+03 8.052316666861500003e-05
1.586593296648323985e+03 7.725691192541883883e-05
1.587493746873436749e+03 7.443573265443050664e-05
1.588394197098549284e+03 7.196345859434475180e-05
1.589294647323661820e+03 6.976983038821640208e-05
1.590195097548774356e+03 6.780247214965946995e-05
1.591095547773886892e+03 6.602159936781897736e-05
1.591995997998999428e+03 6.439646929923762547e-05
1.592896448224111964e+03 6.290295417901065370e-05
1.593796898449224500e+03 6.152185008561420192e-05
1.594697348674337036e+03 6.023767671360882761e-05
1.595597798899449572e+03 5.903781082960188992e-05
1.596498249124562108e+03 5.791185061514722912e-05
1.597398699349674871e+03 5.685114248102986515e-05
1.598299149574787407e+03 5.584842402623547449e-05
1.599199599799899943e+03 5.489755125170128194e-05
1.600100050025012479e+03 5.399328773374881745e-05
1.601000500250125015e+03 5.313113994177052319e-05
1.601900950475237551e+03 5.230722732771577344e-05
1.602801400700350086e+03 5.151817890531211811e-05
1.603701850925462622e+03 5.076105021565341689e-05
1.604602301150575158e+03 5.003325613130067830e-05
1.605502751375687694e+03 4.933251607486645665e-05
1.606403201600800230e+03 4.865680904905260229e-05
1.607303651825912766e+03 4.800433648122574544e-05
1.608204102051025529e+03 4.737349133745288979e-05
1.609104552276138065e+03 4.676283230091934375e-05
1.610005002501250601e+03 4.617106206769069747e-05
1.610905452726363137e+03 4.559700901028020369e-05
1.611805902951475673e+03 4.503961161175678473e-05
1.612706353176588209e+03 4.449790519147086936e-05
1.613606803401700745e+03 4.397101053601770612e-05
1.614507253626813281e+03 4.345812412196062389e-05
1.615407703851925817e+03 4.295850967458364949e-05
1.616308154077038353e+03 4.247149085298412027e-05
1.617208604302150889e+03 4.199644488872215079e-05
1.618109054527263652e+03 4.153279703498177799e-05
1.619009504752376188e+03 4.108001570730470574e-05
1.619909954977488724e+03 4.063760821654986889e-05
1.620810405202601260e+03 4.020511701080418189e-05
1.621710855427713796e+03 3.978211635612020019e-05
1.622611305652826331e+03 3.936820939684654850e-05
1.623511755877938867e+03 3.896302554531981267e-05
1.624412206103051403e+03 3.856621815817693773e-05
1.625312656328163939e+03 3.817746246280695173e-05
1.626213106553276475e+03 3.779645370269549168e-05
1.627113556778389011e+03 3.742290547482383164e-05
1.628014007003501774e+03 3.705654823600609111e-05
1.628914457228614310e+03 3.669712795818779876e-05
1.629814907453726846e+03 3.634440491540237182e-05
1.630715357678839382e+03 3.599815258735949221e-05
1.631615807903951918e+03 3.565815666657634191e-05
1.632516258129064454e+03 3.532421415763435749e-05
1.633416708354176990e+03 3.499613255856040290e-05
1.634317158579289526e+03 3.467372911557431079e-05
1.635217608804402062e+03 3.435683014349540250e-05
1.636118059029514598e+03 3.404527040502853153e-05
1.637018509254627133e+03 3.373889254293661438e-05
1.637918959479739897e+03 3.343754655980720424e-05
1.638819409704852433e+03 3.314108934071992134e-05
1.639719859929964969e+03 3.284938421464773776e-05
1.640620310155077505e+03 3.256230055089107063e-05
1.641520760380190040e+03 3.227971338723680314e-05
1.642421210605302576e+03 3.200150308690225665e-05
1.643321660830415112e+03 3.172755502162566714e-05
1.644222111055527648e+03 3.145775927854516189e-05
1.645122561280640184e+03 3.119201038875196079e-05
1.646023011505752720e+03 3.093020707561392976e-05
1.646923461730865256e+03 3.067225202116230140e-05
1.647823911955978019e+03 3.041805164899889931e-05
1.648724362181090555e+03 3.016751592233414555e-05
1.649624812406203091e+03 2.992055815589938998e-05
1.650525262631315627e+03 2.967709484059717170e-05
1.651425712856428163e+03 2.943704547986030837e-05
1.652326163081540699e+03 2.920033243678346238e-05
1.653226613306653235e+03 2.896688079118073047e-05
1.654127063531765771e+03 2.873661820579710813e-05
1.655027513756878307e+03 2.850947480097002596e-05
1.655927963981990843e+03 2.828538303710103455e-05
1.656828414207103378e+03 2.806427760435466247e-05
1.657728864432216142e+03 2.784609531904552098e-05
1.658629314657328678e+03 2.763077502623208326e-05
1.659529764882441214e+03 2.741825750806219016e-05
1.660430215107553749e+03 2.720848539746550888e-05
1.661330665332666285e+03 2.700140309681392810e-05
1.662231115557778821e+03 2.679695670120575002e-05
1.663131565782891357e+03 2.659509392605401943e-05
1.664032016008003893e+03 2.639576403868726810e-05
1.664932466233116429e+03 2.619891779369479536e-05
1.665832916458228965e+03 2.600450737176423162e-05
1.666733366683341501e+03 2.581248632178607412e-05
1.667633816908454037e+03 2.562280950600992309e-05
1.668534267133566800e+03 2.543543304805912888e-05
1.669434717358679336e+03 2.525031428362176170e-05
1.670335167583791872e+03 2.506741171364754858e-05
1.671235617808904408e+03 2.488668495989994144e-05
1.672136068034016944e+03 2.470809472271485508e-05
1.673036518259129480e+03 2.453160274083404294e-05
1.673936968484242016e+03 2.435717175318791918e-05
1.674837418709354552e+03 2.418476546251140076e-05
1.675737868934467087e+03 2.401434850068751372e-05
1.676638319159579623e+03 2.384588639571508017e-05
1.677538769384692159e+03 2.367934554020842351e-05
1.678439219609804923e+03 2.351469316134350787e-05
1.679339669834917459e+03 2.335189729216651980e-05
1.680240120060029994e+03 2.319092674418894403e-05
1.681140570285142530e+03 2.303175108120135686e-05
1.682041020510255066e+03 2.287434059423482059e-05
1.682941470735367602e+03 2.271866627761171133e-05
1.683841920960480138e+03 2.256469980602542080e-05
1.684742371185592674e+03 2.241241351259471180e-05
1.685642821410705210e+03 2.226178036784292873e-05
1.686543271635817746e+03 2.211277395955125110e-05
1.687443721860930282e+03 2.196536847344497700e-05
1.688344172086043045e+03 2.181953867466619856e-05
1.689244622311155581e+03 2.167525988999660996e-05
1.690145072536268117e+03 2.153250799079074217e-05
1.691045522761380653e+03 2.139125937658516730e-05
1.691945972986493189e+03 2.125149095935131250e-05
1.692846423211605725e+03 2.111318014835948599e-05
1.693746873436718261e+03 2.097630483562505874e-05
1.694647323661830796e+03 2.084084338191003540e-05
1.695547773886943332e+03 2.070677460325122572e-05
1.696448224112055868e+03 2.057407775799418944e-05
1.697348674337168404e+03 2.044273253430560231e-05
1.698249124562281168e+03 2.031271903814472422e-05
1.699149574787393703e+03 2.018401778167261724e-05
1.700050025012506239e+03 2.005660967207823609e-05
1.700950475237618775e+03 1.993047600080329491e-05
1.701850925462731311e+03 1.980559843314952194e-05
1.702751375687843847e+03 1.968195899824958959e-05
1.703651825912956383e+03 1.955954007938619864e-05
1.704552276138068919e+03 1.943832440464680442e-05
1.705452726363181455e+03 1.931829503789486561e-05
1.706353176588293991e+03 1.919943537004956892e-05
1.707253626813406527e+03 1.908172911065630963e-05
1.708154077038519290e+03 1.896516027973944762e-05
1.709054527263631826e+03 1.884971319992322721e-05
1.709954977488744362e+03 1.873537248881084892e-05
1.710855427713856898e+03 1.862212305161184392e-05
1.711755877938969434e+03 1.850995007400599760e-05
1.712656328164081970e+03 1.839883901523586363e-05
1.713556778389194506e+03 1.828877560141899843e-05
1.714457228614307041e+03 1.817974581906808796e-05
1.715357678839419577e+03 1.807173590881700514e-05
1.716258129064532113e+03 1.796473235933786312e-05
1.717158579289644649e+03 1.785872190144717023e-05
1.718059029514757185e+03 1.775369150238981794e-05
1.718959479739869948e+03 1.764962836029789972e-05
1.719859929964982484e+03 1.754651989881524679e-05
1.720760380190095020e+03 1.744435376188125698e-05
1.721660830415207556e+03 1.734311780867017779e-05
1.722561280640320092e+03 1.724280010867958244e-05
1.723461730865432628e+03 1.714338893696062911e-05
1.724362181090545164e+03 1.704487276948703025e-05
1.725262631315657700e+03 1.694724027865698578e-05
1.726163081540770236e+03 1.685048032892433621e-05
1.727063531765882772e+03 1.675458197255273209e-05
1.727963981990995308e+03 1.665953444548905207e-05
1.728864432216108071e+03 1.656532716335318986e-05
1.729764882441220607e+03 1.647194971753795193e-05
1.730665332666333143e+03 1.637939187141803287e-05
1.731565782891445679e+03 1.628764355666105474e-05
1.732466233116558215e+03 1.619669486964027749e-05
1.733366683341670750e+03 1.610653606794386103e-05
1.734267133566783286e+03 1.601715756697749397e-05
1.735167583791895822e+03 1.592854993665849858e-05
1.736068034017008358e+03 1.584070389819681421e-05
1.736968484242120894e+03 1.575361032096080937e-05
1.737868934467233430e+03 1.566726021942560157e-05
1.738769384692346193e+03 1.558164475020028681e-05
1.739669834917458729e+03 1.549675520913255732e-05
1.740570285142571265e+03 1.541258302848622178e-05
1.741470735367683801e+03 1.532911977419344735e-05
1.742371185592796337e+03 1.524635714317378184e-05
1.743271635817908873e+03 1.516428696072258003e-05
1.744172086043021409e+03 1.508290117796513599e-05
1.745072536268133945e+03 1.500219186937228301e-05
1.745972986493246481e+03 1.492215123034016457e-05
1.746873436718359017e+03 1.484277157482744109e-05
1.747773886943471553e+03 1.476404533305176518e-05
1.748674337168584316e+03 1.468596504924178834e-05
1.749574787393696852e+03 1.460852337944307635e-05
1.750475237618809388e+03 1.453171308937857171e-05
1.751375687843921924e+03 1.445552705235797074e-05
1.752276138069034459e+03 1.437995824723887792e-05
1.753176588294146995e+03 1.430499975643477927e-05
1.754077038519259531e+03 1.423064476397120165e-05
1.754977488744372067e+03 1.415688655358648198e-05
1.755877938969484603e+03 1.408371850687679890e-05
1.756778389194597139e+03 1.401113410148496058e-05
1.757678839419709675e+03 1.393912690933028035e-05
1.758579289644822438e+03 1.386769059487889810e-05
1.759479739869934974e+03 1.379681891345451373e-05
1.760380190095047510e+03 1.372650570958628154e-05
1.761280640320160046e+03 1.365674491539473474e-05
1.762181090545272582e+03 1.358753054901405280e-05
1.763081540770385118e+03 1.351885671304870128e-05
1.763981990995497654e+03 1.345071759306581319e-05
1.764882441220610190e+03 1.338310745611955084e-05
1.765782891445722726e+03 1.331602064930871885e-05
1.766683341670835262e+03 1.324945159836618158e-05
1.767583791895947797e+03 1.318339480627789104e-05
1.768484242121060333e+03 1.311784485193373118e-05
1.769384692346173097e+03 1.305279638880540278e-05
1.770285142571285633e+03 1.298824414365461178e-05
1.771185592796398169e+03 1.292418291526763936e-05
1.772086043021510704e+03 1.286060757321736093e-05
1.772986493246623240e+03 1.279751305665133679e-05
1.773886943471735776e+03 1.273489437310587791e-05
1.774787393696848312e+03 1.267274659734448254e-05
1.775687843921960848e+03 1.261106487022065896e-05
1.776588294147073384e+03 1.254984439756468860e-05
1.777488744372185920e+03 1.248908044909378106e-05
1.778389194597298456e+03 1.242876835734327937e-05
1.779289644822411219e+03 1.236890351662142478e-05
1.780190095047523755e+03 1.230948138198485173e-05
1.781090545272636291e+03 1.225049746823469122e-05
1.781990995497748827e+03 1.219194734893351450e-05
1.782891445722861363e+03 1.213382665544155362e-05
1.783791895947973899e+03 1.207613107597279156e-05
1.784692346173086435e+03 1.201885635467022762e-05
1.785592796398198971e+03 1.196199829069805121e-05
1.786493246623311506e+03 1.190555273735384967e-05
1.787393696848424042e+03 1.184951560119723158e-05
1.788294147073536578e+03 1.179388284119504180e-05
1.789194597298649342e+03 1.173865046788512142e-05
1.790095047523761878e+03 1.168381454255476706e-05
1.790995497748874413e+03 1.162937117643571760e-05
1.791895947973986949e+03 1.157531652991474315e-05
1.792796398199099485e+03 1.152164681175984321e-05
1.793696848424212021e+03 1.146835827836034457e-05
1.794597298649324557e+03 1.141544723298264740e-05
1.795497748874437093e+03 1.136291002503937806e-05
1.796398199099549629e+03 1.131074304937258752e-05
1.797298649324662165e+03 1.125894274555103077e-05
1.798199099549774701e+03 1.120750559717965201e-05
1.799099549774887464e+03 1.115642813122322040e-05
1.800000000000000000e+03 1.110570691734150741e-05
