0.000000000000000000e+00 1.192852768588511950e-03
9.004502251125562351e-01 1.799444033881313207e-03
1.800900450225112470e+00 2.696711455008699194e-03
2.701350675337668594e+00 3.491201268702507059e-03
3.601800900450224940e+00 3.575114705818230147e-03
4.502251125562780842e+00 3.454473740840587233e-03
5.402701350675337189e+00 3.416736343534076265e-03
6.303151575787893535e+00 2.859408819442337251e-03
7.203601800900449881e+00 1.988801307101954654e-03
8.104052026013006227e+00 1.332211211007784191e-03
9.004502251125561685e+00 9.174475262071700140e-04
9.904952476238118919e+00 6.564866361346732198e-04
1.080540270135067438e+01 4.890167090963205019e-04
1.170585292646323161e+01 3.775032939110993502e-04
1.260630315157578707e+01 3.001097291102678842e-04
1.350675337668834430e+01 2.443616200312274923e-04
1.440720360180089976e+01 2.029557596320673155e-04
1.530765382691345522e+01 1.714361880639310627e-04
1.620810405202601245e+01 1.470169425864392156e-04
1.710855427713856969e+01 1.279236765930666223e-04
1.800900450225112337e+01 1.129645486188048971e-04
1.890945472736368060e+01 1.008869892340369937e-04
1.980990495247623784e+01 8.996346195333626669e-05
2.071035517758879507e+01 7.980982381431321550e-05
2.161080540270134875e+01 7.111586358515854247e-05
2.251125562781390599e+01 6.389149566908162775e-05
2.341170585292646322e+01 5.782857949385854137e-05
2.431215607803901690e+01 5.266052732083202696e-05
2.521260630315157414e+01 4.819760222365419074e-05
2.611305652826413137e+01 4.430528449668198738e-05
2.701350675337668861e+01 4.088578640422052351e-05
2.791395697848924229e+01 3.786382047926538662e-05
2.881440720360179952e+01 3.518015522810313611e-05
2.971485742871435676e+01 3.278898714894120796e-05
3.061530765382691044e+01 3.065471344576568998e-05
3.151575787893946767e+01 2.874520453644362252e-05
3.241620810405202491e+01 2.701019998172843648e-05
3.331665832916458214e+01 2.539372871807032476e-05
3.421710855427713938e+01 2.389849758971723998e-05
3.511755877938969661e+01 2.253863118113298079e-05
3.601800900450224674e+01 2.130348244819910960e-05
3.691845922961480397e+01 2.017636816709850728e-05
3.781890945472736121e+01 1.914224785427409269e-05
3.871935967983991844e+01 1.818786973478581922e-05
3.961980990495247568e+01 1.730519584949854963e-05
4.052026013006503291e+01 1.648877317265149802e-05
4.142071035517759015e+01 1.573233638342254543e-05
4.232116058029014027e+01 1.502977319747563753e-05
4.322161080540269751e+01 1.437579820769842655e-05
4.412206103051525474e+01 1.376599778200833036e-05
4.502251125562781198e+01 1.319653224715569182e-05
4.592296148074036921e+01 1.266389172491252727e-05
4.682341170585292645e+01 1.216500927010026959e-05
4.772386193096548368e+01 1.169727047352588861e-05
4.862431215607803381e+01 1.125826144209470162e-05
4.952476238119059104e+01 1.084561678122571963e-05
5.042521260630314828e+01 1.045642429919904312e-05
5.132566283141570551e+01 1.008816112733865177e-05
5.222611305652826275e+01 9.740294647953981344e-06
5.312656328164081998e+01 9.412017444595612408e-06
5.402701350675337721e+01 9.102033402941071488e-06
5.492746373186592734e+01 8.809107171159714773e-06
5.582791395697848458e+01 8.531912014287397603e-06
5.672836418209104181e+01 8.268425764487083091e-06
5.762881440720359905e+01 8.016684092534995476e-06
5.852926463231615628e+01 7.776865909122690954e-06
5.942971485742871351e+01 7.549130840243723909e-06
6.033016508254127075e+01 7.332723900551618339e-06
6.123061530765382088e+01 7.126801950927379718e-06
6.213106553276637811e+01 6.930656196681186763e-06
6.303151575787893535e+01 6.743699153379543724e-06
6.393196598299149258e+01 6.565428036717688810e-06
6.483241620810404982e+01 6.395343775981820103e-06
6.573286643321659994e+01 6.232803068555316043e-06
6.663331665832916428e+01 6.076840762317999299e-06
6.753376688344171441e+01 5.927156915832054298e-06
6.843421710855427875e+01 5.783680829871167472e-06
6.933466733366682888e+01 5.645831279441367560e-06
7.023511755877939322e+01 5.513583033746596651e-06
7.113556778389194335e+01 5.386884532393302221e-06
7.203601800900449348e+01 5.265427993679013612e-06
7.293646823411705782e+01 5.148888598670675910e-06
7.383691845922960795e+01 5.036988003090068411e-06
7.473736868434217229e+01 4.929482476978942601e-06
7.563781890945472242e+01 4.826022603212063147e-06
7.653826913456728676e+01 4.726235590840531432e-06
7.743871935967983688e+01 4.630083344475380803e-06
7.833916958479238701e+01 4.537522442827936649e-06
7.923961980990495135e+01 4.448387401736436682e-06
8.014007003501750148e+01 4.362511508851260466e-06
8.104052026013006582e+01 4.279754026602811297e-06
8.194097048524261595e+01 4.199992665333457803e-06
8.284142071035518029e+01 4.123039765714820733e-06
8.374187093546773042e+01 4.048626842614061872e-06
8.464232116058028055e+01 3.976680569059985713e-06
8.554277138569284489e+01 3.907108585243602811e-06
8.644322161080539502e+01 3.839776636960226635e-06
8.734367183591795936e+01 3.774539278505815039e-06
8.824412206103050949e+01 3.711324410437724365e-06
8.914457228614307382e+01 3.650200419787142364e-06
9.004502251125562395e+01 3.591114597631873582e-06
9.094547273636817408e+01 3.533962542483584905e-06
9.184592296148073842e+01 3.478651982756634972e-06
9.274637318659328855e+01 3.425117648647043491e-06
9.364682341170585289e+01 3.373296617956217897e-06
9.454727363681840302e+01 3.323059715549123496e-06
9.544772386193096736e+01 3.274285405330827810e-06
9.634817408704351749e+01 3.226916511283454324e-06
9.724862431215606762e+01 3.180788436703156441e-06
9.814907453726863196e+01 3.135945957716844901e-06
9.904952476238118209e+01 3.092471157021855056e-06
9.994997498749374643e+01 3.050308947163404719e-06
1.008504252126062966e+02 3.009368179811260435e-06
1.017508754377188609e+02 2.969569276841010810e-06
1.026513256628314110e+02 2.930896563305785769e-06
1.035517758879439612e+02 2.893332631929456238e-06
1.044522261130565255e+02 2.856834344658503716e-06
1.053526763381690756e+02 2.821337789703798151e-06
1.062531265632816400e+02 2.786777555138670882e-06
1.071535767883941901e+02 2.753144967952572101e-06
1.080540270135067544e+02 2.720431070540972923e-06
1.089544772386193046e+02 2.688604985180993317e-06
1.098549274637318547e+02 2.657634052875029970e-06
1.107553776888444190e+02 2.627484890043522959e-06
1.116558279139569692e+02 2.598118698117772324e-06
1.125562781390695335e+02 2.569507581354847510e-06
1.134567283641820836e+02 2.541617525253610862e-06
1.143571785892946480e+02 2.514423439737351518e-06
1.152576288144071981e+02 2.487926108255153198e-06
1.161580790395197482e+02 2.462103136833405932e-06
1.170585292646323126e+02 2.436920003004476302e-06
1.179589794897448627e+02 2.412359931016753463e-06
1.188594297148574270e+02 2.388411215726821605e-06
1.197598799399699772e+02 2.365053838253620370e-06
1.206603301650825415e+02 2.342271169344273499e-06
1.215607803901950916e+02 2.320049278021060257e-06
1.224612306153076418e+02 2.298373340885861942e-06
1.233616808404202061e+02 2.277226980908610992e-06
1.242621310655327562e+02 2.256590792075797352e-06
1.251625812906453206e+02 2.236460424763883646e-06
1.260630315157578707e+02 2.216851877840856523e-06
1.269634817408704350e+02 2.197778436964322097e-06
1.278639319659829852e+02 2.179188290585587663e-06
1.287643821910955353e+02 2.160859717522148610e-06
1.296648324162080996e+02 2.142729711038255959e-06
1.305652826413206640e+02 2.125010269175864227e-06
1.314657328664331999e+02 2.107762448602930448e-06
1.323661830915457642e+02 2.090942838992454878e-06
1.332666333166583286e+02 2.074519910733689154e-06
1.341670835417708929e+02 2.058474148219410856e-06
1.350675337668834288e+02 2.042791175165519996e-06
1.359679839919959932e+02 2.027466546088161360e-06
1.368684342171085575e+02 2.012491721077140283e-06
1.377688844422210934e+02 1.997854894904968761e-06
1.386693346673336578e+02 1.983545724804475045e-06
1.395697848924462221e+02 1.969542661438195989e-06
1.404702351175587864e+02 1.955825809502190060e-06
1.413706853426713224e+02 1.942402581467096499e-06
1.422711355677838867e+02 1.929273671100109758e-06
1.431715857928964510e+02 1.916429797421715649e-06
1.440720360180089870e+02 1.903864901241172032e-06
1.449724862431215513e+02 1.891574158329249209e-06
1.458729364682341156e+02 1.879550773200411824e-06
1.467733866933466800e+02 1.867778550443448689e-06
1.476738369184592159e+02 1.856237859228538508e-06
1.485742871435717802e+02 1.844934915232704335e-06
1.494747373686843446e+02 1.833875858916849655e-06
1.503751875937968805e+02 1.823048577757414197e-06
1.512756378189094448e+02 1.812438085525623103e-06
1.521760880440220092e+02 1.802043041587490434e-06
1.530765382691345735e+02 1.791863459562776161e-06
1.539769884942471094e+02 1.781899511405637369e-06
1.548774387193596738e+02 1.772145660784006684e-06
1.557778889444722381e+02 1.762591298450320678e-06
1.566783391695847740e+02 1.753236366045390161e-06
1.575787893946973384e+02 1.744088991756797192e-06
1.584792396198099027e+02 1.735155836098417199e-06
1.593796898449224670e+02 1.726429331546512530e-06
1.602801400700350030e+02 1.717837460794819752e-06
1.611805902951475673e+02 1.709314127551507162e-06
1.620810405202601316e+02 1.700934275485037133e-06
1.629814907453726676e+02 1.692748363562543702e-06
1.638819409704852319e+02 1.684750935308459487e-06
1.647823911955977962e+02 1.676929622273659061e-06
1.656828414207103606e+02 1.669275289180113602e-06
1.665832916458228965e+02 1.661782693374661224e-06
1.674837418709354608e+02 1.654449479438331514e-06
1.683841920960480252e+02 1.647257481736566420e-06
1.692846423211605611e+02 1.640175554342872405e-06
1.701850925462731254e+02 1.633214941047201309e-06
1.710855427713856898e+02 1.626397046806621306e-06
1.719859929964982541e+02 1.619722596761445292e-06
1.728864432216107900e+02 1.613185227192457061e-06
1.737868934467233544e+02 1.606777868296623302e-06
1.746873436718359187e+02 1.600496565042866959e-06
1.755877938969484546e+02 1.594339876469451859e-06
1.764882441220610190e+02 1.588305409222061686e-06
1.773886943471735833e+02 1.582389961900752612e-06
1.782891445722861476e+02 1.576589566065261902e-06
1.791895947973986836e+02 1.570901147173117966e-06
1.800900450225112479e+02 1.565323755694812609e-06
1.809904952476238122e+02 1.559856108027735786e-06
1.818909454727363482e+02 1.554496500092193514e-06
1.827913956978489125e+02 1.549243678593099003e-06
1.836918459229614768e+02 1.544096409939169339e-06
1.845922961480740412e+02 1.539052379773166123e-06
1.854927463731865771e+02 1.534108026002868004e-06
1.863931965982991414e+02 1.529259595634343805e-06
1.872936468234117058e+02 1.524497355448992061e-06
1.881940970485242417e+02 1.519822037403208902e-06
1.890945472736368060e+02 1.515244736673629827e-06
1.899949974987493704e+02 1.510770400550815351e-06
1.908954477238619347e+02 1.506395429171791760e-06
1.917958979489744706e+02 1.502093622205868323e-06
1.926963481740870350e+02 1.497840761474031856e-06
1.935967983991995993e+02 1.493661286070504431e-06
1.944972486243121352e+02 1.489572205614524913e-06
1.953976988494246996e+02 1.485572286521974381e-06
1.962981490745372639e+02 1.481657082774543124e-06
1.971985992996498283e+02 1.477822629435351736e-06
1.980990495247623642e+02 1.474065950155803389e-06
1.989994997498749285e+02 1.470384666268426859e-06
1.998999499749874929e+02 1.466777191600075658e-06
2.008004002001000288e+02 1.463243236904070827e-06
2.017008504252125931e+02 1.459781766827116992e-06
2.026013006503251574e+02 1.456391166906888399e-06
2.035017508754377218e+02 1.453070434943295502e-06
2.044022011005502577e+02 1.449817112015743061e-06
2.053026513256628220e+02 1.446624772888683164e-06
2.062031015507753864e+02 1.443492770791085210e-06
2.071035517758879223e+02 1.440425791934743705e-06
2.080040020010004866e+02 1.437424268299498714e-06
2.089044522261130510e+02 1.434485836046674121e-06
2.098049024512256153e+02 1.431607963868731352e-06
2.107053526763381512e+02 1.428790063941879503e-06
2.116058029014507156e+02 1.426031870742834950e-06
2.125062531265632799e+02 1.423332367763367676e-06
2.134067033516758158e+02 1.420690585476509028e-06
2.143071535767883802e+02 1.418105655755177623e-06
2.152076038019009445e+02 1.415576452117778417e-06
2.161080540270135089e+02 1.413102305234001393e-06
2.170085042521260448e+02 1.410683198546758004e-06
2.179089544772386091e+02 1.408319227888718511e-06
2.188094047023511735e+02 1.406010807070398911e-06
2.197098549274637094e+02 1.403759234366534389e-06
2.206103051525762737e+02 1.401568106334313510e-06
2.215107553776888381e+02 1.399442587781386945e-06
2.224112056028014024e+02 1.397375536009141540e-06
2.233116558279139383e+02 1.395319923578334153e-06
2.242121060530265027e+02 1.393253037388088544e-06
2.251125562781390670e+02 1.391226329775406804e-06
2.260130065032516029e+02 1.389262877916597746e-06
2.269134567283641672e+02 1.387358198381676677e-06
2.278139069534767316e+02 1.385505787641684672e-06
2.287143571785892959e+02 1.383701655031592586e-06
2.296148074037018318e+02 1.381943366000787350e-06
2.305152576288143962e+02 1.380229558078591955e-06
2.314157078539269605e+02 1.378559201199712943e-06
2.323161580790394964e+02 1.376931170435171956e-06
2.332166083041520608e+02 1.375344551214152505e-06
2.341170585292646251e+02 1.373798993906816036e-06
2.350175087543771895e+02 1.372294321321726849e-06
2.359179589794897254e+02 1.370830450724643242e-06
2.368184092046022897e+02 1.369407453151911551e-06
2.377188594297148541e+02 1.368025922142742924e-06
2.386193096548273900e+02 1.366687359370485825e-06
2.395197598799399543e+02 1.365389362431966515e-06
2.404202101050525187e+02 1.364115572522823192e-06
2.413206603301650830e+02 1.362858826743788358e-06
2.422211105552776189e+02 1.361636284057988434e-06
2.431215607803901833e+02 1.360454841807154551e-06
2.440220110055027476e+02 1.359312622599118364e-06
2.449224612306152835e+02 1.358207322715267295e-06
2.458229114557278479e+02 1.357137414961103382e-06
2.467233616808404122e+02 1.356101787448089162e-06
2.476238119059529765e+02 1.355099889342561801e-06
2.485242621310655124e+02 1.354131390221635094e-06
2.494247123561780768e+02 1.353195843667941677e-06
2.503251625812906411e+02 1.352292707229294857e-06
2.512256128064031770e+02 1.351421809214328464e-06
2.521260630315157414e+02 1.350583829801372294e-06
2.530265132566283057e+02 1.349779427692703961e-06
2.539269634817408701e+02 1.349006273718085218e-06
2.548274137068534060e+02 1.348257524836843931e-06
2.557278639319659703e+02 1.347535029781427627e-06
2.566283141570785347e+02 1.346845011213376362e-06
2.575287643821910706e+02 1.346182433186708547e-06
2.584292146073036633e+02 1.345539801753665706e-06
2.593296648324161993e+02 1.344923168226869099e-06
2.602301150575287352e+02 1.344337263244679394e-06
2.611305652826413279e+02 1.343781598734414735e-06
2.620310155077538639e+02 1.343254644414269334e-06
2.629314657328663998e+02 1.342755428608051680e-06
2.638319159579789925e+02 1.342283474231997482e-06
2.647323661830915285e+02 1.341838309211937130e-06
2.656328164082040644e+02 1.341419554496517347e-06
2.665332666333166571e+02 1.341026819096168031e-06
2.674337168584291931e+02 1.340659642436151096e-06
2.683341670835417858e+02 1.340317760353983275e-06
2.692346173086543217e+02 1.340001103240236926e-06
2.701350675337668577e+02 1.339709554270226374e-06
2.710355177588794504e+02 1.339442691309598380e-06
2.719359679839919863e+02 1.339199962229039081e-06
2.728364182091045222e+02 1.338981517612266953e-06
2.737368684342171150e+02 1.338787351850871871e-06
2.746373186593296509e+02 1.338615762093368850e-06
2.755377688844421868e+02 1.338465346006632320e-06
2.764382191095547796e+02 1.338337851472768626e-06
2.773386693346673155e+02 1.338234416782478096e-06
2.782391195597798514e+02 1.338155001518541590e-06
2.791395697848924442e+02 1.338099504194540861e-06
2.800400200100049801e+02 1.338068168163168498e-06
2.809404702351175729e+02 1.338062229543371680e-06
2.818409204602301088e+02 1.338084455894603365e-06
2.827413706853426447e+02 1.338139726116507319e-06
2.836418209104552375e+02 1.338234742096300852e-06
2.845422711355677734e+02 1.338364636294558047e-06
2.854427213606803093e+02 1.338477967904976978e-06
2.863431715857929021e+02 1.338541551162134423e-06
2.872436218109054380e+02 1.338614192016201841e-06
2.881440720360179739e+02 1.338726642976119993e-06
2.890445222611305667e+02 1.338875058568893322e-06
2.899449724862431026e+02 1.339052714026874676e-06
2.908454227113556385e+02 1.339255221276909170e-06
2.917458729364682313e+02 1.339478766845214683e-06
2.926463231615807672e+02 1.339722123980391674e-06
2.935467733866933600e+02 1.339986089187398970e-06
2.944472236118058959e+02 1.340270453459362457e-06
2.953476738369184318e+02 1.340574537155827791e-06
2.962481240620310246e+02 1.340897824553756780e-06
2.971485742871435605e+02 1.341240033229208199e-06
2.980490245122560964e+02 1.341600873979351233e-06
2.989494747373686891e+02 1.341980223548951007e-06
2.998499249624812251e+02 1.342378061748808030e-06
3.007503751875937610e+02 1.342794254427593873e-06
3.016508254127063537e+02 1.343228558820938775e-06
3.025512756378188897e+02 1.343680974885666290e-06
3.034517258629314256e+02 1.344152003170404860e-06
3.043521760880440183e+02 1.344642321163131244e-06
3.052526263131565543e+02 1.345152942962200235e-06
3.061530765382691470e+02 1.345685403197689842e-06
3.070535267633816829e+02 1.346237805851084671e-06
3.079539769884942189e+02 1.346796003096327733e-06
3.088544272136068116e+02 1.347354084228157532e-06
3.097548774387193475e+02 1.347927563511305908e-06
3.106553276638318835e+02 1.348523123290358243e-06
3.115557778889444762e+02 1.349139910580190530e-06
3.124562281140570121e+02 1.349776905641259795e-06
3.133566783391695481e+02 1.350434474557547294e-06
3.142571285642821408e+02 1.351114110478252179e-06
3.151575787893946767e+02 1.351815165242276174e-06
3.160580290145072127e+02 1.352524128705819250e-06
3.169584792396198054e+02 1.353227339588553416e-06
3.178589294647323413e+02 1.353940310576848256e-06
3.187593796898449341e+02 1.354674585570999259e-06
3.196598299149574700e+02 1.355429776505850819e-06
3.205602801400700059e+02 1.356204007248382100e-06
3.214607303651825987e+02 1.356996488939886453e-06
3.223611805902951346e+02 1.357807079494326203e-06
3.232616308154076705e+02 1.358633691487497033e-06
3.241620810405202633e+02 1.359469196179639520e-06
3.250625312656327992e+02 1.360313168505258793e-06
3.259629814907453351e+02 1.361172441243670275e-06
3.268634317158579279e+02 1.362048732749212927e-06
3.277638819409704638e+02 1.362941175437170302e-06
3.286643321660829997e+02 1.363848998393062084e-06
3.295647823911955925e+02 1.364771755941103763e-06
3.304652326163081284e+02 1.365709159290928697e-06
3.313656828414207212e+02 1.366661031180044017e-06
3.322661330665332571e+02 1.367627068050746991e-06
3.331665832916457930e+02 1.368606997126218057e-06
3.340670335167583858e+02 1.369600954776284787e-06
3.349674837418709217e+02 1.370609062706781127e-06
3.358679339669834576e+02 1.371631294605488946e-06
3.367683841920960504e+02 1.372667537309223017e-06
3.376688344172085863e+02 1.373717703185521419e-06
3.385692846423211222e+02 1.374781743140369138e-06
3.394697348674337150e+02 1.375859078339684594e-06
3.403701850925462509e+02 1.376949294541012422e-06
3.412706353176587868e+02 1.378053452972823173e-06
3.421710855427713796e+02 1.379172527177681296e-06
3.430715357678839155e+02 1.380307293774300164e-06
3.439719859929965082e+02 1.381459314609115405e-06
3.448724362181090441e+02 1.382631080177736722e-06
3.457728864432215801e+02 1.383821467076493468e-06
3.466733366683341728e+02 1.385012912538568232e-06
3.475737868934467087e+02 1.386191679880565026e-06
3.484742371185592447e+02 1.387377964010596540e-06
3.493746873436718374e+02 1.388583874790163031e-06
3.502751375687843733e+02 1.389808452393089328e-06
3.511755877938969093e+02 1.391049286982054614e-06
3.520760380190095020e+02 1.392304855525130069e-06
3.529764882441220379e+02 1.393574363629599962e-06
3.538769384692345739e+02 1.394857290231539898e-06
3.547773886943471666e+02 1.396152566172992671e-06
3.556778389194597025e+02 1.397459515765177545e-06
3.565782891445722953e+02 1.398778952041356112e-06
3.574787393696848312e+02 1.400111182117986668e-06
3.583791895947973671e+02 1.401455983175239831e-06
3.592796398199099599e+02 1.402813267881877651e-06
3.601800900450224958e+02 1.404183070822788784e-06
3.610805402701350317e+02 1.405565365200287903e-06
3.619809904952476245e+02 1.406960110358466854e-06
3.628814407203601604e+02 1.408367264788450222e-06
3.637818909454726963e+02 1.409786904852859441e-06
3.646823411705852891e+02 1.411219344660649709e-06
3.655827913956978250e+02 1.412665108181800480e-06
3.664832416208103609e+02 1.414125093412521574e-06
3.673836918459229537e+02 1.415600696964861193e-06
3.682841420710354896e+02 1.417092607381309801e-06
3.691845922961480824e+02 1.418593865223191213e-06
3.700850425212606183e+02 1.420091350918977947e-06
3.709854927463731542e+02 1.421592970726751926e-06
3.718859429714857470e+02 1.423110666864299208e-06
3.727863931965982829e+02 1.424646062666911706e-06
3.736868434217108188e+02 1.426198878863137537e-06
3.745872936468234116e+02 1.427770461216116232e-06
3.754877438719359475e+02 1.429363058140854232e-06
3.763881940970484834e+02 1.430970593210724316e-06
3.772886443221610762e+02 1.432566703952304188e-06
3.781890945472736121e+02 1.434148637930330902e-06
3.790895447723861480e+02 1.435743238144215205e-06
3.799899949974987408e+02 1.437358437962789842e-06
3.808904452226112767e+02 1.438992088942313990e-06
3.817908954477238694e+02 1.440642143771725901e-06
3.826913456728364054e+02 1.442307118811706092e-06
3.835917958979489413e+02 1.443982801929500750e-06
3.844922461230615340e+02 1.445664161055448996e-06
3.853926963481740700e+02 1.447354916514095469e-06
3.862931465732866059e+02 1.449058734281740569e-06
3.871935967983991986e+02 1.450775542721470424e-06
3.880940470235117346e+02 1.452504682326848316e-06
3.889944972486242705e+02 1.454245721636713956e-06
3.898949474737368632e+02 1.455998394048057485e-06
3.907953976988493991e+02 1.457762531879716317e-06
3.916958479239619351e+02 1.459538039721032970e-06
3.925962981490745278e+02 1.461324827152368997e-06
3.934967483741870637e+02 1.463122873372299231e-06
3.943971985992996565e+02 1.464932259443305034e-06
3.952976488244121924e+02 1.466753031693694214e-06
3.961980990495247283e+02 1.468585135404356990e-06
3.970985492746373211e+02 1.470428358216482661e-06
3.979989994997498570e+02 1.472282336945278554e-06
3.988994497248623929e+02 1.474147266176522232e-06
3.997998999499749857e+02 1.476023638395895278e-06
4.007003501750875216e+02 1.477911679900492141e-06
4.016008004002000575e+02 1.479811651937963014e-06
4.025012506253126503e+02 1.481724077190802141e-06
4.034017008504251862e+02 1.483649935358145068e-06
4.043021510755377221e+02 1.485591066520027625e-06
4.052026013006503149e+02 1.487550165250460144e-06
4.061030515257628508e+02 1.489526433238398431e-06
4.070035017508754436e+02 1.491501752926820312e-06
4.079039519759879795e+02 1.493460085826927903e-06
4.088044022011005154e+02 1.495422785379826803e-06
4.097048524262131082e+02 1.497403821754198181e-06
4.106053026513256441e+02 1.499402046034555771e-06
4.115057528764381800e+02 1.501414393381592098e-06
4.124062031015507728e+02 1.503439579412592266e-06
4.133066533266633087e+02 1.505477082202108528e-06
4.142071035517758446e+02 1.507526459170185138e-06
4.151075537768884374e+02 1.509587384548082085e-06
4.160080040020009733e+02 1.511659726938148794e-06
4.169084542271135092e+02 1.513743499157461666e-06
4.178089044522261020e+02 1.515838766902882247e-06
4.187093546773386379e+02 1.517945728909171891e-06
4.196098049024512306e+02 1.520064863715042535e-06
4.205102551275637666e+02 1.522197075700284584e-06
4.214107053526763025e+02 1.524343843920008933e-06
4.223111555777888952e+02 1.526505718632160918e-06
4.232116058029014312e+02 1.528675029208850394e-06
4.241120560280139671e+02 1.530839365928272500e-06
4.250125062531265598e+02 1.533007422103491762e-06
4.259129564782390958e+02 1.535189838710125866e-06
4.268134067033516317e+02 1.537387196452444790e-06
4.277138569284642244e+02 1.539598039730709094e-06
4.286143071535767604e+02 1.541821370165490986e-06
4.295147573786892963e+02 1.544056681657558296e-06
4.304152076038018890e+02 1.546303817107430352e-06
4.313156578289144250e+02 1.548562867878559899e-06
4.322161080540270177e+02 1.550834219346081333e-06
4.331165582791395536e+02 1.553118721411928685e-06
4.340170085042520896e+02 1.555417765650646168e-06
4.349174587293646823e+02 1.557732079735464452e-06
4.358179089544772182e+02 1.560057818158166867e-06
4.367183591795897541e+02 1.562385168243012957e-06
4.376188094047023469e+02 1.564707476266191158e-06
4.385192596298148828e+02 1.567036878740517428e-06
4.394197098549274187e+02 1.569382013910916210e-06
4.403201600800400115e+02 1.571742428483097708e-06
4.412206103051525474e+02 1.574116405953715898e-06
4.421210605302650833e+02 1.576502843893089416e-06
4.430215107553776761e+02 1.578901118309502308e-06
4.439219609804902120e+02 1.581310942097843627e-06
4.448224112056028048e+02 1.583732232434559670e-06
4.457228614307153407e+02 1.586164922163740757e-06
4.466233116558278766e+02 1.588608757860074316e-06
4.475237618809404694e+02 1.591063259153471065e-06
4.484242121060530053e+02 1.593528548064031962e-06
4.493246623311655412e+02 1.596005032291134634e-06
4.502251125562781340e+02 1.598492794093153864e-06
4.511255627813906699e+02 1.600991806391053861e-06
4.520260130065032058e+02 1.603502002798147117e-06
4.529264632316157986e+02 1.606023349396145295e-06
4.538269134567283345e+02 1.608555894860612825e-06
4.547273636818408704e+02 1.611099659065621179e-06
4.556278139069534632e+02 1.613654666194652392e-06
4.565282641320659991e+02 1.616220991627736644e-06
4.574287143571785919e+02 1.618798619807215447e-06
4.583291645822911278e+02 1.621387340924428969e-06
4.592296148074036637e+02 1.623987194284105396e-06
4.601300650325162565e+02 1.626598498720058127e-06
4.610305152576287924e+02 1.629221441162793975e-06
4.619309654827413283e+02 1.631856201236260398e-06
4.628314157078539210e+02 1.634503113557849488e-06
4.637318659329664570e+02 1.637162786899120046e-06
4.646323161580789929e+02 1.639836192377962779e-06
4.655327663831915856e+02 1.642523946943778920e-06
4.664332166083041216e+02 1.645224305265330434e-06
4.673336668334167143e+02 1.647935060432765066e-06
4.682341170585292502e+02 1.650649567363764061e-06
4.691345672836417862e+02 1.653362241712213101e-06
4.700350175087543789e+02 1.656084642981964125e-06
4.709354677338669148e+02 1.658822949811327574e-06
4.718359179589794508e+02 1.661576301619746276e-06
4.727363681840920435e+02 1.664343306390354989e-06
4.736368184092045794e+02 1.667123211355953225e-06
4.745372686343171154e+02 1.669915698045758704e-06
4.754377188594297081e+02 1.672720767541692540e-06
4.763381690845422440e+02 1.675538585653441644e-06
4.772386193096547800e+02 1.678368470060840334e-06
4.781390695347673727e+02 1.681207648657692598e-06
4.790395197598799086e+02 1.684055934174804228e-06
4.799399699849925014e+02 1.686916093171115620e-06
4.808404202101050373e+02 1.689788905399479575e-06
4.817408704352175732e+02 1.692674144708742669e-06
4.826413206603301660e+02 1.695571604460510668e-06
4.835417708854427019e+02 1.698481154750371404e-06
4.844422211105552378e+02 1.701402830073829745e-06
4.853426713356678306e+02 1.704336769446480602e-06
4.862431215607803665e+02 1.707282879839917010e-06
4.871435717858929024e+02 1.710240574279458997e-06
4.880440220110054952e+02 1.713209693804633520e-06
4.889444722361180311e+02 1.716190968422242359e-06
4.898449224612305670e+02 1.719185015743881434e-06
4.907453726863431598e+02 1.722192224869291026e-06
4.916458229114556957e+02 1.725213256159492949e-06
4.925462731365682885e+02 1.728249410136208944e-06
4.934467233616808244e+02 1.731302796878771089e-06
4.943471735867933603e+02 1.734374181662964970e-06
4.952476238119059531e+02 1.737452795390308823e-06
4.961480740370184890e+02 1.740521678846250682e-06
4.970485242621310249e+02 1.743593278750000126e-06
4.979489744872436177e+02 1.746682392840482010e-06
4.988494247123561536e+02 1.749790150307017271e-06
4.997498749374686895e+02 1.752915049012828356e-06
5.006503251625812823e+02 1.756056725829041380e-06
5.015507753876938182e+02 1.759215338839249961e-06
5.024512256128063541e+02 1.762386408986382454e-06
5.033516758379189469e+02 1.765558860928618032e-06
5.042521260630314828e+02 1.768735864410878504e-06
5.051525762881440755e+02 1.771927421737105621e-06
5.060530265132566115e+02 1.775135133298122801e-06
5.069534767383691474e+02 1.778357983197714364e-06
5.078539269634817401e+02 1.781595301012100520e-06
5.087543771885942760e+02 1.784846614174613881e-06
5.096548274137068120e+02 1.788110525350473263e-06
5.105552776388194047e+02 1.791385063498451612e-06
5.114557278639319406e+02 1.794671326454332493e-06
5.123561780890445334e+02 1.797971042227395279e-06
5.132566283141570693e+02 1.801284424784723775e-06
5.141570785392696052e+02 1.804611321690614905e-06
5.150575287643821412e+02 1.807951638463845405e-06
5.159579789894946771e+02 1.811305047284721990e-06
5.168584292146073267e+02 1.814670814140821316e-06
5.177588794397198626e+02 1.818049202117685243e-06
5.186593296648323985e+02 1.821441043326187473e-06
5.195597798899449344e+02 1.824846631375083494e-06
5.204602301150574704e+02 1.828266181983881882e-06
5.213606803401700063e+02 1.831700068433592572e-06
5.222611305652826559e+02 1.835148660275496753e-06
5.231615807903951918e+02 1.838612196137706854e-06
5.240620310155077277e+02 1.842088757824440769e-06
5.249624812406202636e+02 1.845574535607243652e-06
5.258629314657327996e+02 1.849073540217480318e-06
5.267633816908454492e+02 1.852588974085493661e-06
5.276638319159579851e+02 1.856113458236928257e-06
5.285642821410705210e+02 1.859642992573036048e-06
5.294647323661830569e+02 1.863185948856854362e-06
5.303651825912955928e+02 1.866746039166058362e-06
5.312656328164081287e+02 1.870322464264992431e-06
5.321660830415207784e+02 1.873913212242412393e-06
5.330665332666333143e+02 1.877516735950566692e-06
5.339669834917458502e+02 1.881134189968879390e-06
5.348674337168583861e+02 1.884766516926220386e-06
5.357678839419709220e+02 1.888413493000672887e-06
5.366683341670835716e+02 1.892074188808460575e-06
5.375687843921961075e+02 1.895748583564792953e-06
5.384692346173086435e+02 1.899437703383263403e-06
5.393696848424211794e+02 1.903141889875363715e-06
5.402701350675337153e+02 1.906860976007821936e-06
5.411705852926462512e+02 1.910595649692091737e-06
5.420710355177589008e+02 1.914346709973233616e-06
5.429714857428714367e+02 1.918110318911470823e-06
5.438719359679839727e+02 1.921881546589255355e-06
5.447723861930965086e+02 1.925665449075738688e-06
5.456728364182090445e+02 1.929465261644563267e-06
5.465732866433215804e+02 1.933280004845439757e-06
5.474737368684342300e+02 1.937110739405181327e-06
5.483741870935467659e+02 1.940957971131988733e-06
5.492746373186593019e+02 1.944822308565461012e-06
5.501750875437718378e+02 1.948703384639447691e-06
5.510755377688843737e+02 1.952597257875296164e-06
5.519759879939970233e+02 1.956500078981858882e-06
5.528764382191095592e+02 1.960412008097936326e-06
5.537768884442220951e+02 1.964335584601968840e-06
5.546773386693346310e+02 1.968275533860504519e-06
5.555777888944471670e+02 1.972233187128625916e-06
5.564782391195597029e+02 1.976207732886797244e-06
5.573786893446723525e+02 1.980198395554357558e-06
5.582791395697848884e+02 1.984204742723453424e-06
5.591795897948974243e+02 1.988226597083722960e-06
5.600800400200099602e+02 1.992263906029167270e-06
5.609804902451224962e+02 1.996316621206327799e-06
5.618809404702351458e+02 2.000384721879001131e-06
5.627813906953476817e+02 2.004468240342426645e-06
5.636818409204602176e+02 2.008567212531605703e-06
5.645822911455727535e+02 2.012681673688884406e-06
5.654827413706852894e+02 2.016811685258417301e-06
5.663831915957978254e+02 2.020957308367173471e-06
5.672836418209104750e+02 2.025118594585630745e-06
5.681840920460230109e+02 2.029295594904883284e-06
5.690845422711355468e+02 2.033488373265506878e-06
5.699849924962480827e+02 2.037697008649984008e-06
5.708854427213606186e+02 2.041921591819174415e-06
5.717858929464731546e+02 2.046162192706199384e-06
5.726863431715858042e+02 2.050418856648932791e-06
5.735867933966983401e+02 2.054691668577489117e-06
5.744872436218108760e+02 2.058980784247722690e-06
5.753876938469234119e+02 2.063286416234764992e-06
5.762881440720359478e+02 2.067608836558523979e-06
5.771885942971485974e+02 2.071948516875219912e-06
5.780890445222611334e+02 2.076306290791536702e-06
5.789894947473736693e+02 2.080683419215102676e-06
5.798899449724862052e+02 2.085080348860793870e-06
5.807903951975987411e+02 2.089490848410320875e-06
5.816908454227112770e+02 2.093905193176664041e-06
5.825912956478239266e+02 2.098330683564042958e-06
5.834917458729364625e+02 2.102775742897993307e-06
5.843921960980489985e+02 2.107240799158122630e-06
5.852926463231615344e+02 2.111724651137672285e-06
5.861930965482740703e+02 2.116226558195484774e-06
5.870935467733867199e+02 2.120746149554826368e-06
5.879939969984992558e+02 2.125283242758425033e-06
5.888944472236117917e+02 2.129837767355218743e-06
5.897948974487243277e+02 2.134409673854900710e-06
5.906953476738368636e+02 2.138998985226604395e-06
5.915957978989493995e+02 2.143605767636650252e-06
5.924962481240620491e+02 2.148230071438347974e-06
5.933966983491745850e+02 2.152871944907068146e-06
5.942971485742871209e+02 2.157531452770568580e-06
5.951975987993996569e+02 2.162208688084131113e-06
5.960980490245121928e+02 2.166903746315542845e-06
5.969984992496247287e+02 2.171616755719685350e-06
5.978989494747373783e+02 2.176347844132628568e-06
5.987993996998499142e+02 2.181097114354991590e-06
5.996998499249624501e+02 2.185864714984125455e-06
6.006003001500749860e+02 2.190650892037576709e-06
6.015007503751875220e+02 2.195455962870282000e-06
6.024012006003001716e+02 2.200280347174409055e-06
6.033016508254127075e+02 2.205124621234597761e-06
6.042021010505252434e+02 2.209989728680674854e-06
6.051025512756377793e+02 2.214877760056286999e-06
6.060030015007503152e+02 2.219792567676048489e-06
6.069034517258628512e+02 2.224739745826860146e-06
6.078039019509755008e+02 2.229719066623675372e-06
6.087043521760880367e+02 2.234696814023589923e-06
6.096048024012005726e+02 2.239636481564249095e-06
6.105052526263131085e+02 2.244578068215676325e-06
6.114057028514256444e+02 2.249552776506439128e-06
6.123061530765382940e+02 2.254559988109929732e-06
6.132066033016508300e+02 2.259594344752893872e-06
6.141070535267633659e+02 2.264652421115969597e-06
6.150075037518759018e+02 2.269732270850914911e-06
6.159079539769884377e+02 2.274832925775733226e-06
6.168084042021009736e+02 2.279954101403636641e-06
6.177088544272136232e+02 2.285095632215950393e-06
6.186093046523261592e+02 2.290257388040031118e-06
6.195097548774386951e+02 2.295439304503641061e-06
6.204102051025512310e+02 2.300641390952773628e-06
6.213106553276637669e+02 2.305863678118187332e-06
6.222111055527763028e+02 2.311106194895940641e-06
6.231115557778889524e+02 2.316368985458768297e-06
6.240120060030014884e+02 2.321652155316672501e-06
6.249124562281140243e+02 2.326955854232472078e-06
6.258129064532265602e+02 2.332280206264079968e-06
6.267133566783390961e+02 2.337625209868856050e-06
6.276138069034517457e+02 2.342990823928457072e-06
6.285142571285642816e+02 2.348377407661526094e-06
6.294147073536768175e+02 2.353785367649598658e-06
6.303151575787893535e+02 2.359215065107573731e-06
6.312156078039018894e+02 2.364667062940272370e-06
6.321160580290144253e+02 2.370142325337366112e-06
6.330165082541270749e+02 2.375642581518768665e-06
6.339169584792396108e+02 2.381170820499966058e-06
6.348174087043521467e+02 2.386729930336880987e-06
6.357178589294646827e+02 2.392311106765212318e-06
6.366183091545772186e+02 2.397884830141806206e-06
6.375187593796898682e+02 2.403454854274610064e-06
6.384192096048024041e+02 2.409049909912211527e-06
6.393196598299149400e+02 2.414676157035213439e-06
6.402201100550274759e+02 2.420330556648658916e-06
6.411205602801400119e+02 2.426010527544456588e-06
6.420210105052525478e+02 2.431714678478998862e-06
6.429214607303651974e+02 2.437442301814134799e-06
6.438219109554777333e+02 2.443193053036731014e-06
6.447223611805902692e+02 2.448966753675550881e-06
6.456228114057028051e+02 2.454763339657984810e-06
6.465232616308153411e+02 2.460582848328950574e-06
6.474237118559278770e+02 2.466425338818423582e-06
6.483241620810405266e+02 2.472290864350249741e-06
6.492246123061530625e+02 2.478179479274151149e-06
6.501250625312655984e+02 2.484091251361944156e-06
6.510255127563781343e+02 2.490026295325821040e-06
6.519259629814906702e+02 2.495984724876396162e-06
6.528264132066033198e+02 2.501966639510079152e-06
6.537268634317158558e+02 2.507972143651672655e-06
6.546273136568283917e+02 2.514001369525515945e-06
6.555277638819409276e+02 2.520054453180280451e-06
6.564282141070534635e+02 2.526131525511501335e-06
6.573286643321659994e+02 2.532232726109489596e-06
6.582291145572786490e+02 2.538358233773029078e-06
6.591295647823911850e+02 2.544508273196012100e-06
6.600300150075037209e+02 2.550683139620350756e-06
6.609304652326162568e+02 2.556883297007014603e-06
6.618309154577287927e+02 2.563109204090524533e-06
6.627313656828414423e+02 2.569360027293591220e-06
6.636318159079539782e+02 2.575632369635255182e-06
6.645322661330665142e+02 2.581926420482861636e-06
6.654327163581790501e+02 2.588245836100959857e-06
6.663331665832915860e+02 2.594591623206241835e-06
6.672336168084041219e+02 2.600963545628326459e-06
6.681340670335167715e+02 2.607361398604433988e-06
6.690345172586293074e+02 2.613785125675128040e-06
6.699349674837418434e+02 2.620234757924225285e-06
6.708354177088543793e+02 2.626710370533778894e-06
6.717358679339669152e+02 2.633212074948442708e-06
6.726363181590794511e+02 2.639740001176374338e-06
6.735367683841921007e+02 2.646294284248358521e-06
6.744372186093046366e+02 2.652875051581903022e-06
6.753376688344171725e+02 2.659482428001987465e-06
6.762381190595297085e+02 2.666116568773537743e-06
6.771385692846422444e+02 2.672777701840816103e-06
6.780390195097548940e+02 2.679466068506036622e-06
6.789394697348674299e+02 2.686181919362361498e-06
6.798399199599799658e+02 2.692925559783623794e-06
6.807403701850925017e+02 2.699697354796093760e-06
6.816408204102050377e+02 2.706497791862577249e-06
6.825412706353175736e+02 2.713327595203534575e-06
6.834417208604302232e+02 2.720187862267249517e-06
6.843421710855427591e+02 2.727080385812889902e-06
6.852426213106552950e+02 2.734008232412646712e-06
6.861430715357678309e+02 2.740976959717437810e-06
6.870435217608803669e+02 2.747996733959269151e-06
6.879439719859930165e+02 2.755083504066834688e-06
6.888444222111055524e+02 2.762240992468219950e-06
6.897448724362180883e+02 2.769382295091527363e-06
6.906453226613306242e+02 2.776385204971725423e-06
6.915457728864431601e+02 2.783351388701273140e-06
6.924462231115556961e+02 2.790384789872070590e-06
6.933466733366683457e+02 2.797488292356934803e-06
6.942471235617808816e+02 2.804645856539648622e-06
6.951475737868934175e+02 2.811846760962524747e-06
6.960480240120059534e+02 2.819085273922473174e-06
6.969484742371184893e+02 2.826358409185496361e-06
6.978489244622311389e+02 2.833664555606781300e-06
6.987493746873436749e+02 2.841002829463404507e-06
6.996498249124562108e+02 2.848372776112156102e-06
7.005502751375687467e+02 2.855774166430989772e-06
7.014507253626812826e+02 2.863206919873868401e-06
7.023511755877938185e+02 2.870671032443772685e-06
7.032516258129064681e+02 2.878166563478397191e-06
7.041520760380190040e+02 2.885693619964177180e-06
7.050525262631315400e+02 2.893252309032268576e-06
7.059529764882440759e+02 2.900842708900786244e-06
7.068534267133566118e+02 2.908465002659253021e-06
7.077538769384691477e+02 2.916119462478546083e-06
7.086543271635817973e+02 2.923806349548237329e-06
7.095547773886943332e+02 2.931525981001423358e-06
7.104552276138068692e+02 2.939278802010509073e-06
7.113556778389194051e+02 2.947065496279344166e-06
7.122561280640319410e+02 2.954887204046573293e-06
7.131565782891445906e+02 2.962745899388578247e-06
7.140570285142571265e+02 2.970644642085246595e-06
7.149574787393696624e+02 2.978584732145610728e-06
7.158579289644821984e+02 2.986551762101096828e-06
7.167583791895947343e+02 2.994521649241071879e-06
7.176588294147072702e+02 3.002510999416911980e-06
7.185592796398199198e+02 3.010540868451229945e-06
7.194597298649324557e+02 3.018612684471196856e-06
7.203601800900449916e+02 3.026723596666543999e-06
7.212606303151575275e+02 3.034871701509057160e-06
7.221610805402700635e+02 3.043056047669791773e-06
7.230615307653827131e+02 3.051276225024295401e-06
7.239619809904952490e+02 3.059532109052403389e-06
7.248624312156077849e+02 3.067823708346630984e-06
7.257628814407203208e+02 3.076151090196060291e-06
7.266633316658328567e+02 3.084514367670285960e-06
7.275637818909453927e+02 3.092913751820467957e-06
7.284642321160580423e+02 3.101349431281162119e-06
7.293646823411705782e+02 3.109821573856546052e-06
7.302651325662831141e+02 3.118330530600649977e-06
7.311655827913956500e+02 3.126876688292494673e-06
7.320660330165081859e+02 3.135460423905383769e-06
7.329664832416207219e+02 3.144082199569932481e-06
7.338669334667333715e+02 3.152742647095885949e-06
7.347673836918459074e+02 3.161442653578226995e-06
7.356678339169584433e+02 3.170183589472243551e-06
7.365682841420709792e+02 3.178967700218780258e-06
7.374687343671835151e+02 3.187798850887744800e-06
7.383691845922961647e+02 3.196684063514702670e-06
7.392696348174087007e+02 3.205635859164304927e-06
7.401700850425212366e+02 3.214670335289716578e-06
7.410705352676337725e+02 3.223769045698086225e-06
7.419709854927463084e+02 3.232802686067953634e-06
7.428714357178588443e+02 3.241722300445517121e-06
7.437718859429714939e+02 3.250670065919343093e-06
7.446723361680840299e+02 3.259703217285207874e-06
7.455727863931965658e+02 3.268810907899481453e-06
7.464732366183091017e+02 3.277978639158845691e-06
7.473736868434216376e+02 3.287197966803343075e-06
7.482741370685342872e+02 3.296464491777214726e-06
7.491745872936468231e+02 3.305775930306921441e-06
7.500750375187593590e+02 3.315131033507311380e-06
7.509754877438718950e+02 3.324529068753118261e-06
7.518759379689844309e+02 3.333969794950714527e-06
7.527763881940969668e+02 3.343453231025694439e-06
7.536768384192096164e+02 3.352979426838305153e-06
7.545772886443221523e+02 3.362548460450170505e-06
7.554777388694346882e+02 3.372160464899044824e-06
7.563781890945472242e+02 3.381815631078882078e-06
7.572786393196597601e+02 3.391514191238591786e-06
7.581790895447722960e+02 3.401256420245572045e-06
7.590795397698849456e+02 3.411042622829680907e-06
7.599799899949974815e+02 3.420873145071430321e-06
7.608804402201100174e+02 3.430748386368008718e-06
7.617808904452225534e+02 3.440668784930325714e-06
7.626813406703350893e+02 3.450634908313481433e-06
7.635817908954477389e+02 3.460648003009201442e-06
7.644822411205602748e+02 3.470710269380451152e-06
7.653826913456728107e+02 3.480824317078048792e-06
7.662831415707853466e+02 3.490988065079796773e-06
7.671835917958978825e+02 3.501183565438280288e-06
7.680840420210104185e+02 3.511402896934854468e-06
7.689844922461230681e+02 3.521666540399480912e-06
7.698849424712356040e+02 3.531983498994509307e-06
7.707853926963481399e+02 3.542352583283718138e-06
7.716858429214606758e+02 3.552771955563427378e-06
7.725862931465732117e+02 3.563240641040704988e-06
7.734867433716858613e+02 3.573758246257728764e-06
7.743871935967983973e+02 3.584324615114559263e-06
7.752876438219109332e+02 3.594939797975075881e-06
7.761880940470234691e+02 3.605604069766302326e-06
7.770885442721360050e+02 3.616317730690540378e-06
7.779889944972485409e+02 3.627081047228445987e-06
7.788894447223611905e+02 3.637894292556232962e-06
7.797898949474737265e+02 3.648757832683081291e-06
7.806903451725862624e+02 3.659672100176529602e-06
7.815907953976987983e+02 3.670637557949241267e-06
7.824912456228113342e+02 3.681654727817420712e-06
7.833916958479238701e+02 3.692724250320727656e-06
7.842921460730365197e+02 3.703846996901512225e-06
7.851925962981490557e+02 3.715024173386939817e-06
7.860930465232615916e+02 3.726257507838443953e-06
7.869934967483741275e+02 3.737549958504929429e-06
7.878939469734866634e+02 3.748906951434665255e-06
7.887943971985993130e+02 3.760338219742974591e-06
7.896948474237118489e+02 3.771859434539694943e-06
7.905952976488243849e+02 3.783478920578244453e-06
7.914957478739369208e+02 3.795125729084427521e-06
7.923961980990494567e+02 3.806664675877942648e-06
7.932966483241619926e+02 3.818172555386195991e-06
7.941970985492746422e+02 3.829767954263814087e-06
7.950975487743871781e+02 3.841461435758064371e-06
7.959979989994997140e+02 3.853237109604008660e-06
7.968984492246122500e+02 3.865083665491266395e-06
7.977988994497247859e+02 3.876994990385345926e-06
7.986993496748374355e+02 3.888968009812020681e-06
7.995997998999499714e+02 3.901001337184600333e-06
8.005002501250625073e+02 3.913094353122173508e-06
8.014007003501750432e+02 3.925246817765143517e-06
8.023011505752875792e+02 3.937458719026843176e-06
8.032016008004001151e+02 3.949730191958769718e-06
8.041020510255127647e+02 3.962061471338550002e-06
8.050025012506253006e+02 3.974452985446265071e-06
8.059029514757378365e+02 3.986905291528654996e-06
8.068034017008503724e+02 3.999419035539574283e-06
8.077038519259629084e+02 4.011995024785798852e-06
8.086043021510754443e+02 4.024634276724613612e-06
8.095047523761880939e+02 4.037338321833249885e-06
8.104052026013006298e+02 4.050109731616095580e-06
8.113056528264131657e+02 4.062952707402328336e-06
8.122061030515257016e+02 4.075874688195058870e-06
8.131065532766382375e+02 4.088889255489874331e-06
8.140070035017508872e+02 4.102017262385755753e-06
8.149074537268634231e+02 4.115261071973469700e-06
8.158079039519759590e+02 4.128502516496004460e-06
8.167083541770884949e+02 4.141594624038139626e-06
8.176088044022010308e+02 4.154677505326137581e-06
8.185092546273135667e+02 4.167876305109906190e-06
8.194097048524262163e+02 4.181191812049271307e-06
8.203101550775387523e+02 4.194603922112119289e-06
8.212106053026512882e+02 4.208099615716564861e-06
8.221110555277638241e+02 4.221672092844602540e-06
8.230115057528763600e+02 4.235317880222230511e-06
8.239119559779890096e+02 4.249035213812492680e-06
8.248124062031015455e+02 4.262823334315809692e-06
8.257128564282140815e+02 4.276682001742109597e-06
8.266133066533266174e+02 4.290611241301569629e-06
8.275137568784391533e+02 4.304611232730867804e-06
8.284142071035516892e+02 4.318682268588063944e-06
8.293146573286643388e+02 4.332824839451108830e-06
8.302151075537768747e+02 4.347039584687778544e-06
8.311155577788894107e+02 4.361327206335720530e-06
8.320160080040019466e+02 4.375688622617400522e-06
8.329164582291144825e+02 4.390125199281459882e-06
8.338169084542270184e+02 4.404638920878675431e-06
8.347173586793396680e+02 4.419232911625225967e-06
8.356178089044522039e+02 4.433912535069159672e-06
8.365182591295647399e+02 4.448687415806424547e-06
8.374187093546772758e+02 4.463573440296786928e-06
8.383191595797898117e+02 4.478581266865827132e-06
8.392196098049024613e+02 4.493646924079765959e-06
8.401200600300149972e+02 4.508627549019427762e-06
8.410205102551275331e+02 4.523586078522332062e-06
8.419209604802400690e+02 4.538651251695883027e-06
8.428214107053526050e+02 4.553838957849766423e-06
8.437218609304651409e+02 4.569133160842676677e-06
8.446223111555777905e+02 4.584522047915916989e-06
8.455227613806903264e+02 4.599999428592873981e-06
8.464232116058028623e+02 4.615562154125444782e-06
8.473236618309153982e+02 4.631208782473542774e-06
8.482241120560279342e+02 4.646938721636351810e-06
8.491245622811405838e+02 4.662751741598348966e-06
8.500250125062531197e+02 4.678648010698039710e-06
8.509254627313656556e+02 4.694627874295534046e-06
8.518259129564781915e+02 4.710691719914428592e-06
8.527263631815907274e+02 4.726839991795865500e-06
8.536268134067032634e+02 4.743073148440507913e-06
8.545272636318159130e+02 4.759391682574117043e-06
8.554277138569284489e+02 4.775796179535329785e-06
8.563281640820409848e+02 4.792287243742992994e-06
8.572286143071535207e+02 4.808865533076256725e-06
8.581290645322660566e+02 4.825531711875360427e-06
8.590295147573785925e+02 4.842286446453033411e-06
8.599299649824912422e+02 4.859130641527759407e-06
8.608304152076037781e+02 4.876065434713560427e-06
8.617308654327163140e+02 4.893091337865586379e-06
8.626313156578288499e+02 4.910206044319284328e-06
8.635317658829413858e+02 4.927407256960152180e-06
8.644322161080540354e+02 4.944699119085801202e-06
8.653326663331665713e+02 4.962084855152768437e-06
8.662331165582791073e+02 4.979565007854457562e-06
8.671335667833916432e+02 4.997139755385666260e-06
8.680340170085041791e+02 5.014809493804432548e-06
8.689344672336167150e+02 5.032574755128908153e-06
8.698349174587293646e+02 5.050436156405817123e-06
8.707353676838419005e+02 5.068394379015874755e-06
8.716358179089544365e+02 5.086450134510772810e-06
8.725362681340669724e+02 5.104604123068731678e-06
8.734367183591795083e+02 5.122856928589796812e-06
8.743371685842921579e+02 5.141209086824128472e-06
8.752376188094046938e+02 5.159661287932775323e-06
8.761380690345172297e+02 5.178214605553282947e-06
8.770385192596297657e+02 5.196870097743451414e-06
8.779389694847423016e+02 5.215628696749756718e-06
8.788394197098548375e+02 5.234491424678592657e-06
8.797398699349674871e+02 5.253459620807533503e-06
8.806403201600800230e+02 5.272535125558415113e-06
8.815407703851925589e+02 5.291720674372138753e-06
8.824412206103050949e+02 5.311020697852450214e-06
8.833416708354176308e+02 5.330441711889840336e-06
8.842421210605301667e+02 5.349985490031447061e-06
8.851425712856428163e+02 5.369620682564707199e-06
8.860430215107553522e+02 5.389305654234261976e-06
8.869434717358678881e+02 5.409078943621804316e-06
8.878439219609804240e+02 5.428976135118551116e-06
8.887443721860929600e+02 5.448997974282263888e-06
8.896448224112056096e+02 5.469141024737813579e-06
8.905452726363181455e+02 5.489402852150889691e-06
8.914457228614306814e+02 5.509782130837180616e-06
8.923461730865432173e+02 5.530278622690319117e-06
8.932466233116557532e+02 5.550892576018997087e-06
8.941470735367682892e+02 5.571624531219058274e-06
8.950475237618809388e+02 5.592475227431906604e-06
8.959479739869934747e+02 5.613445554952460791e-06
8.968484242121060106e+02 5.634536615615655261e-06
8.977488744372185465e+02 5.655749727272783129e-06
8.986493246623310824e+02 5.677086499924265915e-06
8.995497748874437320e+02 5.698548891978990679e-06
9.004502251125562680e+02 5.720138690076040728e-06
9.013506753376688039e+02 5.741856468787043624e-06
9.022511255627813398e+02 5.763705299347946980e-06
9.031515757878938757e+02 5.785693975759709986e-06
9.040520260130064116e+02 5.807836693147645168e-06
9.049524762381190612e+02 5.830155636890791623e-06
9.058529264632315972e+02 5.852674941603192001e-06
9.067533766883441331e+02 5.875348448183632382e-06
9.076538269134566690e+02 5.897959993830972503e-06
9.085542771385692049e+02 5.920484789706234142e-06
9.094547273636817408e+02 5.943147963577338007e-06
9.103551775887943904e+02 5.966017182445009932e-06
9.112556278139069263e+02 5.989072524154139493e-06
9.121560780390194623e+02 6.012293369057960768e-06
9.130565282641319982e+02 6.035668565706593909e-06
9.139569784892445341e+02 6.059192216887090910e-06
9.148574287143571837e+02 6.082858680490348920e-06
9.157578789394697196e+02 6.106665445376892632e-06
9.166583291645822555e+02 6.130615866527482958e-06
9.175587793896947915e+02 6.154711622466581893e-06
9.184592296148073274e+02 6.178953055282301796e-06
9.193596798399198633e+02 6.203340936999181049e-06
9.202601300650325129e+02 6.227876135518550660e-06
9.211605802901450488e+02 6.252559602104635527e-06
9.220610305152575847e+02 6.277392442073073250e-06
9.229614807403701207e+02 6.302375937139203363e-06
9.238619309654826566e+02 6.327511790427748012e-06
9.247623811905953062e+02 6.352802152084669996e-06
9.256628314157078421e+02 6.378249884786549168e-06
9.265632816408203780e+02 6.403858734557582543e-06
9.274637318659329139e+02 6.429632049176722338e-06
9.283641820910454499e+02 6.455565233796740427e-06
9.292646323161579858e+02 6.481631662502812091e-06
9.301650825412706354e+02 6.507826896557572062e-06
9.310655327663831713e+02 6.534182822780859976e-06
9.319659829914957072e+02 6.560710906763906080e-06
9.328664332166082431e+02 6.587409648065429143e-06
9.337668834417207790e+02 6.614277336488057297e-06
9.346673336668334287e+02 6.641313580153647514e-06
9.355677838919459646e+02 6.668518805669750757e-06
9.364682341170585005e+02 6.695893906267061277e-06
9.373686843421710364e+02 6.723440000405640814e-06
9.382691345672835723e+02 6.751158301835783590e-06
9.391695847923961082e+02 6.779050042520744703e-06
9.400700350175087578e+02 6.807116265748470116e-06
9.409704852426212938e+02 6.835358488073760474e-06
9.418709354677338297e+02 6.863778663154727968e-06
9.427713856928463656e+02 6.892378342887227058e-06
9.436718359179589015e+02 6.921159231778135215e-06
9.445722861430714374e+02 6.950123396823451885e-06
9.454727363681840870e+02 6.979273113137966013e-06
9.463731865932966230e+02 7.008611193185810610e-06
9.472736368184091589e+02 7.038141636478218975e-06
9.481740870435216948e+02 7.067870145139479363e-06
9.490745372686342307e+02 7.097800701653095375e-06
9.499749874937468803e+02 7.127915728612997174e-06
9.508754377188594162e+02 7.158179418643114859e-06
9.517758879439719522e+02 7.188613828803554597e-06
9.526763381690844881e+02 7.219253357243882554e-06
9.535767883941970240e+02 7.250102723563807233e-06
9.544772386193095599e+02 7.281159201167573159e-06
9.553776888444222095e+02 7.312421262064519255e-06
9.562781390695347454e+02 7.343888816910422549e-06
9.571785892946472813e+02 7.375562656570978355e-06
9.580790395197598173e+02 7.407444140274078724e-06
9.589794897448723532e+02 7.439534791595141636e-06
9.598799399699850028e+02 7.471836294968337302e-06
9.607803901950975387e+02 7.504350442504938471e-06
9.616808404202100746e+02 7.537078983933193039e-06
9.625812906453226105e+02 7.570023465237005154e-06
9.634817408704351465e+02 7.603185658789682639e-06
9.643821910955476824e+02 7.636567914391123544e-06
9.652826413206603320e+02 7.670172455839513397e-06
9.661830915457728679e+02 7.704001409218676571e-06
9.670835417708854038e+02 7.738057189022331283e-06
9.679839919959979397e+02 7.772342692008553727e-06
9.688844422211104757e+02 7.806861435987085324e-06
9.697848924462230116e+02 7.841616642094218477e-06
9.706853426713356612e+02 7.876605177003604696e-06
9.715857928964481971e+02 7.911814619219101997e-06
9.724862431215607330e+02 7.947250731428028004e-06
9.733866933466732689e+02 7.982929264774605389e-06
9.742871435717858049e+02 8.018854620351934274e-06
9.751875937968984545e+02 8.055027454793609542e-06
9.760880440220109904e+02 8.091448947410288296e-06
9.769884942471235263e+02 8.128120749683681728e-06
9.778889444722360622e+02 8.165044778968075839e-06
9.787893946973485981e+02 8.202223135325087611e-06
9.796898449224611340e+02 8.239658138423411912e-06
9.805902951475737837e+02 8.277352292317951489e-06
9.814907453726863196e+02 8.315308088500550246e-06
9.823911955977988555e+02 8.353528299025429619e-06
9.832916458229113914e+02 8.392016062139604903e-06
9.841920960480239273e+02 8.430774711847206679e-06
9.850925462731365769e+02 8.469808318124441519e-06
9.859929964982491128e+02 8.509122164717853560e-06
9.868934467233616488e+02 8.548723591078983828e-06
9.877938969484741847e+02 8.588624136573483355e-06
9.886943471735867206e+02 8.628843067081777565e-06
9.895947973986992565e+02 8.669409548948642881e-06
9.904952476238119061e+02 8.710334064939959412e-06
9.913956978489244420e+02 8.751478614882470807e-06
9.922961480740369780e+02 8.792634379132046278e-06
9.931965982991495139e+02 8.833966271896911095e-06
9.940970485242620498e+02 8.875657003411675360e-06
9.949974987493745857e+02 8.917716707906907922e-06
9.958979489744872353e+02 8.960121113265869051e-06
9.967983991995997712e+02 9.002854631928485418e-06
9.976988494247123072e+02 9.045910082445275918e-06
9.985992996498248431e+02 9.089284912690149591e-06
9.994997498749373790e+02 9.132979151896497048e-06
1.000400200100050029e+03 9.176994142368937593e-06
1.001300650325162565e+03 9.221331922406840603e-06
1.002201100550275100e+03 9.265994970754571738e-06
1.003101550775387636e+03 9.310986015715879286e-06
1.004002001000500172e+03 9.356308049932864039e-06
1.004902451225612708e+03 9.401964215424822851e-06
1.005802901450725358e+03 9.447957757661888461e-06
1.006703351675837894e+03 9.494292233308994209e-06
1.007603801900950430e+03 9.540971647718430438e-06
1.008504252126062966e+03 9.588000591645002527e-06
1.009404702351175501e+03 9.635384511945390768e-06
1.010305152576288151e+03 9.683128677640949234e-06
1.011205602801400687e+03 9.731229815731541220e-06
1.012106053026513223e+03 9.779670556165153704e-06
1.013006503251625759e+03 9.828458184896659696e-06
1.013906953476738295e+03 9.877616430455998258e-06
1.014807403701850831e+03 9.927152935192272730e-06
1.015707853926963480e+03 9.977068988214663029e-06
1.016608304152076016e+03 1.002736618489066029e-05
1.017508754377188552e+03 1.007804745933898704e-05
1.018409204602301088e+03 1.012911647797040720e-05
1.019309654827413624e+03 1.018057695088637426e-05
1.020210105052526160e+03 1.023243255951602064e-05
1.021110555277638809e+03 1.028468697322122896e-05
1.022011005502751345e+03 1.033734418116011228e-05
1.022911455727863881e+03 1.039040866931932769e-05
1.023811905952976417e+03 1.044388493488221346e-05
1.024712356178089067e+03 1.049777732747919715e-05
1.025612806403201603e+03 1.055209050950656163e-05
1.026513256628314139e+03 1.060682947168117511e-05
1.027413706853426675e+03 1.066199987216087369e-05
1.028314157078539210e+03 1.071760869353812149e-05
1.029214607303651746e+03 1.077366440262178498e-05
1.030115057528764282e+03 1.083017409927587042e-05
1.031015507753876818e+03 1.088712562325215811e-05
1.031915957978989354e+03 1.094448693888392106e-05
1.032816408204101890e+03 1.100227951372724153e-05
1.033716858429214653e+03 1.106054091739271783e-05
1.034617308654327189e+03 1.111927982406517926e-05
1.035517758879439725e+03 1.117849694472741043e-05
1.036418209104552261e+03 1.123819403913979719e-05
1.037318659329664797e+03 1.129837463258255579e-05
1.038219109554777333e+03 1.135904315173738235e-05
1.039119559779889869e+03 1.142020453104902623e-05
1.040020010005002405e+03 1.148186385348540682e-05
1.040920460230114941e+03 1.154402610513623431e-05
1.041820910455227477e+03 1.160669671278285592e-05
1.042721360680340013e+03 1.166988185399638263e-05
1.043621810905452776e+03 1.173358793611780455e-05
1.044522261130565312e+03 1.179782157853130742e-05
1.045422711355677848e+03 1.186259022387584937e-05
1.046323161580790384e+03 1.192790290980665747e-05
1.047223611805902920e+03 1.199377152733335405e-05
1.048124062031015455e+03 1.206021268433205472e-05
1.049024512256127991e+03 1.212724467701020916e-05
1.049924962481240527e+03 1.219484964610064996e-05
1.050825412706353063e+03 1.226292166944855612e-05
1.051725862931465599e+03 1.233145340404323888e-05
1.052626313156578135e+03 1.240056731898060299e-05
1.053526763381690898e+03 1.247030437529929332e-05
1.054427213606803434e+03 1.254066003453329504e-05
1.055327663831915970e+03 1.261163021114848158e-05
1.056228114057028506e+03 1.268321584758850278e-05
1.057128564282141042e+03 1.275542089677251383e-05
1.058029014507253578e+03 1.282825078991866627e-05
1.058929464732366114e+03 1.290171057273656322e-05
1.059829914957478650e+03 1.297580265502718417e-05
1.060730365182591186e+03 1.305053082832459006e-05
1.061630815407703722e+03 1.312590685398517741e-05
1.062531265632816257e+03 1.320194193442125367e-05
1.063431715857929021e+03 1.327864363984652454e-05
1.064332166083041557e+03 1.335601955708063437e-05
1.065232616308154093e+03 1.343407782928371007e-05
1.066133066533266629e+03 1.351282741506318745e-05
1.067033516758379164e+03 1.359227848464148659e-05
1.067933966983491700e+03 1.367244023645301906e-05
1.068834417208604236e+03 1.375331146852245732e-05
1.069734867433716772e+03 1.383488225359168235e-05
1.070635317658829308e+03 1.391717057214455454e-05
1.071535767883941844e+03 1.400020088923660972e-05
1.072436218109054380e+03 1.408398387882587780e-05
1.073336668334167143e+03 1.416852703764027780e-05
1.074237118559279679e+03 1.425383805998314596e-05
1.075137568784392215e+03 1.433992519928719939e-05
1.076038019009504751e+03 1.442679728300687799e-05
1.076938469234617287e+03 1.451446361300522338e-05
1.077838919459729823e+03 1.460293402430569011e-05
1.078739369684842359e+03 1.469221849474686292e-05
1.079639819909954895e+03 1.478232668915187602e-05
1.080540270135067431e+03 1.487326829794116377e-05
1.081440720360179967e+03 1.496505479964002330e-05
1.082341170585292502e+03 1.505769834488828322e-05
1.083241620810405038e+03 1.515121204579566406e-05
1.084142071035517802e+03 1.524561122623726075e-05
1.085042521260630338e+03 1.534091350270483476e-05
1.085942971485742873e+03 1.543713106827303728e-05
1.086843421710855409e+03 1.553423752670808082e-05
1.087743871935967945e+03 1.563219272032777960e-05
1.088644322161080481e+03 1.573105253507741915e-05
1.089544772386193017e+03 1.583087217106829994e-05
1.090445222611305553e+03 1.593166390419834103e-05
1.091345672836418089e+03 1.603343380638408509e-05
1.092246123061530625e+03 1.613619033219030189e-05
1.093146573286643161e+03 1.623994361547172839e-05
1.094047023511755924e+03 1.634470504286126294e-05
1.094947473736868460e+03 1.645048685403033335e-05
1.095847923961980996e+03 1.655730181647218919e-05
1.096748374187093532e+03 1.666516327635733302e-05
1.097648824412206068e+03 1.677408500935570067e-05
1.098549274637318604e+03 1.688408115460339904e-05
1.099449724862431140e+03 1.699516636368352297e-05
1.100350175087543676e+03 1.710735604765845229e-05
1.101250625312656211e+03 1.722066715104806752e-05
1.102151075537768747e+03 1.733511772682852229e-05
1.103051525762881283e+03 1.745072123021029011e-05
1.103951975987994047e+03 1.756747035715569639e-05
1.104852426213106583e+03 1.768536507047705725e-05
1.105752876438219118e+03 1.780444736438775011e-05
1.106653326663331654e+03 1.792474775988193051e-05
1.107553776888444190e+03 1.804628134938859364e-05
1.108454227113556726e+03 1.816906176393419235e-05
1.109354677338669262e+03 1.829310428716105931e-05
1.110255127563781798e+03 1.841842523898988673e-05
1.111155577788894334e+03 1.854504190926184392e-05
1.112056028014006870e+03 1.867297284061708164e-05
1.112956478239119406e+03 1.880223712317656004e-05
1.113856928464232169e+03 1.893285455513582261e-05
1.114757378689344705e+03 1.906484585755241942e-05
1.115657828914457241e+03 1.919823387556022633e-05
1.116558279139569777e+03 1.933304606422774899e-05
1.117458729364682313e+03 1.946931614887231922e-05
1.118359179589794849e+03 1.960707198077368102e-05
1.119259629814907385e+03 1.974627301453906012e-05
1.120160080040019920e+03 1.988682159795277337e-05
1.121060530265132456e+03 2.002880468305881514e-05
1.121960980490244992e+03 2.017234848406992858e-05
1.122861430715357528e+03 2.031748481094576187e-05
1.123761880940470292e+03 2.046422220424721605e-05
1.124662331165582827e+03 2.061257362220850144e-05
1.125562781390695363e+03 2.076255539831809756e-05
1.126463231615807899e+03 2.091419170641124021e-05
1.127363681840920435e+03 2.106751299434101018e-05
1.128264132066032971e+03 2.122254981871360299e-05
1.129164582291145507e+03 2.137933328681476550e-05
1.130065032516258043e+03 2.153790821292795319e-05
1.130965482741370579e+03 2.169834541796358484e-05
1.131865932966483115e+03 2.186072314879920468e-05
1.132766383191595651e+03 2.202501187405462655e-05
1.133666833416708187e+03 2.219083236898390489e-05
1.134567283641820950e+03 2.235803815910066404e-05
1.135467733866933486e+03 2.252711392935901903e-05
1.136368184092046022e+03 2.269828644473722483e-05
1.137268634317158558e+03 2.287152729943120534e-05
1.138169084542271094e+03 2.304679498361915594e-05
1.139069534767383630e+03 2.322412706529711327e-05
1.139969984992496165e+03 2.340356593403507748e-05
1.140870435217608701e+03 2.358512862522910177e-05
1.141770885442721237e+03 2.376879394773375281e-05
1.142671335667833773e+03 2.395457855741346578e-05
1.143571785892946309e+03 2.414257281404557943e-05
1.144472236118059072e+03 2.433281950905287320e-05
1.145372686343171608e+03 2.452530515332656763e-05
1.146273136568284144e+03 2.472005466121498420e-05
1.147173586793396680e+03 2.491714862481595450e-05
1.148074037018509216e+03 2.511663631122942005e-05
1.148974487243621752e+03 2.531855088854001980e-05
1.149874937468734288e+03 2.552294053679877718e-05
1.150775387693846824e+03 2.572986221282353843e-05
1.151675837918959360e+03 2.593938323086418762e-05
1.152576288144071896e+03 2.615155627364278761e-05
1.153476738369184432e+03 2.636628381432595461e-05
1.154377188594297195e+03 2.658337940760411219e-05
1.155277638819409731e+03 2.680305079791222675e-05
1.156178089044522267e+03 2.702555235876453134e-05
1.157078539269634803e+03 2.725094778997567171e-05
1.157978989494747339e+03 2.747920908383068211e-05
1.158879439719859874e+03 2.771026781405020023e-05
1.159779889944972410e+03 2.794420720363463692e-05
1.160680340170084946e+03 2.818115694771389235e-05
1.161580790395197482e+03 2.842117404952323182e-05
1.162481240620310018e+03 2.866429720399954150e-05
1.163381690845422554e+03 2.891056988410240145e-05
1.164282141070535317e+03 2.916004090563484522e-05
1.165182591295647853e+03 2.941276265298824975e-05
1.166083041520760389e+03 2.966878997575494116e-05
1.166983491745872925e+03 2.992817963593115258e-05
1.167883941970985461e+03 3.019099004264040641e-05
1.168784392196097997e+03 3.045728112899444284e-05
1.169684842421210533e+03 3.072711430075100557e-05
1.170585292646323069e+03 3.100055242290521195e-05
1.171485742871435605e+03 3.127765982744139527e-05
1.172386193096548141e+03 3.155850233366437558e-05
1.173286643321660677e+03 3.184314727658756565e-05
1.174187093546773440e+03 3.213166354099066143e-05
1.175087543771885976e+03 3.242412160000870806e-05
1.175987993996998512e+03 3.272059355796743698e-05
1.176888444222111048e+03 3.302115319804546423e-05
1.177788894447223583e+03 3.332587603660773387e-05
1.178689344672336119e+03 3.363483938843379731e-05
1.179589794897448655e+03 3.394812245191786913e-05
1.180490245122561191e+03 3.426580643240857422e-05
1.181390695347673727e+03 3.458797472885715042e-05
1.182291145572786263e+03 3.491471312428059937e-05
1.183191595797898799e+03 3.524610920516194317e-05
1.184092046023011562e+03 3.558224887523284678e-05
1.184992496248124098e+03 3.592321652054803372e-05
1.185892946473236634e+03 3.626910458756303082e-05
1.186793396698349170e+03 3.662001252051152208e-05
1.187693846923461706e+03 3.697604331503946180e-05
1.188594297148574242e+03 3.733729552829343152e-05
1.189494747373686778e+03 3.770386596495074933e-05
1.190395197598799314e+03 3.807586265781255142e-05
1.191295647823911850e+03 3.845339706466222273e-05
1.192196098049024386e+03 3.883658006251124032e-05
1.193096548274136921e+03 3.922552329761282077e-05
1.193996998499249457e+03 3.962034109790299837e-05
1.194897448724362221e+03 4.002115250569039006e-05
1.195797898949474757e+03 4.042808044347891112e-05
1.196698349174587293e+03 4.084124991850549105e-05
1.197598799399699828e+03 4.126078859645086408e-05
1.198499249624812364e+03 4.168682833929264562e-05
1.199399699849924900e+03 4.211950429320462865e-05
1.200300150075037436e+03 4.255895394259362046e-05
1.201200600300149972e+03 4.300531920677209101e-05
1.202101050525262508e+03 4.345874670229982141e-05
1.203001500750375044e+03 4.391938605794855973e-05
1.203901950975487580e+03 4.438739142765107520e-05
1.204802401200600343e+03 4.486292123645111525e-05
1.205702851425712879e+03 4.534613762792483340e-05
1.206603301650825415e+03 4.583720703095749702e-05
1.207503751875937951e+03 4.633629899108741374e-05
1.208404202101050487e+03 4.684358754650685459e-05
1.209304652326163023e+03 4.735925458194609872e-05
1.210205102551275559e+03 4.788348714545558190e-05
1.211105552776388095e+03 4.841647644251970595e-05
1.212006003001500630e+03 4.895841850199803144e-05
1.212906453226613166e+03 4.950951418276327838e-05
1.213806903451725702e+03 5.006996960805362132e-05
1.214707353676838466e+03 5.063999871866762913e-05
1.215607803901951002e+03 5.121982166090439383e-05
1.216508254127063537e+03 5.180966347889417155e-05
1.217408704352176073e+03 5.240975585536013947e-05
1.218309154577288609e+03 5.302033798448366609e-05
1.219209604802401145e+03 5.364165585304142829e-05
1.220110055027513681e+03 5.427396271736502218e-05
1.221010505252626217e+03 5.491751934747093569e-05
1.221910955477738753e+03 5.557259429133593943e-05
1.222811405702851289e+03 5.623946429898871602e-05
1.223711855927963825e+03 5.691841434045538472e-05
1.224612306153076588e+03 5.760973652816327108e-05
1.225512756378189124e+03 5.831373213793515273e-05
1.226413206603301660e+03 5.903071436466676789e-05
1.227313656828414196e+03 5.976100536723147268e-05
1.228214107053526732e+03 6.050493639512735379e-05
1.229114557278639268e+03 6.126284940579470770e-05
1.230015007503751804e+03 6.203509653169260387e-05
1.230915457728864340e+03 6.282204076727120751e-05
1.231815907953976875e+03 6.362405781948796634e-05
1.232716358179089411e+03 6.444153587721433577e-05
1.233616808404201947e+03 6.527487553926870196e-05
1.234517258629314711e+03 6.612449025894516789e-05
1.235417708854427246e+03 6.699080586847853676e-05
1.236318159079539782e+03 6.787426016662105610e-05
1.237218609304652318e+03 6.877530837661423378e-05
1.238119059529764854e+03 6.969442365784657076e-05
1.239019509754877390e+03 7.063209319224916230e-05
1.239919959979989926e+03 7.158882028581349673e-05
1.240820410205102462e+03 7.256512606196411112e-05
1.241720860430214998e+03 7.356154956268970370e-05
1.242621310655327534e+03 7.457864963240927101e-05
1.243521760880440070e+03 7.561700723135537103e-05
1.244422211105552606e+03 7.667722696718507511e-05
1.245322661330665369e+03 7.775994202583632318e-05
1.246223111555777905e+03 7.886581431945747112e-05
1.247123561780890441e+03 7.999550265658194844e-05
1.248024012006002977e+03 8.114959867437140765e-05
1.248924462231115513e+03 8.232875465465007859e-05
1.249824912456228049e+03 8.353376546686217918e-05
1.250725362681340584e+03 8.476541596217837668e-05
1.251625812906453120e+03 8.602451091751708986e-05
1.252526263131565656e+03 8.731187237608451586e-05
1.253426713356678192e+03 8.862840597126316359e-05
1.254327163581790728e+03 8.997507452598090482e-05
1.255227613806903491e+03 9.135281005466225270e-05
1.256128064032016027e+03 9.276236337056271498e-05
1.257028514257128563e+03 9.420450543436293658e-05
1.257928964482241099e+03 9.568038630969616517e-05
1.258829414707353635e+03 9.719115017537259689e-05
1.259729864932466171e+03 9.873794853566090503e-05
1.260630315157578707e+03 1.003218324457587319e-04
1.261530765382691243e+03 1.019441878188706975e-04
1.262431215607803779e+03 1.036063617007652426e-04
1.263331665832916315e+03 1.053096314707051572e-04
1.264232116058028851e+03 1.070553325012944530e-04
1.265132566283141614e+03 1.088448285343816905e-04
1.266033016508254150e+03 1.106795719396910847e-04
1.266933466733366686e+03 1.125611913062364453e-04
1.267833916958479222e+03 1.144913478851728838e-04
1.268734367183591758e+03 1.164717617204730774e-04
1.269634817408704293e+03 1.185043224402063735e-04
1.270535267633816829e+03 1.205908966270762380e-04
1.271435717858929365e+03 1.227328219413770108e-04
1.272336168084041901e+03 1.249311617479151651e-04
1.273236618309154437e+03 1.271883093748190057e-04
1.274137068534266973e+03 1.295072559174285302e-04
1.275037518759379736e+03 1.318905310829677092e-04
1.275937968984492272e+03 1.343405586627214893e-04
1.276838419209604808e+03 1.368597284538663453e-04
1.277738869434717344e+03 1.394503996147268359e-04
1.278639319659829880e+03 1.421153115802710281e-04
1.279539769884942416e+03 1.448574876160053796e-04
1.280440220110054952e+03 1.476799221243521435e-04
1.281340670335167488e+03 1.505856253367430901e-04
1.282241120560280024e+03 1.535779123149321336e-04
1.283141570785392560e+03 1.566602071942138066e-04
1.284042021010505096e+03 1.598360757617254581e-04
1.284942471235617859e+03 1.631095009136721268e-04
1.285842921460730395e+03 1.664845875978290910e-04
1.286743371685842931e+03 1.699655855976930344e-04
1.287643821910955467e+03 1.735569907785054658e-04
1.288544272136068003e+03 1.772635130508927719e-04
1.289444722361180538e+03 1.810900364280609149e-04
1.290345172586293074e+03 1.850417224213083409e-04
1.291245622811405610e+03 1.891242258588887346e-04
1.292146073036518146e+03 1.933435024043321212e-04
1.293046523261630682e+03 1.977056686416311633e-04
1.293946973486743218e+03 2.022169570448521575e-04
1.294847423711855754e+03 2.068838914188218868e-04
1.295747873936968517e+03 2.117140248883107043e-04
1.296648324162081053e+03 2.167154668839046938e-04
1.297548774387193589e+03 2.218964500568188706e-04
1.298449224612306125e+03 2.272655186749559717e-04
1.299349674837418661e+03 2.328318641086636858e-04
1.300250125062531197e+03 2.386053795315671948e-04
1.301150575287643733e+03 2.445965201745208353e-04
1.302051025512756269e+03 2.508161655786746375e-04
1.302951475737868805e+03 2.572756662191633928e-04
1.303851925962981340e+03 2.639877384456711801e-04
1.304752376188093876e+03 2.709658900858433195e-04
1.305652826413206640e+03 2.782242892498987567e-04
1.306553276638319176e+03 2.857782957875150734e-04
1.307453726863431712e+03 2.936440661148442539e-04
1.308354177088544247e+03 3.018391371268678929e-04
1.309254627313656783e+03 3.103824354507941810e-04
1.310155077538769319e+03 3.192941534038230876e-04
1.311055527763881855e+03 3.285960643887193551e-04
1.311955977988994391e+03 3.383115224122516351e-04
1.312856428214106927e+03 3.484642072790319813e-04
1.313756878439219463e+03 3.590765699887976995e-04
1.314657328664331999e+03 3.701771885266254259e-04
1.315557778889444762e+03 3.818011237170726912e-04
1.316458229114557298e+03 3.939826621749843564e-04
1.317358679339669834e+03 4.067574412881741291e-04
1.318259129564782370e+03 4.201642802267367238e-04
1.319159579789894906e+03 4.342453468279112668e-04
1.320060030015007442e+03 4.490463978240196406e-04
1.320960480240119978e+03 4.646170541195582412e-04
1.321860930465232514e+03 4.810116735787750520e-04
1.322761380690345050e+03 4.982895788282594787e-04
1.323661830915457585e+03 5.165144885802188529e-04
1.324562281140570121e+03 5.357562082752113930e-04
1.325462731365682885e+03 5.560925328986456766e-04
1.326363181590795421e+03 5.776086796662888156e-04
1.327263631815907956e+03 6.003980445555273790e-04
1.328164082041020492e+03 6.245630258940967254e-04
1.329064532266133028e+03 6.502160322494702485e-04
1.329964982491245564e+03 6.774804383967069016e-04
1.330865432716358100e+03 7.064942044550131433e-04
1.331765882941470636e+03 7.374116706543212395e-04
1.332666333166583172e+03 7.704031383340922447e-04
1.333566783391695708e+03 8.056573344531479984e-04
1.334467233616808244e+03 8.433854782339180595e-04
1.335367683841921007e+03 8.838249443180163202e-04
1.336268134067033543e+03 9.272416166543909427e-04
1.337168584292146079e+03 9.739341263442213023e-04
1.338069034517258615e+03 1.024239847797753580e-03
1.338969484742371151e+03 1.078540284997101884e-03
1.339869934967483687e+03 1.137270797276169034e-03
1.340770385192596223e+03 1.200927437630049024e-03
1.341670835417708759e+03 1.270075969082551251e-03
1.342571285642821294e+03 1.345364672360954608e-03
1.343471735867933830e+03 1.427541661483144788e-03
1.344372186093046366e+03 1.517473972812090734e-03
1.345272636318158902e+03 1.616167047639379805e-03
1.346173086543271666e+03 1.724788267065398110e-03
1.347073536768384201e+03 1.844706771845301208e-03
1.347973986993496737e+03 1.977551250996923467e-03
1.348874437218609273e+03 2.125250442995207326e-03
1.349774887443721809e+03 2.290097633833468836e-03
1.350675337668834345e+03 2.474843922696636118e-03
1.351575787893946881e+03 2.682815119339152996e-03
1.352476238119059417e+03 2.918060859795389064e-03
1.353376688344171953e+03 3.185548112838697873e-03
1.354277138569284489e+03 3.491423578973362318e-03
1.355177588794397025e+03 3.843370325847735979e-03
1.356078039019509788e+03 4.251082870653228978e-03
1.356978489244622324e+03 4.726927219237219216e-03
1.357878939469734860e+03 5.286877351385743141e-03
1.358779389694847396e+03 5.951848606506175178e-03
1.359679839919959932e+03 6.749629154520796377e-03
1.360580290145072468e+03 7.717753815184912568e-03
1.361480740370185003e+03 8.907866766786487131e-03
1.362381190595297539e+03 1.039250168534122491e-02
1.363281640820410075e+03 1.227595667457932055e-02
1.364182091045522611e+03 1.471222340286065799e-02
1.365082541270635147e+03 1.793554628467149137e-02
1.365982991495747910e+03 2.231464675333691070e-02
1.366883441720860446e+03 2.845277891750985430e-02
1.367783891945972982e+03 3.737997579061479864e-02
1.368684342171085518e+03 5.093534195520769969e-02
1.369584792396198054e+03 7.252946410996598259e-02
1.370485242621310590e+03 1.084985243761067975e-01
1.371385692846423126e+03 1.689044029085922938e-01
1.372286143071535662e+03 2.564736218250971422e-01
1.373186593296648198e+03 3.174238587304594739e-01
1.374087043521760734e+03 2.723663390228327486e-01
1.374987493746873270e+03 1.829866071496308866e-01
1.375887943971986033e+03 1.171928233540067005e-01
1.376788394197098569e+03 7.766485644945543554e-02
1.377688844422211105e+03 5.407383318258806443e-02
1.378589294647323641e+03 3.939358404183168627e-02
1.379489744872436177e+03 2.980586184102936367e-02
1.380390195097548713e+03 2.326131219027910424e-02
1.381290645322661248e+03 1.862098633605186251e-02
1.382191095547773784e+03 1.522307840602718336e-02
1.383091545772886320e+03 1.266611197353424527e-02
1.383991995997998856e+03 1.069679412047951951e-02
1.384892446223111392e+03 9.149532432905461629e-03
1.385792896448224155e+03 7.912739177039914210e-03
1.386693346673336691e+03 6.909150917639966805e-03
1.387593796898449227e+03 6.083967691899080585e-03
1.388494247123561763e+03 5.397499842812261001e-03
1.389394697348674299e+03 4.820458506131393428e-03
1.390295147573786835e+03 4.330863904684960526e-03
1.391195597798899371e+03 3.911970581633454798e-03
1.392096048024011907e+03 3.550844854869444379e-03
1.392996498249124443e+03 3.237363132350311312e-03
1.393896948474236979e+03 2.963498559844501661e-03
1.394797398699349515e+03 2.722857809533376500e-03
1.395697848924462278e+03 2.510306193096529127e-03
1.396598299149574814e+03 2.321652910893659983e-03
1.397498749374687350e+03 2.153453307160002345e-03
1.398399199599799886e+03 2.002860344811485324e-03
1.399299649824912422e+03 1.867505250122916292e-03
1.400200100050024957e+03 1.745405076756230715e-03
1.401100550275137493e+03 1.634890905719529278e-03
1.402001000500250029e+03 1.534551889919275524e-03
1.402901450725362565e+03 1.443190601638808012e-03
1.403801900950475101e+03 1.359776380703932828e-03
1.404702351175587637e+03 1.283370447247403215e-03
1.405602801400700173e+03 1.213133010999562292e-03
1.406503251625812936e+03 1.148457284026894098e-03
1.407403701850925472e+03 1.088825756010369187e-03
1.408304152076038008e+03 1.033734638073655889e-03
1.409204602301150544e+03 9.827317340641741721e-04
1.410105052526263080e+03 9.354224057888476090e-04
1.411005502751375616e+03 8.914598880934968992e-04
1.411905952976488152e+03 8.505251499636606091e-04
1.412806403201600688e+03 8.123199634069796669e-04
1.413706853426713224e+03 7.766137396871187386e-04
1.414607303651825760e+03 7.432139754173281267e-04
1.415507753876938295e+03 7.119281721683698569e-04
1.416408204102051059e+03 6.825748502974163809e-04
1.417308654327163595e+03 6.549972663143320680e-04
1.418209104552276131e+03 6.290583557213160577e-04
1.419109554777388666e+03 6.046313179605077547e-04
1.420010005002501202e+03 5.816004074284309875e-04
1.420910455227613738e+03 5.598608825618324502e-04
1.421810905452726274e+03 5.393178338922588336e-04
1.422711355677838810e+03 5.198850607272153439e-04
1.423611805902951346e+03 5.014841118190447580e-04
1.424512256128063882e+03 4.840434621602742165e-04
1.425412706353176418e+03 4.674976829733121686e-04
1.426313156578289181e+03 4.517862826957855368e-04
1.427213606803401717e+03 4.368535424721961915e-04
1.428114057028514253e+03 4.226506119488769890e-04
1.429014507253626789e+03 4.091329036671006070e-04
1.429914957478739325e+03 3.962548867437334183e-04
1.430815407703851861e+03 3.839669973192477649e-04
1.431715857928964397e+03 3.722330592745812542e-04
1.432616308154076933e+03 3.610289013196960701e-04
1.433516758379189469e+03 3.503254875423754671e-04
1.434417208604302004e+03 3.400927730309147344e-04
1.435317658829414540e+03 3.303029204639360656e-04
1.436218109054527304e+03 3.209302617552778044e-04
1.437118559279639840e+03 3.119508318297315808e-04
1.438019009504752376e+03 3.033428787741888986e-04
1.438919459729864911e+03 2.950865148238971769e-04
1.439819909954977447e+03 2.871629466027341175e-04
1.440720360180089983e+03 2.795545571055391100e-04
1.441620810405202519e+03 2.722449436735900532e-04
1.442521260630315055e+03 2.652188703149933663e-04
1.443421710855427591e+03 2.584622822594544091e-04
1.444322161080540127e+03 2.519622996206137989e-04
1.445222611305652663e+03 2.457064304288969470e-04
1.446123061530765426e+03 2.396795783777382744e-04
1.447023511755877962e+03 2.338661337957047401e-04
1.447923961980990498e+03 2.282595973714239177e-04
1.448824412206103034e+03 2.228538469839205153e-04
1.449724862431215570e+03 2.176384549271985383e-04
1.450625312656328106e+03 2.126035315746004290e-04
1.451525762881440642e+03 2.077420686757524941e-04
1.452426213106553178e+03 2.030471444535800207e-04
1.453326663331665713e+03 1.985118760474582737e-04
1.454227113556778249e+03 1.941292971086245114e-04
1.455127563781890785e+03 1.898890501541866552e-04
1.456028014007003321e+03 1.857792919146788286e-04
1.456928464232116085e+03 1.817982929722336549e-04
1.457828914457228620e+03 1.779451750152490292e-04
1.458729364682341156e+03 1.742148332095660491e-04
1.459629814907453692e+03 1.706015501882485457e-04
1.460530265132566228e+03 1.671000996215888333e-04
1.461430715357678764e+03 1.637057341171928629e-04
1.462331165582791300e+03 1.604140600790435189e-04
1.463231615807903836e+03 1.572208980431987130e-04
1.464132066033016372e+03 1.541221935811291259e-04
1.465032516258128908e+03 1.511143473428608439e-04
1.465932966483241444e+03 1.481942185220432723e-04
1.466833416708354207e+03 1.453587754601444210e-04
1.467733866933466743e+03 1.426046260643529533e-04
1.468634317158579279e+03 1.399267609558630613e-04
1.469534767383691815e+03 1.373211113461140598e-04
1.470435217608804351e+03 1.347871435921855956e-04
1.471335667833916887e+03 1.323233232448589125e-04
1.472236118059029423e+03 1.299269637693418555e-04
1.473136568284141958e+03 1.275954941322557433e-04
1.474037018509254494e+03 1.253265921546540455e-04
1.474937468734367030e+03 1.231180992678064003e-04
1.475837918959479566e+03 1.209680611494450838e-04
1.476738369184592329e+03 1.188747654768582921e-04
1.477638819409704865e+03 1.168365689695763051e-04
1.478539269634817401e+03 1.148504714707836920e-04
1.479439719859929937e+03 1.129113938424537299e-04
1.480340170085042473e+03 1.110185669327269875e-04
1.481240620310155009e+03 1.091736136450393300e-04
1.482141070535267545e+03 1.073756944917123561e-04
1.483041520760380081e+03 1.056232892706205338e-04
1.483941970985492617e+03 1.039152720961780511e-04
1.484842421210605153e+03 1.022503348411356723e-04
1.485742871435717689e+03 1.006243152820406999e-04
1.486643321660830452e+03 9.903123138788172256e-05
1.487543771885942988e+03 9.747236122293713239e-05
1.488444222111055524e+03 9.595092449398584262e-05
1.489344672336168060e+03 9.446639931061599890e-05
1.490245122561280596e+03 9.301718506807674276e-05
1.491145572786393132e+03 9.160174880748107461e-05
1.492046023011505667e+03 9.021838710893012548e-05
1.492946473236618203e+03 8.886574436073759571e-05
1.493846923461730739e+03 8.754336210322293367e-05
1.494747373686843275e+03 8.625060931864691192e-05
1.495647823911955811e+03 8.498663722574491069e-05
1.496548274137068574e+03 8.375059556574455109e-05
1.497448724362181110e+03 8.254142113743953178e-05
1.498349174587293646e+03 8.135781992817243643e-05
1.499249624812406182e+03 8.019936779507436705e-05
1.500150075037518718e+03 7.906598739888353851e-05
1.501050525262631254e+03 7.795708793922111689e-05
1.501950975487743790e+03 7.687140265983467748e-05
1.502851425712856326e+03 7.580753150771734261e-05
1.503751875937968862e+03 7.476452447568734483e-05
1.504652326163081398e+03 7.374238979402546667e-05
1.505552776388193934e+03 7.274152810527996591e-05
1.506453226613306470e+03 7.176156956718548184e-05
1.507353676838419233e+03 7.080185911641345546e-05
1.508254127063531769e+03 6.986125831060923134e-05
1.509154577288644305e+03 6.893834086014414284e-05
1.510055027513756841e+03 6.803317014710962181e-05
1.510955477738869376e+03 6.714603623271601625e-05
1.511855927963981912e+03 6.627657918796257840e-05
1.512756378189094448e+03 6.542426839349390125e-05
1.513656828414206984e+03 6.458840897470272179e-05
1.514557278639319520e+03 6.376822959130196036e-05
1.515457728864432056e+03 6.296307863892065208e-05
1.516358179089544592e+03 6.217291552129163143e-05
1.517258629314657355e+03 6.139777872904815938e-05
1.518159079539769891e+03 6.063725183297653267e-05
1.519059529764882427e+03 5.989082648260268365e-05
1.519959979989994963e+03 5.915826661444694893e-05
1.520860430215107499e+03 5.843941719845773387e-05
1.521760880440220035e+03 5.773407201218015434e-05
1.522661330665332571e+03 5.704179081176511019e-05
1.523561780890445107e+03 5.636192898691110400e-05
1.524462231115557643e+03 5.569411372720587435e-05
1.525362681340670179e+03 5.503691360005014442e-05
1.526263131565782714e+03 5.439005470388141156e-05
1.527163581790895478e+03 5.375456091957059833e-05
1.528064032016008014e+03 5.313013445055005303e-05
1.528964482241120550e+03 5.251673379391099317e-05
1.529864932466233086e+03 5.191436396742778208e-05
1.530765382691345621e+03 5.132269621940099965e-05
1.531665832916458157e+03 5.074130378174858391e-05
1.532566283141570693e+03 5.016976623778687724e-05
1.533466733366683229e+03 4.960797702396466319e-05
1.534367183591795765e+03 4.905585168847697013e-05
1.535267633816908301e+03 4.851258143631762329e-05
1.536168084042020837e+03 4.797789339213987388e-05
1.537068534267133600e+03 4.745199406882451960e-05
1.537968984492246136e+03 4.693469885270003570e-05
1.538869434717358672e+03 4.642567014879387630e-05
1.539769884942471208e+03 4.592417837319664808e-05
1.540670335167583744e+03 4.543053424603315176e-05
1.541570785392696280e+03 4.494509572367097803e-05
1.542471235617808816e+03 4.446767360176512546e-05
1.543371685842921352e+03 4.399798696476014189e-05
1.544272136068033888e+03 4.353579980000024489e-05
1.545172586293146423e+03 4.308091489990580205e-05
1.546073036518258959e+03 4.263315818107122463e-05
1.546973486743371723e+03 4.219236948025079597e-05
1.547873936968484259e+03 4.175839780262717213e-05
1.548774387193596795e+03 4.133109883902871216e-05
1.549674837418709330e+03 4.091033360172476258e-05
1.550575287643821866e+03 4.049596762539100445e-05
1.551475737868934402e+03 4.008787046547010100e-05
1.552376188094046938e+03 3.968591536014272889e-05
1.553276638319159474e+03 3.928997898641775974e-05
1.554177088544272010e+03 3.889994127280308362e-05
1.555077538769384546e+03 3.851568524749200239e-05
1.555977988994497082e+03 3.813709690983203794e-05
1.556878439219609618e+03 3.776406511771819693e-05
1.557778889444722381e+03 3.739648148636375843e-05
1.558679339669834917e+03 3.703424029554690673e-05
1.559579789894947453e+03 3.667723840341610979e-05
1.560480240120059989e+03 3.632537516557879452e-05
1.561380690345172525e+03 3.597855235857326165e-05
1.562281140570285061e+03 3.563667410709485400e-05
1.563181590795397597e+03 3.529964681450205310e-05
1.564082041020510133e+03 3.496737909626116352e-05
1.564982491245622668e+03 3.463978171604679783e-05
1.565882941470735204e+03 3.431676752429438647e-05
1.566783391695847740e+03 3.399825139902109601e-05
1.567683841920960504e+03 3.368415018876903252e-05
1.568584292146073039e+03 3.337438265755144750e-05
1.569484742371185575e+03 3.306886943168784755e-05
1.570385192596298111e+03 3.276753294843755835e-05
1.571285642821410647e+03 3.247029740633852849e-05
1.572186093046523183e+03 3.217708871718728348e-05
1.573086543271635719e+03 3.188783445957258880e-05
1.573986993496748255e+03 3.160246383391085499e-05
1.574887443721860791e+03 3.132090761891540009e-05
1.575787893946973327e+03 3.104309812944546100e-05
1.576688344172085863e+03 3.076896917567903601e-05
1.577588794397198626e+03 3.049845602356289037e-05
1.578489244622311162e+03 3.023149535648813051e-05
1.579389694847423698e+03 2.996802523814753823e-05
1.580290145072536234e+03 2.970798507653296718e-05
1.581190595297648770e+03 2.945131558903036199e-05
1.582091045522761306e+03 2.919795876857179313e-05
1.582991495747873842e+03 2.894785785081190697e-05
1.583891945972986377e+03 2.870095728228634795e-05
1.584792396198098913e+03 2.845720268952442092e-05
1.585692846423211449e+03 2.821654084907699976e-05
1.586593296648323985e+03 2.797891965843555859e-05
1.587493746873436749e+03 2.774428810780312171e-05
1.588394197098549284e+03 2.751259625269725061e-05
1.589294647323661820e+03 2.728379518734825590e-05
1.590195097548774356e+03 2.705783701887594448e-05
1.591095547773886892e+03 2.683467484220839120e-05
1.591995997998999428e+03 2.661426271572578763e-05
1.592896448224111964e+03 2.639655563760395031e-05
1.593796898449224500e+03 2.618150952283131497e-05
1.594697348674337036e+03 2.596908118088003676e-05
1.595597798899449572e+03 2.575922829401186369e-05
1.596498249124562108e+03 2.555190939619282693e-05
1.597398699349674871e+03 2.534708385260213480e-05
1.598299149574787407e+03 2.514471183971454202e-05
1.599199599799899943e+03 2.494475432593560107e-05
1.600100050025012479e+03 2.474717305277768643e-05
1.601000500250125015e+03 2.455193051655311218e-05
1.601900950475237551e+03 2.435898995057197617e-05
1.602801400700350086e+03 2.416831530783057855e-05
1.603701850925462622e+03 2.397987124416892381e-05
1.604602301150575158e+03 2.379362310188933735e-05
1.605502751375687694e+03 2.360953689381730777e-05
1.606403201600800230e+03 2.342757928779335382e-05
1.607303651825912766e+03 2.324771759158102496e-05
1.608204102051025529e+03 2.306991973818107129e-05
1.609104552276138065e+03 2.289415427153468271e-05
1.610005002501250601e+03 2.272039033260906524e-05
1.610905452726363137e+03 2.254859764585029426e-05
1.611805902951475673e+03 2.237874650599369348e-05
1.612706353176588209e+03 2.221080776522057259e-05
1.613606803401700745e+03 2.204475282065256498e-05
1.614507253626813281e+03 2.188055360216977613e-05
1.615407703851925817e+03 2.171818256054729098e-05
1.616308154077038353e+03 2.155761265589860532e-05
1.617208604302150889e+03 2.139881734641650815e-05
1.618109054527263652e+03 2.124177057740349341e-05
1.619009504752376188e+03 2.108644677058307151e-05
1.619909954977488724e+03 2.093282081368445910e-05
1.620810405202601260e+03 2.078086805028978807e-05
1.621710855427713796e+03 2.063056426994228199e-05
1.622611305652826331e+03 2.048188569849869990e-05
1.623511755877938867e+03 2.033480898873064860e-05
1.624412206103051403e+03 2.018931121115531544e-05
1.625312656328163939e+03 2.004536984509912843e-05
1.626213106553276475e+03 1.990296276998236658e-05
1.627113556778389011e+03 1.976206825681940115e-05
1.628014007003501774e+03 1.962266495992945160e-05
1.628914457228614310e+03 1.948473190885110051e-05
1.629814907453726846e+03 1.934824850045568155e-05
1.630715357678839382e+03 1.921319449125149736e-05
1.631615807903951918e+03 1.907954998987848073e-05
1.632516258129064454e+03 1.894729544978235241e-05
1.633416708354176990e+03 1.881641166206745867e-05
1.634317158579289526e+03 1.868687974852060126e-05
1.635217608804402062e+03 1.855868115480446351e-05
1.636118059029514598e+03 1.843179764381153580e-05
1.637018509254627133e+03 1.830621128917875353e-05
1.637918959479739897e+03 1.818190446895427245e-05
1.638819409704852433e+03 1.805885985941586966e-05
1.639719859929964969e+03 1.793706042903524429e-05
1.640620310155077505e+03 1.781648943258322052e-05
1.641520760380190040e+03 1.769713040537421281e-05
1.642421210605302576e+03 1.757896715764465130e-05
1.643321660830415112e+03 1.746198376906360852e-05
1.644222111055527648e+03 1.734616458336836023e-05
1.645122561280640184e+03 1.723149420312719083e-05
1.646023011505752720e+03 1.711795748462084104e-05
1.646923461730865256e+03 1.700553953284239110e-05
1.647823911955978019e+03 1.689422569661158490e-05
1.648724362181090555e+03 1.678400156380115214e-05
1.649624812406203091e+03 1.667485295667158810e-05
1.650525262631315627e+03 1.656676592731106702e-05
1.651425712856428163e+03 1.645972675317966256e-05
1.652326163081540699e+03 1.635372193275380274e-05
1.653226613306653235e+03 1.624873818126766270e-05
1.654127063531765771e+03 1.614476242655152249e-05
1.655027513756878307e+03 1.604178180496179738e-05
1.655927963981990843e+03 1.593978365740175848e-05
1.656828414207103378e+03 1.583875552543130007e-05
1.657728864432216142e+03 1.573868514746245393e-05
1.658629314657328678e+03 1.563956045503816345e-05
1.659529764882441214e+03 1.554136956919459567e-05
1.660430215107553749e+03 1.544410079690014361e-05
1.661330665332666285e+03 1.534774262757539475e-05
1.662231115557778821e+03 1.525228372968751315e-05
1.663131565782891357e+03 1.515771294741755273e-05
1.664032016008003893e+03 1.506401929740203330e-05
1.664932466233116429e+03 1.497119196554302635e-05
1.665832916458228965e+03 1.487922030388759762e-05
1.666733366683341501e+03 1.478809382757445316e-05
1.667633816908454037e+03 1.469780221184510573e-05
1.668534267133566800e+03 1.460833528911909026e-05
1.669434717358679336e+03 1.451968304613189890e-05
1.670335167583791872e+03 1.443183562113222182e-05
1.671235617808904408e+03 1.434478330114000158e-05
1.672136068034016944e+03 1.425851651926048999e-05
1.673036518259129480e+03 1.417302585205658249e-05
1.673936968484242016e+03 1.408830201697406838e-05
1.674837418709354552e+03 1.400433586982259551e-05
1.675737868934467087e+03 1.392111840230789399e-05
1.676638319159579623e+03 1.383864073961507427e-05
1.677538769384692159e+03 1.375689413804270832e-05
1.678439219609804923e+03 1.367586998268518481e-05
1.679339669834917459e+03 1.359555978516272861e-05
1.680240120060029994e+03 1.351595518139786980e-05
1.681140570285142530e+03 1.343704792943782875e-05
1.682041020510255066e+03 1.335882990732109586e-05
1.682941470735367602e+03 1.328129311098648676e-05
1.683841920960480138e+03 1.320442965222629220e-05
1.684742371185592674e+03 1.312823175667932163e-05
1.685642821410705210e+03 1.305269176186485331e-05
1.686543271635817746e+03 1.297780211525618831e-05
1.687443721860930282e+03 1.290355537239301726e-05
1.688344172086043045e+03 1.282994419503075671e-05
1.689244622311155581e+03 1.275696134932734973e-05
1.690145072536268117e+03 1.268459970406619081e-05
1.691045522761380653e+03 1.261285222891310311e-05
1.691945972986493189e+03 1.254171199271000251e-05
1.692846423211605725e+03 1.247117216179934440e-05
1.693746873436718261e+03 1.240122599838387663e-05
1.694647323661830796e+03 1.233186685891725652e-05
1.695547773886943332e+03 1.226308819252587098e-05
1.696448224112055868e+03 1.219488353946273539e-05
1.697348674337168404e+03 1.212724652959011369e-05
1.698249124562281168e+03 1.206017088089211161e-05
1.699149574787393703e+03 1.199365039801553194e-05
1.700050025012506239e+03 1.192767897083984239e-05
1.700950475237618775e+03 1.186225057307335737e-05
1.701850925462731311e+03 1.179735926087726856e-05
1.702751375687843847e+03 1.173299917151521690e-05
1.703651825912956383e+03 1.166916452202942409e-05
1.704552276138068919e+03 1.160584960794112896e-05
1.705452726363181455e+03 1.154304880197608917e-05
1.706353176588293991e+03 1.148075655281463329e-05
1.707253626813406527e+03 1.141896738386367483e-05
1.708154077038519290e+03 1.135767589205413717e-05
1.709054527263631826e+03 1.129687674665849054e-05
1.709954977488744362e+03 1.123656468813250723e-05
1.710855427713856898e+03 1.117673452697699677e-05
1.711755877938969434e+03 1.111738114262190096e-05
1.712656328164081970e+03 1.105849948232998933e-05
1.713556778389194506e+03 1.100008456012202509e-05
1.714457228614307041e+03 1.094213145572070994e-05
1.715357678839419577e+03 1.088463531351471866e-05
1.716258129064532113e+03 1.082759134154097891e-05
1.717158579289644649e+03 1.077099481048723739e-05
1.718059029514757185e+03 1.071484105271043167e-05
1.718959479739869948e+03 1.065912546127512315e-05
1.719859929964982484e+03 1.060384348900809140e-05
1.720760380190095020e+03 1.054899064757053829e-05
1.721660830415207556e+03 1.049456250654681611e-05
1.722561280640320092e+03 1.044055469255009624e-05
1.723461730865432628e+03 1.038696288834338280e-05
1.724362181090545164e+03 1.033378283197671468e-05
1.725262631315657700e+03 1.028101031593982599e-05
1.726163081540770236e+03 1.022864118632983791e-05
1.727063531765882772e+03 1.017667134203346026e-05
1.727963981990995308e+03 1.012509673392464462e-05
1.728864432216108071e+03 1.007391336407490567e-05
1.729764882441220607e+03 1.002311728497901447e-05
1.730665332666333143e+03 9.972704598793832702e-06
1.731565782891445679e+03 9.922671456590185975e-06
1.732466233116558215e+03 9.873014057618122104e-06
1.733366683341670750e+03 9.823728648585328791e-06
1.734267133566783286e+03 9.774811522947477575e-06
1.735167583791895822e+03 9.726259020211522286e-06
1.736068034017008358e+03 9.678067525250535797e-06
1.736968484242120894e+03 9.630233467631101478e-06
1.737868934467233430e+03 9.582753320951460294e-06
1.738769384692346193e+03 9.535623602191678984e-06
1.739669834917458729e+03 9.488840871075056676e-06
1.740570285142571265e+03 9.442401729439570533e-06
1.741470735367683801e+03 9.396302820621772791e-06
1.742371185592796337e+03 9.350540828848880290e-06
1.743271635817908873e+03 9.305112478643452618e-06
1.744172086043021409e+03 9.260014534236715066e-06
1.745072536268133945e+03 9.215243798992564368e-06
1.745972986493246481e+03 9.170797114840524184e-06
1.746873436718359017e+03 9.126671361719603602e-06
1.747773886943471553e+03 9.082863457029924614e-06
1.748674337168584316e+03 9.039370355094403882e-06
1.749574787393696852e+03 8.996189046629640053e-06
1.750475237618809388e+03 8.953316558225024076e-06
1.751375687843921924e+03 8.910749951830963583e-06
1.752276138069034459e+03 8.868486324255350607e-06
1.753176588294146995e+03 8.826522806668316660e-06
1.754077038519259531e+03 8.784856564115869806e-06
1.754977488744372067e+03 8.743484795040387612e-06
1.755877938969484603e+03 8.702404730809905697e-06
1.756778389194597139e+03 8.661613635255105802e-06
1.757678839419709675e+03 8.621108804212964933e-06
1.758579289644822438e+03 8.580887565079249222e-06
1.759479739869934974e+03 8.540947276367265661e-06
1.760380190095047510e+03 8.501285327273955928e-06
1.761280640320160046e+03 8.461899137253267909e-06
1.762181090545272582e+03 8.422786155596821876e-06
1.763081540770385118e+03 8.383943861019860455e-06
1.763981990995497654e+03 8.345369761255951827e-06
1.764882441220610190e+03 8.307061392656658243e-06
1.765782891445722726e+03 8.269016319797818168e-06
1.766683341670835262e+03 8.231232135092897767e-06
1.767583791895947797e+03 8.193706458411946351e-06
1.768484242121060333e+03 8.156436936706430244e-06
1.769384692346173097e+03 8.119421243640563383e-06
1.770285142571285633e+03 8.082657079228202932e-06
1.771185592796398169e+03 8.046142169475514877e-06
1.772086043021510704e+03 8.009874266029030142e-06
1.772986493246623240e+03 7.973851145830026353e-06
1.773886943471735776e+03 7.938070610773053273e-06
1.774787393696848312e+03 7.902530487371597050e-06
1.775687843921960848e+03 7.867228626426582002e-06
1.776588294147073384e+03 7.832162902702980226e-06
1.777488744372185920e+03 7.797331214608594672e-06
1.778389194597298456e+03 7.762731483879698120e-06
1.779289644822411219e+03 7.728361655270919161e-06
1.780190095047523755e+03 7.694219696250169740e-06
1.781090545272636291e+03 7.660303596697523240e-06
1.781990995497748827e+03 7.626611368610178511e-06
1.782891445722861363e+03 7.593141045810044616e-06
1.783791895947973899e+03 7.559890683657685094e-06
1.784692346173086435e+03 7.526858358769450468e-06
1.785592796398198971e+03 7.494042168739445601e-06
1.786493246623311506e+03 7.461440231865248576e-06
1.787393696848424042e+03 7.429050686878500852e-06
1.788294147073536578e+03 7.396871692679004140e-06
1.789194597298649342e+03 7.364901428073091411e-06
1.790095047523761878e+03 7.333138091515841730e-06
1.790995497748874413e+03 7.301579900857398129e-06
1.791895947973986949e+03 7.270225093092807435e-06
1.792796398199099485e+03 7.239071924115669206e-06
1.793696848424212021e+03 7.208118668475771657e-06
1.794597298649324557e+03 7.177363619140057263e-06
1.795497748874437093e+03 7.146805087257088312e-06
1.796398199099549629e+03 7.116441401925402027e-06
1.797298649324662165e+03 7.086270909964815056e-06
1.798199099549774701e+03 7.056291975691536229e-06
1.799099549774887464e+03 7.026502980696311683e-06
1.800000000000000000e+03 6.996902323626064010e-06
