0.000000000000000000e+00 9.314274403703523509e-04
9.004502251125562351e-01 1.229230218315588907e-03
1.800900450225112470e+00 1.539516856299737602e-03
2.701350675337668594e+00 1.751762623090156535e-03
3.601800900450224940e+00 1.791855050708035394e-03
4.502251125562780842e+00 1.661444067336570332e-03
5.402701350675337189e+00 1.402007721417461395e-03
6.303151575787893535e+00 1.099203636346864077e-03
7.203601800900449881e+00 8.315556643903019868e-04
8.104052026013006227e+00 6.273535563061190994e-04
9.004502251125561685e+00 4.803906396351235401e-04
9.904952476238118919e+00 3.756525086596131015e-04
1.080540270135067438e+01 3.001500682104432118e-04
1.170585292646323161e+01 2.446983159286323295e-04
1.260630315157578707e+01 2.031639003909085255e-04
1.350675337668834430e+01 1.714830378907520301e-04
1.440720360180089976e+01 1.469168984525087620e-04
1.530765382691345522e+01 1.275448739601199827e-04
1.620810405202601245e+01 1.120022888819210456e-04
1.710855427713856969e+01 9.932242746001043092e-05
1.800900450225112337e+01 8.866704594889477785e-05
1.890945472736368060e+01 7.936020687363761785e-05
1.980990495247623784e+01 7.118430444069201793e-05
2.071035517758879507e+01 6.418302465353562024e-05
2.161080540270134875e+01 5.830452333371317333e-05
2.251125562781390599e+01 5.334700556666421129e-05
2.341170585292646322e+01 4.905143966087235376e-05
2.431215607803901690e+01 4.526508987763076352e-05
2.521260630315157414e+01 4.197944528336563277e-05
2.611305652826413137e+01 3.916696224699829274e-05
2.701350675337668861e+01 3.671462878593780151e-05
2.791395697848924229e+01 3.450955526884954085e-05
2.881440720360179952e+01 3.250228543111415025e-05
2.971485742871435676e+01 3.065480199831228562e-05
3.061530765382691044e+01 2.892466932508678257e-05
3.151575787893946767e+01 2.730497299707945389e-05
3.241620810405202491e+01 2.584225634978499101e-05
3.331665832916458214e+01 2.458137304843865072e-05
3.421710855427713938e+01 2.348850911113750076e-05
3.511755877938969661e+01 2.249040202723132608e-05
3.601800900450224674e+01 2.155831479780820847e-05
3.691845922961480397e+01 2.070106934912298874e-05
3.781890945472736121e+01 1.995537863482651334e-05
3.871935967983991844e+01 1.934941983725113303e-05
3.961980990495247568e+01 1.884418065674363146e-05
4.052026013006503291e+01 1.834792348386704989e-05
4.142071035517759015e+01 1.776278590720732086e-05
4.232116058029014027e+01 1.711873333581755493e-05
4.322161080540269751e+01 1.658491115772098507e-05
4.412206103051525474e+01 1.627135755766499187e-05
4.502251125562781198e+01 1.614803973997243667e-05
4.592296148074036921e+01 1.608423132762899557e-05
4.682341170585292645e+01 1.594567550259899706e-05
4.772386193096548368e+01 1.569720553943030640e-05
4.862431215607803381e+01 1.535588098889023573e-05
4.952476238119059104e+01 1.494591043882394397e-05
5.042521260630314828e+01 1.449527753316985263e-05
5.132566283141570551e+01 1.402740992319900218e-05
5.222611305652826275e+01 1.359170675865419910e-05
5.312656328164081998e+01 1.325485363024148535e-05
5.402701350675337721e+01 1.305926911502540796e-05
5.492746373186592734e+01 1.299863297215500799e-05
5.582791395697848458e+01 1.304681455310754600e-05
5.672836418209104181e+01 1.317534308108570849e-05
5.762881440720359905e+01 1.330855205975410051e-05
5.852926463231615628e+01 1.334704772520188911e-05
5.942971485742871351e+01 1.323983398322702091e-05
6.033016508254127075e+01 1.299837276147015888e-05
6.123061530765382088e+01 1.267823725115096386e-05
6.213106553276637811e+01 1.234955298344640384e-05
6.303151575787893535e+01 1.207389262919841575e-05
6.393196598299149258e+01 1.187409686017574874e-05
6.483241620810404982e+01 1.174354573011244782e-05
6.573286643321659994e+01 1.166778764120714940e-05
6.663331665832916428e+01 1.163056322759042833e-05
6.753376688344171441e+01 1.165245701827233673e-05
6.843421710855427875e+01 1.178333506442171615e-05
6.933466733366682888e+01 1.203260332777813751e-05
7.023511755877939322e+01 1.235607520969040927e-05
7.113556778389194335e+01 1.270385287271627115e-05
7.203601800900449348e+01 1.305736723514449065e-05
7.293646823411705782e+01 1.337881434331475889e-05
7.383691845922960795e+01 1.363010705093778417e-05
7.473736868434217229e+01 1.389221081638724569e-05
7.563781890945472242e+01 1.425258987362544799e-05
7.653826913456728676e+01 1.461421218644121071e-05
7.743871935967983688e+01 1.480523255112661296e-05
7.833916958479238701e+01 1.477400090178189708e-05
7.923961980990495135e+01 1.462490222583279884e-05
8.014007003501750148e+01 1.447610437128052891e-05
8.104052026013006582e+01 1.437651364164186648e-05
8.194097048524261595e+01 1.432679070093486383e-05
8.284142071035518029e+01 1.431217586531838779e-05
8.374187093546773042e+01 1.433075911747947476e-05
8.464232116058028055e+01 1.429100833066773512e-05
8.554277138569284489e+01 1.411872273894561332e-05
8.644322161080539502e+01 1.392941583035881081e-05
8.734367183591795936e+01 1.387657828285763699e-05
8.824412206103050949e+01 1.401280873216454190e-05
8.914457228614307382e+01 1.428648780163292889e-05
9.004502251125562395e+01 1.450770532537862857e-05
9.094547273636817408e+01 1.446907417479144959e-05
9.184592296148073842e+01 1.421349759406456753e-05
9.274637318659328855e+01 1.400662235307889683e-05
9.364682341170585289e+01 1.396686086526151367e-05
9.454727363681840302e+01 1.386783769935944360e-05
9.544772386193096736e+01 1.351554588975276024e-05
9.634817408704351749e+01 1.308530437585174519e-05
9.724862431215606762e+01 1.282775450741156702e-05
9.814907453726863196e+01 1.276133801491925198e-05
9.904952476238118209e+01 1.274675281135292444e-05
9.994997498749374643e+01 1.272343269303656210e-05
1.008504252126062966e+02 1.273751063595158832e-05
1.017508754377188609e+02 1.276943258652854975e-05
1.026513256628314110e+02 1.271488433652646142e-05
1.035517758879439612e+02 1.256217269859543075e-05
1.044522261130565255e+02 1.243751276503121694e-05
1.053526763381690756e+02 1.247291576628116439e-05
1.062531265632816400e+02 1.273003389717908534e-05
1.071535767883941901e+02 1.316664249376311332e-05
1.080540270135067544e+02 1.365517992126978978e-05
1.089544772386193046e+02 1.407503652267831420e-05
1.098549274637318547e+02 1.437959496113570757e-05
1.107553776888444190e+02 1.457697074011482516e-05
1.116558279139569692e+02 1.471580916663027996e-05
1.125562781390695335e+02 1.483839007621352694e-05
1.134567283641820836e+02 1.493123456038927631e-05
1.143571785892946480e+02 1.492737390137823715e-05
1.152576288144071981e+02 1.482228517254771390e-05
1.161580790395197482e+02 1.468984057369493469e-05
1.170585292646323126e+02 1.454825395967652740e-05
1.179589794897448627e+02 1.436961244243321125e-05
1.188594297148574270e+02 1.425354925250622790e-05
1.197598799399699772e+02 1.442636932729380340e-05
1.206603301650825415e+02 1.498843547524793965e-05
1.215607803901950916e+02 1.576130064434017307e-05
1.224612306153076418e+02 1.644775899447865959e-05
1.233616808404202061e+02 1.688124405434400483e-05
1.242621310655327562e+02 1.708061704417047807e-05
1.251625812906453206e+02 1.715987428563174472e-05
1.260630315157578707e+02 1.721089202329747480e-05
1.269634817408704350e+02 1.726384155368177603e-05
1.278639319659829852e+02 1.735329496169982135e-05
1.287643821910955353e+02 1.753133770993092443e-05
1.296648324162080996e+02 1.775954492612251282e-05
1.305652826413206640e+02 1.788999434315147505e-05
1.314657328664331999e+02 1.776881410273882167e-05
1.323661830915457642e+02 1.729294928420532979e-05
1.332666333166583286e+02 1.655777012481436769e-05
1.341670835417708929e+02 1.591741523228935539e-05
1.350675337668834288e+02 1.565961782749296930e-05
1.359679839919959932e+02 1.582568542588932352e-05
1.368684342171085575e+02 1.624298223004827101e-05
1.377688844422210934e+02 1.659823987161603527e-05
1.386693346673336578e+02 1.660726619684735312e-05
1.395697848924462221e+02 1.618975225396992462e-05
1.404702351175587864e+02 1.553190665030788767e-05
1.413706853426713224e+02 1.492318535243722647e-05
1.422711355677838867e+02 1.458373254790348878e-05
1.431715857928964510e+02 1.463501574359915606e-05
1.440720360180089870e+02 1.508387742046779380e-05
1.449724862431215513e+02 1.588297273030828715e-05
1.458729364682341156e+02 1.694274588282130835e-05
1.467733866933466800e+02 1.810989627337349702e-05
1.476738369184592159e+02 1.925241358521142211e-05
1.485742871435717802e+02 2.021733883543782277e-05
1.494747373686843446e+02 2.080509740774266376e-05
1.503751875937968805e+02 2.097751199292793200e-05
1.512756378189094448e+02 2.093870751604253345e-05
1.521760880440220092e+02 2.093079711307178138e-05
1.530765382691345735e+02 2.102332858728437733e-05
1.539769884942471094e+02 2.113762970786286415e-05
1.548774387193596738e+02 2.114601766538040979e-05
1.557778889444722381e+02 2.104203291244666275e-05
1.566783391695847740e+02 2.096648821283978313e-05
1.575787893946973384e+02 2.091717139104215631e-05
1.584792396198099027e+02 2.068899434049463235e-05
1.593796898449224670e+02 2.021490651341957990e-05
1.602801400700350030e+02 1.971059808876225814e-05
1.611805902951475673e+02 1.931907810483240513e-05
1.620810405202601316e+02 1.897762590271357056e-05
1.629814907453726676e+02 1.860287267868172473e-05
1.638819409704852319e+02 1.824130441499842090e-05
1.647823911955977962e+02 1.806694585282356386e-05
1.656828414207103606e+02 1.822487842424373825e-05
1.665832916458228965e+02 1.870580953729624542e-05
1.674837418709354608e+02 1.939431292683580854e-05
1.683841920960480252e+02 2.019001806814890048e-05
1.692846423211605611e+02 2.109567917740988311e-05
1.701850925462731254e+02 2.213800262989365847e-05
1.710855427713856898e+02 2.311360151423891778e-05
1.719859929964982541e+02 2.371920457747167012e-05
1.728864432216107900e+02 2.409451501242283134e-05
1.737868934467233544e+02 2.454821708198306506e-05
1.746873436718359187e+02 2.497706360856217855e-05
1.755877938969484546e+02 2.504744240792766401e-05
1.764882441220610190e+02 2.460377917293758761e-05
1.773886943471735833e+02 2.371459757108993849e-05
1.782891445722861476e+02 2.258893708872358521e-05
1.791895947973986836e+02 2.149672557184872284e-05
1.800900450225112479e+02 2.069878677534691666e-05
1.809904952476238122e+02 2.037485597209532626e-05
1.818909454727363482e+02 2.052074615623660682e-05
1.827913956978489125e+02 2.094679894985922877e-05
1.836918459229614768e+02 2.142384676960614896e-05
1.845922961480740412e+02 2.183308193146239022e-05
1.854927463731865771e+02 2.209959408535428144e-05
1.863931965982991414e+02 2.213067787193604978e-05
1.872936468234117058e+02 2.196588165526052795e-05
1.881940970485242417e+02 2.183706818565294276e-05
1.890945472736368060e+02 2.194204034413084877e-05
1.899949974987493704e+02 2.236579575411902493e-05
1.908954477238619347e+02 2.305098276587001728e-05
1.917958979489744706e+02 2.376717269713484300e-05
1.926963481740870350e+02 2.426583488108432598e-05
1.935967983991995993e+02 2.436340257173236212e-05
1.944972486243121352e+02 2.405449660081506274e-05
1.953976988494246996e+02 2.350502725954347851e-05
1.962981490745372639e+02 2.293082273677176920e-05
1.971985992996498283e+02 2.251834835329195574e-05
1.980990495247623642e+02 2.233977012133017207e-05
1.989994997498749285e+02 2.238253911916661024e-05
1.998999499749874929e+02 2.254402801061879084e-05
2.008004002001000288e+02 2.265067058289649464e-05
2.017008504252125931e+02 2.269322519492365339e-05
2.026013006503251574e+02 2.279702731457457484e-05
2.035017508754377218e+02 2.296604923349931002e-05
2.044022011005502577e+02 2.309093927145955107e-05
2.053026513256628220e+02 2.304713112450514567e-05
2.062031015507753864e+02 2.280725217302122769e-05
2.071035517758879223e+02 2.251498877806844043e-05
2.080040020010004866e+02 2.234044524883992320e-05
2.089044522261130510e+02 2.234098539411464614e-05
2.098049024512256153e+02 2.248954940924102701e-05
2.107053526763381512e+02 2.277372092935977911e-05
2.116058029014507156e+02 2.324237521437640333e-05
2.125062531265632799e+02 2.388748318746555015e-05
2.134067033516758158e+02 2.457452066029913130e-05
2.143071535767883802e+02 2.515603265270081946e-05
2.152076038019009445e+02 2.557914564187319218e-05
2.161080540270135089e+02 2.582460554487269703e-05
2.170085042521260448e+02 2.590892362926591104e-05
2.179089544772386091e+02 2.591763532182631574e-05
2.188094047023511735e+02 2.597078360281808394e-05
2.197098549274637094e+02 2.617294828550957786e-05
2.206103051525762737e+02 2.645985154584235946e-05
2.215107553776888381e+02 2.659542785322980985e-05
2.224112056028014024e+02 2.649147765482858712e-05
2.233116558279139383e+02 2.632194740119978948e-05
2.242121060530265027e+02 2.629332644790916812e-05
2.251125562781390670e+02 2.646061766492919016e-05
2.260130065032516029e+02 2.674690524836825442e-05
2.269134567283641672e+02 2.713655322473432598e-05
2.278139069534767316e+02 2.769028689502947953e-05
2.287143571785892959e+02 2.831426150730597660e-05
2.296148074037018318e+02 2.870297154470775574e-05
2.305152576288143962e+02 2.860574323970150530e-05
2.314157078539269605e+02 2.810754372324535255e-05
2.323161580790394964e+02 2.757048836728692010e-05
2.332166083041520608e+02 2.734629585915494322e-05
2.341170585292646251e+02 2.752976566964805233e-05
2.350175087543771895e+02 2.798862396619637263e-05
2.359179589794897254e+02 2.846152008057225053e-05
2.368184092046022897e+02 2.867752433962832964e-05
2.377188594297148541e+02 2.854975289403258729e-05
2.386193096548273900e+02 2.824772860103211321e-05
2.395197598799399543e+02 2.804996094687450429e-05
2.404202101050525187e+02 2.814129949686011633e-05
2.413206603301650830e+02 2.852368421920009777e-05
2.422211105552776189e+02 2.907702085552760113e-05
2.431215607803901833e+02 2.960368946105195508e-05
2.440220110055027476e+02 2.990508566999532108e-05
2.449224612306152835e+02 2.995952825203169220e-05
2.458229114557278479e+02 2.984100051628170029e-05
2.467233616808404122e+02 2.966499300073028699e-05
2.476238119059529765e+02 2.964958531338326826e-05
2.485242621310655124e+02 2.984870101460308900e-05
2.494247123561780768e+02 3.002146507980826902e-05
2.503251625812906411e+02 2.997677887129409236e-05
2.512256128064031770e+02 2.980860593391280989e-05
2.521260630315157414e+02 2.970268133442140193e-05
2.530265132566283057e+02 2.978079667915051255e-05
2.539269634817408701e+02 3.007718129431008003e-05
2.548274137068534060e+02 3.045756944362580467e-05
2.557278639319659703e+02 3.074709462208770106e-05
2.566283141570785347e+02 3.094896018639769960e-05
2.575287643821910706e+02 3.122310037654572109e-05
2.584292146073036633e+02 3.165287221977396696e-05
2.593296648324161993e+02 3.216028840412737944e-05
2.602301150575287352e+02 3.270929085312036436e-05
2.611305652826413279e+02 3.339431308537397743e-05
2.620310155077538639e+02 3.423364201124947699e-05
2.629314657328663998e+02 3.491569761407035217e-05
2.638319159579789925e+02 3.510799492391492293e-05
2.647323661830915285e+02 3.482580865612358253e-05
2.656328164082040644e+02 3.436337861864617653e-05
2.665332666333166571e+02 3.404476587043999189e-05
2.674337168584291931e+02 3.396149409191860625e-05
2.683341670835417858e+02 3.394361722329910602e-05
2.692346173086543217e+02 3.383514644808625991e-05
2.701350675337668577e+02 3.365316752815190508e-05
2.710355177588794504e+02 3.346235831294840963e-05
2.719359679839919863e+02 3.331134064801083688e-05
2.728364182091045222e+02 3.323937992931889278e-05
2.737368684342171150e+02 3.326477013749911413e-05
2.746373186593296509e+02 3.342317392073955364e-05
2.755377688844421868e+02 3.377089969234498110e-05
2.764382191095547796e+02 3.432616322594278833e-05
2.773386693346673155e+02 3.498283561842577055e-05
2.782391195597798514e+02 3.552560968162427415e-05
2.791395697848924442e+02 3.587089623763769353e-05
2.800400200100049801e+02 3.610376889744594672e-05
2.809404702351175729e+02 3.629821992545423517e-05
2.818409204602301088e+02 3.658022366104985064e-05
2.827413706853426447e+02 3.703078879953077554e-05
2.836418209104552375e+02 3.751041405818028503e-05
2.845422711355677734e+02 3.776754213413152498e-05
2.854427213606803093e+02 3.769557455591915579e-05
2.863431715857929021e+02 3.749931307014260607e-05
2.872436218109054380e+02 3.744051738822119508e-05
2.881440720360179739e+02 3.764131103992259236e-05
2.890445222611305667e+02 3.814381564921657457e-05
2.899449724862431026e+02 3.895925323615368315e-05
2.908454227113556385e+02 3.999442244902898198e-05
2.917458729364682313e+02 4.093508709312317990e-05
2.926463231615807672e+02 4.155342133944318683e-05
2.935467733866933600e+02 4.192302509725607905e-05
2.944472236118058959e+02 4.202310754649489689e-05
2.953476738369184318e+02 4.177039252077117764e-05
2.962481240620310246e+02 4.147174448340155907e-05
2.971485742871435605e+02 4.155400481149228490e-05
2.980490245122560964e+02 4.204616974086256394e-05
2.989494747373686891e+02 4.261397300481000372e-05
2.998499249624812251e+02 4.296572776409712043e-05
3.007503751875937610e+02 4.316637253160902194e-05
3.016508254127063537e+02 4.353886641853626328e-05
3.025512756378188897e+02 4.436760498163681924e-05
3.034517258629314256e+02 4.578481084035369587e-05
3.043521760880440183e+02 4.762514267637609720e-05
3.052526263131565543e+02 4.939913906970577620e-05
3.061530765382691470e+02 5.065938514738008429e-05
3.070535267633816829e+02 5.135954945151216869e-05
3.079539769884942189e+02 5.179350325160073500e-05
3.088544272136068116e+02 5.218835744905534943e-05
3.097548774387193475e+02 5.251273259817362761e-05
3.106553276638318835e+02 5.263345899949185949e-05
3.115557778889444762e+02 5.236173052283696767e-05
3.124562281140570121e+02 5.166181539415126602e-05
3.133566783391695481e+02 5.092833296003321307e-05
3.142571285642821408e+02 5.073911114335585419e-05
3.151575787893946767e+02 5.125403964397418018e-05
3.160580290145072127e+02 5.204971441401040145e-05
3.169584792396198054e+02 5.265539911092940122e-05
3.178589294647323413e+02 5.299958923515344587e-05
3.187593796898449341e+02 5.323070580286803829e-05
3.196598299149574700e+02 5.341366794087603541e-05
3.205602801400700059e+02 5.349347782459846899e-05
3.214607303651825987e+02 5.331340073884220497e-05
3.223611805902951346e+02 5.279551176148521797e-05
3.232616308154076705e+02 5.219776095935747899e-05
3.241620810405202633e+02 5.174164558514992559e-05
3.250625312656327992e+02 5.130081846945116971e-05
3.259629814907453351e+02 5.059565851490516820e-05
3.268634317158579279e+02 4.959552934637639953e-05
3.277638819409704638e+02 4.859831843745453066e-05
3.286643321660829997e+02 4.793172441669180670e-05
3.295647823911955925e+02 4.777805677788512340e-05
3.304652326163081284e+02 4.820705498199797306e-05
3.313656828414207212e+02 4.905103629304800937e-05
3.322661330665332571e+02 4.984056578620004666e-05
3.331665832916457930e+02 5.015695819659254505e-05
3.340670335167583858e+02 4.995099150688909182e-05
3.349674837418709217e+02 4.959137607605941354e-05
3.358679339669834576e+02 4.954489700531839017e-05
3.367683841920960504e+02 4.996501170314833154e-05
3.376688344172085863e+02 5.071897385545227812e-05
3.385692846423211222e+02 5.166056000051673949e-05
3.394697348674337150e+02 5.270813288334415053e-05
3.403701850925462509e+02 5.371648249594503837e-05
3.412706353176587868e+02 5.448202989985242138e-05
3.421710855427713796e+02 5.493098207707412708e-05
3.430715357678839155e+02 5.512705672418688723e-05
3.439719859929965082e+02 5.505843911085213144e-05
3.448724362181090441e+02 5.473504395485621080e-05
3.457728864432215801e+02 5.430380757380132736e-05
3.466733366683341728e+02 5.396969788373234827e-05
3.475737868934467087e+02 5.381188427987846463e-05
3.484742371185592447e+02 5.372469779579573716e-05
3.493746873436718374e+02 5.363394991018513081e-05
3.502751375687843733e+02 5.349435679636973856e-05
3.511755877938969093e+02 5.318285068044471277e-05
3.520760380190095020e+02 5.258841574471874035e-05
3.529764882441220379e+02 5.182068845857461562e-05
3.538769384692345739e+02 5.115239603118470796e-05
3.547773886943471666e+02 5.073426838074291464e-05
3.556778389194597025e+02 5.044088581026597018e-05
3.565782891445722953e+02 4.997288149644445719e-05
3.574787393696848312e+02 4.915401383564201385e-05
3.583791895947973671e+02 4.808876543305631130e-05
3.592796398199099599e+02 4.708870774007298206e-05
3.601800900450224958e+02 4.643713962486173766e-05
3.610805402701350317e+02 4.610974640767752928e-05
3.619809904952476245e+02 4.581602976487166186e-05
3.628814407203601604e+02 4.534811505044191121e-05
3.637818909454726963e+02 4.475226444732299526e-05
3.646823411705852891e+02 4.434498355977549590e-05
3.655827913956978250e+02 4.444270948360172323e-05
3.664832416208103609e+02 4.492969072009730513e-05
3.673836918459229537e+02 4.542467100752793380e-05
3.682841420710354896e+02 4.567287496352717398e-05
3.691845922961480824e+02 4.567070140154289303e-05
3.700850425212606183e+02 4.555280493384070508e-05
3.709854927463731542e+02 4.544632037096626526e-05
3.718859429714857470e+02 4.546566879139951145e-05
3.727863931965982829e+02 4.552367748132219946e-05
3.736868434217108188e+02 4.531658018009070837e-05
3.745872936468234116e+02 4.482920396011947836e-05
3.754877438719359475e+02 4.433598714189132875e-05
3.763881940970484834e+02 4.406269111779797262e-05
3.772886443221610762e+02 4.406559093649476435e-05
3.781890945472736121e+02 4.423041490196182181e-05
3.790895447723861480e+02 4.441867906819279096e-05
3.799899949974987408e+02 4.461816620349572126e-05
3.808904452226112767e+02 4.480926837077786167e-05
3.817908954477238694e+02 4.491073129138723662e-05
3.826913456728364054e+02 4.483209441502436949e-05
3.835917958979489413e+02 4.462704534970151086e-05
3.844922461230615340e+02 4.457473788041318064e-05
3.853926963481740700e+02 4.486917104665969890e-05
3.862931465732866059e+02 4.541815543769480416e-05
3.871935967983991986e+02 4.588319593891345815e-05
3.880940470235117346e+02 4.587489011403890813e-05
3.889944972486242705e+02 4.531983061357105791e-05
3.898949474737368632e+02 4.465090938487023726e-05
3.907953976988493991e+02 4.436640978390859672e-05
3.916958479239619351e+02 4.457977477468739417e-05
3.925962981490745278e+02 4.508049877913978469e-05
3.934967483741870637e+02 4.555130013051971892e-05
3.943971985992996565e+02 4.579882083072805163e-05
3.952976488244121924e+02 4.582303967741333060e-05
3.961980990495247283e+02 4.573701564821149924e-05
3.970985492746373211e+02 4.552933547965341317e-05
3.979989994997498570e+02 4.500218656890665942e-05
3.988994497248623929e+02 4.405072451209682169e-05
3.997998999499749857e+02 4.281834740383910363e-05
4.007003501750875216e+02 4.161913215012087936e-05
4.016008004002000575e+02 4.068700174675237238e-05
4.025012506253126503e+02 4.008748475702670608e-05
4.034017008504251862e+02 3.984295787051843351e-05
4.043021510755377221e+02 3.988503708625333420e-05
4.052026013006503149e+02 4.010358015484890388e-05
4.061030515257628508e+02 4.044345196050267273e-05
4.070035017508754436e+02 4.093205590510357885e-05
4.079039519759879795e+02 4.164857239713289121e-05
4.088044022011005154e+02 4.257922615341001139e-05
4.097048524262131082e+02 4.351431166858209357e-05
4.106053026513256441e+02 4.424458550711692350e-05
4.115057528764381800e+02 4.479819221818623321e-05
4.124062031015507728e+02 4.536879054175338026e-05
4.133066533266633087e+02 4.604624086046665512e-05
4.142071035517758446e+02 4.678934713444135872e-05
4.151075537768884374e+02 4.752592543986250206e-05
4.160080040020009733e+02 4.801288894036706339e-05
4.169084542271135092e+02 4.803278444879240588e-05
4.178089044522261020e+02 4.769878168281351926e-05
4.187093546773386379e+02 4.732649520570831545e-05
4.196098049024512306e+02 4.711059021944753603e-05
4.205102551275637666e+02 4.700827873353250592e-05
4.214107053526763025e+02 4.691308010919450203e-05
4.223111555777888952e+02 4.671006171506343721e-05
4.232116058029014312e+02 4.627571667211609531e-05
4.241120560280139671e+02 4.559373139256192055e-05
4.250125062531265598e+02 4.476945202470958507e-05
4.259129564782390958e+02 4.394731692605194850e-05
4.268134067033516317e+02 4.324328183902711829e-05
4.277138569284642244e+02 4.273543355079928224e-05
4.286143071535767604e+02 4.251415781266789496e-05
4.295147573786892963e+02 4.262164711366131211e-05
4.304152076038018890e+02 4.302770713884359482e-05
4.313156578289144250e+02 4.355827095687371054e-05
4.322161080540270177e+02 4.392049300551506021e-05
4.331165582791395536e+02 4.398601664026971703e-05
4.340170085042520896e+02 4.384081838087080894e-05
4.349174587293646823e+02 4.365217736728558054e-05
4.358179089544772182e+02 4.358326784087012833e-05
4.367183591795897541e+02 4.378586275118564634e-05
4.376188094047023469e+02 4.439141908728099406e-05
4.385192596298148828e+02 4.526911971544196275e-05
4.394197098549274187e+02 4.597265792847092677e-05
4.403201600800400115e+02 4.617275899861646382e-05
4.412206103051525474e+02 4.588169264107675360e-05
4.421210605302650833e+02 4.530332659050671004e-05
4.430215107553776761e+02 4.470379193474557304e-05
4.439219609804902120e+02 4.430300856713850711e-05
4.448224112056028048e+02 4.415313906740353023e-05
4.457228614307153407e+02 4.416123129051306793e-05
4.466233116558278766e+02 4.419237117995986910e-05
4.475237618809404694e+02 4.415304788460548989e-05
4.484242121060530053e+02 4.409611575751817391e-05
4.493246623311655412e+02 4.417438085733164856e-05
4.502251125562781340e+02 4.449302644632344579e-05
4.511255627813906699e+02 4.507237727094682162e-05
4.520260130065032058e+02 4.582582859378825049e-05
4.529264632316157986e+02 4.658068974437177070e-05
4.538269134567283345e+02 4.719408164658397319e-05
4.547273636818408704e+02 4.758222375036090366e-05
4.556278139069534632e+02 4.764073718429537611e-05
4.565282641320659991e+02 4.730516336857726052e-05
4.574287143571785919e+02 4.675800337206991174e-05
4.583291645822911278e+02 4.628469157547517666e-05
4.592296148074036637e+02 4.602655505939468310e-05
4.601300650325162565e+02 4.597997076166015243e-05
4.610305152576287924e+02 4.606817274755572816e-05
4.619309654827413283e+02 4.621554619179946133e-05
4.628314157078539210e+02 4.631461685379066671e-05
4.637318659329664570e+02 4.617675577243413726e-05
4.646323161580789929e+02 4.566915500866010889e-05
4.655327663831915856e+02 4.492864481461122548e-05
4.664332166083041216e+02 4.423392948539988366e-05
4.673336668334167143e+02 4.374457424249123840e-05
4.682341170585292502e+02 4.350162484727022086e-05
4.691345672836417862e+02 4.352808111665529067e-05
4.700350175087543789e+02 4.372971475366385570e-05
4.709354677338669148e+02 4.395651790400749177e-05
4.718359179589794508e+02 4.422771041416572195e-05
4.727363681840920435e+02 4.463171471948545880e-05
4.736368184092045794e+02 4.522102568584963954e-05
4.745372686343171154e+02 4.598231102678742232e-05
4.754377188594297081e+02 4.677849679867177241e-05
4.763381690845422440e+02 4.740284939101050034e-05
4.772386193096547800e+02 4.766648465376634565e-05
4.781390695347673727e+02 4.744452980739002538e-05
4.790395197598799086e+02 4.683102243820628775e-05
4.799399699849925014e+02 4.606480565774606102e-05
4.808404202101050373e+02 4.529342641833961173e-05
4.817408704352175732e+02 4.471291865724656825e-05
4.826413206603301660e+02 4.457429681536805049e-05
4.835417708854427019e+02 4.498049168223924784e-05
4.844422211105552378e+02 4.586687152831880334e-05
4.853426713356678306e+02 4.704375467598591174e-05
4.862431215607803665e+02 4.820416747517867811e-05
4.871435717858929024e+02 4.914263199794413611e-05
4.880440220110054952e+02 4.992441547049002095e-05
4.889444722361180311e+02 5.070564544570831090e-05
4.898449224612305670e+02 5.151913375119107749e-05
4.907453726863431598e+02 5.231948585420336412e-05
4.916458229114556957e+02 5.300556329727199804e-05
4.925462731365682885e+02 5.346762177323980309e-05
4.934467233616808244e+02 5.378927411995137721e-05
4.943471735867933603e+02 5.419953783792695303e-05
4.952476238119059531e+02 5.478948234384498685e-05
4.961480740370184890e+02 5.538530003656807229e-05
4.970485242621310249e+02 5.561540153944334646e-05
4.979489744872436177e+02 5.529186691579915304e-05
4.988494247123561536e+02 5.468951039050117522e-05
4.997498749374686895e+02 5.418886418616655293e-05
5.006503251625812823e+02 5.392997851739438894e-05
5.015507753876938182e+02 5.397269148103751326e-05
5.024512256128063541e+02 5.433556930711283924e-05
5.033516758379189469e+02 5.480896081749616347e-05
5.042521260630314828e+02 5.519181103892594706e-05
5.051525762881440755e+02 5.564358376900206021e-05
5.060530265132566115e+02 5.638662587385061503e-05
5.069534767383691474e+02 5.724206123584659888e-05
5.078539269634817401e+02 5.780261705347564398e-05
5.087543771885942760e+02 5.791591173882289819e-05
5.096548274137068120e+02 5.775931377561916238e-05
5.105552776388194047e+02 5.757732033603118034e-05
5.114557278639319406e+02 5.764351566844149740e-05
5.123561780890445334e+02 5.823433869857133762e-05
5.132566283141570693e+02 5.937595839960274857e-05
5.141570785392696052e+02 6.076638214901528657e-05
5.150575287643821412e+02 6.205291136486666573e-05
5.159579789894946771e+02 6.308935309513763359e-05
5.168584292146073267e+02 6.381126407557316548e-05
5.177588794397198626e+02 6.408198586855045015e-05
5.186593296648323985e+02 6.400882583215252775e-05
5.195597798899449344e+02 6.391276442558887583e-05
5.204602301150574704e+02 6.379262497216125062e-05
5.213606803401700063e+02 6.349137159827575631e-05
5.222611305652826559e+02 6.318207032230285065e-05
5.231615807903951918e+02 6.321585296500091414e-05
5.240620310155077277e+02 6.382017426670343941e-05
5.249624812406202636e+02 6.482824673240596017e-05
5.258629314657327996e+02 6.588581026518014331e-05
5.267633816908454492e+02 6.695266486347310633e-05
5.276638319159579851e+02 6.814776456994278123e-05
5.285642821410705210e+02 6.942243157991569928e-05
5.294647323661830569e+02 7.058287735048712438e-05
5.303651825912955928e+02 7.142453274939594850e-05
5.312656328164081287e+02 7.190578547220414856e-05
5.321660830415207784e+02 7.214432347011511979e-05
5.330665332666333143e+02 7.223675734887961830e-05
5.339669834917458502e+02 7.236147036229434123e-05
5.348674337168583861e+02 7.263251732607984722e-05
5.357678839419709220e+02 7.289362700230536283e-05
5.366683341670835716e+02 7.297054084047650379e-05
5.375687843921961075e+02 7.308131518761117279e-05
5.384692346173086435e+02 7.365165723948525112e-05
5.393696848424211794e+02 7.483928759895693071e-05
5.402701350675337153e+02 7.649727772231234733e-05
5.411705852926462512e+02 7.812087752569154729e-05
5.420710355177589008e+02 7.897062626324235308e-05
5.429714857428714367e+02 7.871756954660578552e-05
5.438719359679839727e+02 7.776311489897100098e-05
5.447723861930965086e+02 7.654350532815048787e-05
5.456728364182090445e+02 7.508155546567446873e-05
5.465732866433215804e+02 7.343584165869968916e-05
5.474737368684342300e+02 7.192962905165971538e-05
5.483741870935467659e+02 7.078646880332001268e-05
5.492746373186593019e+02 7.004993339007671593e-05
5.501750875437718378e+02 6.969652511762122543e-05
5.510755377688843737e+02 6.956710778447994280e-05
5.519759879939970233e+02 6.940388157965431506e-05
5.528764382191095592e+02 6.915634733086236774e-05
5.537768884442220951e+02 6.896461115962697450e-05
5.546773386693346310e+02 6.891598221005600512e-05
5.555777888944471670e+02 6.904967428165834954e-05
5.564782391195597029e+02 6.939526074853491467e-05
5.573786893446723525e+02 7.004199763667280578e-05
5.582791395697848884e+02 7.096938172041152330e-05
5.591795897948974243e+02 7.195062787744513236e-05
5.600800400200099602e+02 7.280258478269925951e-05
5.609804902451224962e+02 7.341692513284374833e-05
5.618809404702351458e+02 7.374251814794063669e-05
5.627813906953476817e+02 7.390958523474309950e-05
5.636818409204602176e+02 7.409538097030916089e-05
5.645822911455727535e+02 7.436648841027504551e-05
5.654827413706852894e+02 7.470309190575518863e-05
5.663831915957978254e+02 7.517072914975512804e-05
5.672836418209104750e+02 7.592258098775558157e-05
5.681840920460230109e+02 7.684650552121472140e-05
5.690845422711355468e+02 7.747264980400767314e-05
5.699849924962480827e+02 7.740540852250664373e-05
5.708854427213606186e+02 7.673622786700197884e-05
5.717858929464731546e+02 7.592808245067674748e-05
5.726863431715858042e+02 7.531732253067311919e-05
5.735867933966983401e+02 7.495592961759545679e-05
5.744872436218108760e+02 7.481316327136283673e-05
5.753876938469234119e+02 7.477923170216129259e-05
5.762881440720359478e+02 7.462268377545459722e-05
5.771885942971485974e+02 7.416978305879741147e-05
5.780890445222611334e+02 7.340687185484043363e-05
5.789894947473736693e+02 7.237048787800314724e-05
5.798899449724862052e+02 7.128880583350232902e-05
5.807903951975987411e+02 7.055347557230016856e-05
5.816908454227112770e+02 7.034367377150049338e-05
5.825912956478239266e+02 7.062726831857792738e-05
5.834917458729364625e+02 7.118883485262708980e-05
5.843921960980489985e+02 7.157734736903042724e-05
5.852926463231615344e+02 7.143810113915869634e-05
5.861930965482740703e+02 7.089089699881091582e-05
5.870935467733867199e+02 7.025461368946214443e-05
5.879939969984992558e+02 6.972870815703222135e-05
5.888944472236117917e+02 6.946842853674319333e-05
5.897948974487243277e+02 6.953774243867697922e-05
5.906953476738368636e+02 6.979783921691079019e-05
5.915957978989493995e+02 7.004760449508640825e-05
5.924962481240620491e+02 7.019344370270224861e-05
5.933966983491745850e+02 7.034336827448705123e-05
5.942971485742871209e+02 7.068373352635550183e-05
5.951975987993996569e+02 7.117551721226411502e-05
5.960980490245121928e+02 7.154010489256442469e-05
5.969984992496247287e+02 7.139662241670510930e-05
5.978989494747373783e+02 7.058878840796369307e-05
5.987993996998499142e+02 6.941761624342120390e-05
5.996998499249624501e+02 6.827561316506434237e-05
6.006003001500749860e+02 6.724413527521107194e-05
6.015007503751875220e+02 6.611237099687592713e-05
6.024012006003001716e+02 6.475392304149306063e-05
6.033016508254127075e+02 6.333467757841348934e-05
6.042021010505252434e+02 6.208416454212463290e-05
6.051025512756377793e+02 6.103028285333862799e-05
6.060030015007503152e+02 6.012538117584808532e-05
6.069034517258628512e+02 5.953402541798924951e-05
6.078039019509755008e+02 5.943212984287446515e-05
6.087043521760880367e+02 5.970617397573606012e-05
6.096048024012005726e+02 6.007144826625200677e-05
6.105052526263131085e+02 6.030647376603406862e-05
6.114057028514256444e+02 6.029196397256710965e-05
6.123061530765382940e+02 6.013639545793418909e-05
6.132066033016508300e+02 6.013390365904334794e-05
6.141070535267633659e+02 6.037436431460137639e-05
6.150075037518759018e+02 6.066440431883175202e-05
6.159079539769884377e+02 6.073754180790889992e-05
6.168084042021009736e+02 6.048872105498203332e-05
6.177088544272136232e+02 6.003814534495012924e-05
6.186093046523261592e+02 5.945359665552818148e-05
6.195097548774386951e+02 5.864458182525872419e-05
6.204102051025512310e+02 5.771702241203651752e-05
6.213106553276637669e+02 5.705395477842336026e-05
6.222111055527763028e+02 5.687563720974717996e-05
6.231115557778889524e+02 5.712235215204739712e-05
6.240120060030014884e+02 5.769958940708676753e-05
6.249124562281140243e+02 5.846695489698368152e-05
6.258129064532265602e+02 5.915015783810232379e-05
6.267133566783390961e+02 5.959318120750494417e-05
6.276138069034517457e+02 5.988812295496906174e-05
6.285142571285642816e+02 6.013223276421886894e-05
6.294147073536768175e+02 6.030342383014288557e-05
6.303151575787893535e+02 6.039217710353334331e-05
6.312156078039018894e+02 6.040484976554625891e-05
6.321160580290144253e+02 6.020672369882123327e-05
6.330165082541270749e+02 5.971248523976107855e-05
6.339169584792396108e+02 5.911074721759173743e-05
6.348174087043521467e+02 5.874669462197901188e-05
6.357178589294646827e+02 5.883948461254908844e-05
6.366183091545772186e+02 5.931684191927692247e-05
6.375187593796898682e+02 5.987411050311110657e-05
6.384192096048024041e+02 6.010359185478864557e-05
6.393196598299149400e+02 5.987753676856126279e-05
6.402201100550274759e+02 5.940923131639739229e-05
6.411205602801400119e+02 5.884920273333453338e-05
6.420210105052525478e+02 5.820030491588127941e-05
6.429214607303651974e+02 5.746808682604919805e-05
6.438219109554777333e+02 5.663180709326464426e-05
6.447223611805902692e+02 5.569973449618354980e-05
6.456228114057028051e+02 5.485667206288715771e-05
6.465232616308153411e+02 5.438602183876460616e-05
6.474237118559278770e+02 5.441822700420727435e-05
6.483241620810405266e+02 5.481436157168294776e-05
6.492246123061530625e+02 5.523222603903853623e-05
6.501250625312655984e+02 5.538297198119356961e-05
6.510255127563781343e+02 5.529965705380494650e-05
6.519259629814906702e+02 5.528789290490398084e-05
6.528264132066033198e+02 5.556527850907066503e-05
6.537268634317158558e+02 5.603302945288740513e-05
6.546273136568283917e+02 5.646972470537527718e-05
6.555277638819409276e+02 5.670631579031063093e-05
6.564282141070534635e+02 5.658177565545871872e-05
6.573286643321659994e+02 5.605195657801723239e-05
6.582291145572786490e+02 5.538674692116309084e-05
6.591295647823911850e+02 5.489362550475549926e-05
6.600300150075037209e+02 5.482133220980763916e-05
6.609304652326162568e+02 5.536166424821920072e-05
6.618309154577287927e+02 5.640019160897432850e-05
6.627313656828414423e+02 5.755605009100274580e-05
6.636318159079539782e+02 5.849833860899072166e-05
6.645322661330665142e+02 5.913618109597948463e-05
6.654327163581790501e+02 5.957004367409607848e-05
6.663331665832915860e+02 5.999925819987564368e-05
6.672336168084041219e+02 6.037011778463807418e-05
6.681340670335167715e+02 6.015916247803946367e-05
6.690345172586293074e+02 5.902892594931511821e-05
6.699349674837418434e+02 5.730111703112950348e-05
6.708354177088543793e+02 5.552740472133651449e-05
6.717358679339669152e+02 5.411599707429422886e-05
6.726363181590794511e+02 5.324138980508935778e-05
6.735367683841921007e+02 5.290578782176090815e-05
6.744372186093046366e+02 5.292889747028045030e-05
6.753376688344171725e+02 5.292896740402569392e-05
6.762381190595297085e+02 5.253559752346188643e-05
6.771385692846422444e+02 5.179805278913696121e-05
6.780390195097548940e+02 5.120737262107834042e-05
6.789394697348674299e+02 5.121711597940946766e-05
6.798399199599799658e+02 5.172453952081756999e-05
6.807403701850925017e+02 5.219234045460975321e-05
6.816408204102050377e+02 5.227743355456982344e-05
6.825412706353175736e+02 5.205532776456839788e-05
6.834417208604302232e+02 5.172520749383501085e-05
6.843421710855427591e+02 5.147517044061422940e-05
6.852426213106552950e+02 5.153328683346369469e-05
6.861430715357678309e+02 5.202870833808649305e-05
6.870435217608803669e+02 5.285517944085708556e-05
6.879439719859930165e+02 5.376381316593507984e-05
6.888444222111055524e+02 5.460077711070504916e-05
6.897448724362180883e+02 5.535139744199476684e-05
6.906453226613306242e+02 5.592964519393797522e-05
6.915457728864431601e+02 5.601420657165155810e-05
6.924462231115556961e+02 5.541239122870546903e-05
6.933466733366683457e+02 5.443692713381550612e-05
6.942471235617808816e+02 5.354352634293000062e-05
6.951475737868934175e+02 5.289618933136854543e-05
6.960480240120059534e+02 5.241886304931400677e-05
6.969484742371184893e+02 5.193323202449338097e-05
6.978489244622311389e+02 5.130087626883678159e-05
6.987493746873436749e+02 5.063604573609894370e-05
6.996498249124562108e+02 5.017640000573758051e-05
7.005502751375687467e+02 4.998747472009908101e-05
7.014507253626812826e+02 5.001457903523374125e-05
7.023511755877938185e+02 5.021422743583351680e-05
7.032516258129064681e+02 5.056005943888343868e-05
7.041520760380190040e+02 5.100452187257364700e-05
7.050525262631315400e+02 5.142425447372003078e-05
7.059529764882440759e+02 5.169718468842529591e-05
7.068534267133566118e+02 5.180106557572808286e-05
7.077538769384691477e+02 5.172694450864268316e-05
7.086543271635817973e+02 5.149673620296084040e-05
7.095547773886943332e+02 5.121040127964147947e-05
7.104552276138068692e+02 5.098941566118723496e-05
7.113556778389194051e+02 5.089656846217971501e-05
7.122561280640319410e+02 5.089421661737872214e-05
7.131565782891445906e+02 5.097868859468030492e-05
7.140570285142571265e+02 5.118654080787501866e-05
7.149574787393696624e+02 5.142398551673424509e-05
7.158579289644821984e+02 5.165473218328687041e-05
7.167583791895947343e+02 5.210391240519275267e-05
7.176588294147072702e+02 5.288680314096188623e-05
7.185592796398199198e+02 5.380918880375338572e-05
7.194597298649324557e+02 5.464383999842714411e-05
7.203601800900449916e+02 5.532663277898652903e-05
7.212606303151575275e+02 5.580458301952696679e-05
7.221610805402700635e+02 5.582817290841584468e-05
7.230615307653827131e+02 5.522217989656312141e-05
7.239619809904952490e+02 5.419226295768922534e-05
7.248624312156077849e+02 5.314675870466238492e-05
7.257628814407203208e+02 5.223006291424231733e-05
7.266633316658328567e+02 5.133263546845633470e-05
7.275637818909453927e+02 5.047863909538306034e-05
7.284642321160580423e+02 4.983623135459870900e-05
7.293646823411705782e+02 4.950106573822486721e-05
7.302651325662831141e+02 4.942914373238319748e-05
7.311655827913956500e+02 4.950436703452257227e-05
7.320660330165081859e+02 4.963109370308133169e-05
7.329664832416207219e+02 4.975725479157397965e-05
7.338669334667333715e+02 4.978195444939036851e-05
7.347673836918459074e+02 4.968074645457494856e-05
7.356678339169584433e+02 4.970405783840857271e-05
7.365682841420709792e+02 5.012434279734751116e-05
7.374687343671835151e+02 5.096408051781338628e-05
7.383691845922961647e+02 5.206674816763111221e-05
7.392696348174087007e+02 5.329370253644718179e-05
7.401700850425212366e+02 5.456079357165392549e-05
7.410705352676337725e+02 5.565609309475013359e-05
7.419709854927463084e+02 5.627362018136318196e-05
7.428714357178588443e+02 5.624795091728848644e-05
7.437718859429714939e+02 5.563087714244831580e-05
7.446723361680840299e+02 5.470308814309424476e-05
7.455727863931965658e+02 5.381309070332613106e-05
7.464732366183091017e+02 5.305930555260517133e-05
7.473736868434216376e+02 5.246236906104573521e-05
7.482741370685342872e+02 5.224646751056211770e-05
7.491745872936468231e+02 5.260013101796685923e-05
7.500750375187593590e+02 5.339418994607618560e-05
7.509754877438718950e+02 5.440282823390567188e-05
7.518759379689844309e+02 5.534673099775974149e-05
7.527763881940969668e+02 5.581281274091146375e-05
7.536768384192096164e+02 5.565099252563062316e-05
7.545772886443221523e+02 5.524009389592421826e-05
7.554777388694346882e+02 5.498171987791806000e-05
7.563781890945472242e+02 5.483270202590165071e-05
7.572786393196597601e+02 5.459139514622539846e-05
7.581790895447722960e+02 5.439670587875633772e-05
7.590795397698849456e+02 5.452626419273964500e-05
7.599799899949974815e+02 5.499002075621415095e-05
7.608804402201100174e+02 5.563945257812080676e-05
7.617808904452225534e+02 5.637150904605647313e-05
7.626813406703350893e+02 5.729375466427155970e-05
7.635817908954477389e+02 5.851545035510342051e-05
7.644822411205602748e+02 5.979525387775548075e-05
7.653826913456728107e+02 6.063344178061646372e-05
7.662831415707853466e+02 6.073887713579502028e-05
7.671835917958978825e+02 6.022410311683208092e-05
7.680840420210104185e+02 5.949850989578298418e-05
7.689844922461230681e+02 5.897639044000791981e-05
7.698849424712356040e+02 5.878650058850169036e-05
7.707853926963481399e+02 5.874489555717176098e-05
7.716858429214606758e+02 5.858991918213026932e-05
7.725862931465732117e+02 5.831780007377507138e-05
7.734867433716858613e+02 5.818739498364160938e-05
7.743871935967983973e+02 5.836404996589588773e-05
7.752876438219109332e+02 5.883044333885150816e-05
7.761880940470234691e+02 5.965767489322667367e-05
7.770885442721360050e+02 6.085290476790995202e-05
7.779889944972485409e+02 6.211109860360527698e-05
7.788894447223611905e+02 6.305852947529301468e-05
7.797898949474737265e+02 6.349225476372733423e-05
7.806903451725862624e+02 6.354433790263439420e-05
7.815907953976987983e+02 6.356773994974849714e-05
7.824912456228113342e+02 6.368409553534198897e-05
7.833916958479238701e+02 6.356200118525127756e-05
7.842921460730365197e+02 6.267032171122639242e-05
7.851925962981490557e+02 6.096450958807648297e-05
7.860930465232615916e+02 5.913979127779024321e-05
7.869934967483741275e+02 5.794985958975233426e-05
7.878939469734866634e+02 5.768499667788257157e-05
7.887943971985993130e+02 5.823571983135121722e-05
7.896948474237118489e+02 5.923095186222147640e-05
7.905952976488243849e+02 6.019198903420882040e-05
7.914957478739369208e+02 6.084243668797101930e-05
7.923961980990494567e+02 6.122147069477960966e-05
7.932966483241619926e+02 6.137628913721390332e-05
7.941970985492746422e+02 6.141538107637175962e-05
7.950975487743871781e+02 6.162175576461383986e-05
7.959979989994997140e+02 6.218039901758190601e-05
7.968984492246122500e+02 6.299276212678932654e-05
7.977988994497247859e+02 6.368534677985884091e-05
7.986993496748374355e+02 6.397375797950074464e-05
7.995997998999499714e+02 6.386239339121315220e-05
8.005002501250625073e+02 6.344174252282807226e-05
8.014007003501750432e+02 6.281234596523934755e-05
8.023011505752875792e+02 6.231547393579717144e-05
8.032016008004001151e+02 6.227516798291099726e-05
8.041020510255127647e+02 6.252047188536955630e-05
8.050025012506253006e+02 6.256672093927671211e-05
8.059029514757378365e+02 6.218918634662835127e-05
8.068034017008503724e+02 6.156959017473296995e-05
8.077038519259629084e+02 6.100927858898704188e-05
8.086043021510754443e+02 6.065486096322014308e-05
8.095047523761880939e+02 6.042923272072772581e-05
8.104052026013006298e+02 6.013830930365090101e-05
8.113056528264131657e+02 5.979173181509848066e-05
8.122061030515257016e+02 5.965194524227479457e-05
8.131065532766382375e+02 6.000799392276715878e-05
8.140070035017508872e+02 6.088902847704496726e-05
8.149074537268634231e+02 6.198405855347780273e-05
8.158079039519759590e+02 6.292623470011325334e-05
8.167083541770884949e+02 6.348462831325335856e-05
8.176088044022010308e+02 6.360369392566240902e-05
8.185092546273135667e+02 6.353510074610021758e-05
8.194097048524262163e+02 6.354128132511064795e-05
8.203101550775387523e+02 6.363768114840924266e-05
8.212106053026512882e+02 6.374593138480986023e-05
8.221110555277638241e+02 6.382439704164083439e-05
8.230115057528763600e+02 6.392965505359199385e-05
8.239119559779890096e+02 6.409508417621036995e-05
8.248124062031015455e+02 6.417709311676113369e-05
8.257128564282140815e+02 6.388977557142843419e-05
8.266133066533266174e+02 6.309684060868828235e-05
8.275137568784391533e+02 6.219409830569173350e-05
8.284142071035516892e+02 6.179045812708667108e-05
8.293146573286643388e+02 6.200041613763398443e-05
8.302151075537768747e+02 6.251573830994758263e-05
8.311155577788894107e+02 6.334970094944721399e-05
8.320160080040019466e+02 6.470376300645094283e-05
8.329164582291144825e+02 6.630003332708802276e-05
8.338169084542270184e+02 6.759513557274800721e-05
8.347173586793396680e+02 6.827580062166880778e-05
8.356178089044522039e+02 6.823243487399467731e-05
8.365182591295647399e+02 6.752566814080014765e-05
8.374187093546772758e+02 6.651182999048359614e-05
8.383191595797898117e+02 6.565286585287637730e-05
8.392196098049024613e+02 6.513005337318631782e-05
8.401200600300149972e+02 6.467813625653747226e-05
8.410205102551275331e+02 6.405260866343009832e-05
8.419209604802400690e+02 6.349892533262039012e-05
8.428214107053526050e+02 6.327333118065526249e-05
8.437218609304651409e+02 6.315366299369099055e-05
8.446223111555777905e+02 6.294260079730262249e-05
8.455227613806903264e+02 6.275499781408072609e-05
8.464232116058028623e+02 6.263830449738086090e-05
8.473236618309153982e+02 6.249468670630554988e-05
8.482241120560279342e+02 6.228603754386720500e-05
8.491245622811405838e+02 6.201647497265019707e-05
8.500250125062531197e+02 6.172996836968068512e-05
8.509254627313656556e+02 6.164229729233063602e-05
8.518259129564781915e+02 6.193685886164960357e-05
8.527263631815907274e+02 6.249853699718457692e-05
8.536268134067032634e+02 6.312507777975861600e-05
8.545272636318159130e+02 6.374447910172171996e-05
8.554277138569284489e+02 6.434659558131980049e-05
8.563281640820409848e+02 6.489837181247760380e-05
8.572286143071535207e+02 6.525980687661774601e-05
8.581290645322660566e+02 6.527342341775437321e-05
8.590295147573785925e+02 6.513465149646345683e-05
8.599299649824912422e+02 6.527277818058226360e-05
8.608304152076037781e+02 6.584395216237401080e-05
8.617308654327163140e+02 6.661400984008115217e-05
8.626313156578288499e+02 6.733671709414065299e-05
8.635317658829413858e+02 6.800447497848089839e-05
8.644322161080540354e+02 6.874593480767551552e-05
8.653326663331665713e+02 6.963125112601991989e-05
8.662331165582791073e+02 7.052511914705723080e-05
8.671335667833916432e+02 7.121495615870907967e-05
8.680340170085041791e+02 7.168065824448955985e-05
8.689344672336167150e+02 7.215506912280142545e-05
8.698349174587293646e+02 7.282639621819854707e-05
8.707353676838419005e+02 7.359615231223448498e-05
8.716358179089544365e+02 7.425116220419601567e-05
8.725362681340669724e+02 7.467230657404236294e-05
8.734367183591795083e+02 7.507402209426240714e-05
8.743371685842921579e+02 7.574727180988198019e-05
8.752376188094046938e+02 7.645259119708045946e-05
8.761380690345172297e+02 7.663808553756221577e-05
8.770385192596297657e+02 7.626438985879382124e-05
8.779389694847423016e+02 7.572286494744150120e-05
8.788394197098548375e+02 7.537374840290519842e-05
8.797398699349674871e+02 7.528976038811604208e-05
8.806403201600800230e+02 7.549185240772858930e-05
8.815407703851925589e+02 7.608409504237637923e-05
8.824412206103050949e+02 7.682486987086461106e-05
8.833416708354176308e+02 7.741593691225221114e-05
8.842421210605301667e+02 7.807397163143932383e-05
8.851425712856428163e+02 7.898923735535615294e-05
8.860430215107553522e+02 7.970522088886931248e-05
8.869434717358678881e+02 7.972130806046574553e-05
8.878439219609804240e+02 7.922762643665109299e-05
8.887443721860929600e+02 7.884789554909554625e-05
8.896448224112056096e+02 7.901367091324401181e-05
8.905452726363181455e+02 7.976020297569595219e-05
8.914457228614306814e+02 8.072786344328277569e-05
8.923461730865432173e+02 8.132444322219457833e-05
8.932466233116557532e+02 8.137068957835298503e-05
8.941470735367682892e+02 8.132467820517316954e-05
8.950475237618809388e+02 8.169435144132011783e-05
8.959479739869934747e+02 8.252035027739472515e-05
8.968484242121060106e+02 8.357040137117836007e-05
8.977488744372185465e+02 8.469092707018714195e-05
8.986493246623310824e+02 8.574019333861729439e-05
8.995497748874437320e+02 8.656152880472910420e-05
9.004502251125562680e+02 8.714537510748818195e-05
9.013506753376688039e+02 8.757873373002558368e-05
9.022511255627813398e+02 8.814554573600692604e-05
9.031515757878938757e+02 8.927160095527438726e-05
9.040520260130064116e+02 9.088751528921650078e-05
9.049524762381190612e+02 9.255003707568513257e-05
9.058529264632315972e+02 9.414878347312446495e-05
9.067533766883441331e+02 9.575664543289068254e-05
9.076538269134566690e+02 9.748258189100652931e-05
9.085542771385692049e+02 9.956531951319307040e-05
9.094547273636817408e+02 1.019812450466937365e-04
9.103551775887943904e+02 1.041897559735141635e-04
9.112556278139069263e+02 1.053018391523108442e-04
9.121560780390194623e+02 1.050343453188929712e-04
9.130565282641319982e+02 1.044012441719286398e-04
9.139569784892445341e+02 1.048328017495346029e-04
9.148574287143571837e+02 1.071314946124119556e-04
9.157578789394697196e+02 1.109877189593677074e-04
9.166583291645822555e+02 1.152064803429736836e-04
9.175587793896947915e+02 1.183657391566946552e-04
9.184592296148073274e+02 1.192993645659296746e-04
9.193596798399198633e+02 1.175316419738818200e-04
9.202601300650325129e+02 1.138325887509159570e-04
9.211605802901450488e+02 1.098043461661369008e-04
9.220610305152575847e+02 1.067257889339095941e-04
9.229614807403701207e+02 1.049183923897407228e-04
9.238619309654826566e+02 1.039403377303347713e-04
9.247623811905953062e+02 1.033057012483524237e-04
9.256628314157078421e+02 1.028968545632770470e-04
9.265632816408203780e+02 1.027752235171681033e-04
9.274637318659329139e+02 1.031304404429082161e-04
9.283641820910454499e+02 1.044091631302105890e-04
9.292646323161579858e+02 1.069738532619550226e-04
9.301650825412706354e+02 1.105314878355806636e-04
9.310655327663831713e+02 1.142066512459724976e-04
9.319659829914957072e+02 1.174453998863275673e-04
9.328664332166082431e+02 1.203797560784658613e-04
9.337668834417207790e+02 1.232409129187549883e-04
9.346673336668334287e+02 1.258895691070388253e-04
9.355677838919459646e+02 1.279613920852668994e-04
9.364682341170585005e+02 1.295000919607120252e-04
9.373686843421710364e+02 1.308627313440628465e-04
9.382691345672835723e+02 1.319450925978164432e-04
9.391695847923961082e+02 1.321248633321581883e-04
9.400700350175087578e+02 1.312382583270460534e-04
9.409704852426212938e+02 1.300119353852090937e-04
9.418709354677338297e+02 1.291738621520718800e-04
9.427713856928463656e+02 1.288960353246102961e-04
9.436718359179589015e+02 1.291171034224957641e-04
9.445722861430714374e+02 1.299819991701414961e-04
9.454727363681840870e+02 1.319229675639565288e-04
9.463731865932966230e+02 1.347933722455700296e-04
9.472736368184091589e+02 1.377124628272937551e-04
9.481740870435216948e+02 1.401424236047787509e-04
9.490745372686342307e+02 1.419651464602298221e-04
9.499749874937468803e+02 1.432322009175728082e-04
9.508754377188594162e+02 1.445451127478589203e-04
9.517758879439719522e+02 1.461538383581758715e-04
9.526763381690844881e+02 1.473659654899856181e-04
9.535767883941970240e+02 1.475595971710549979e-04
9.544772386193095599e+02 1.468198705929275470e-04
9.553776888444222095e+02 1.456847890826356413e-04
9.562781390695347454e+02 1.448570282233018955e-04
9.571785892946472813e+02 1.449388828218045925e-04
9.580790395197598173e+02 1.460195676947291965e-04
9.589794897448723532e+02 1.478336522266224750e-04
9.598799399699850028e+02 1.501891632055187421e-04
9.607803901950975387e+02 1.530360702430239657e-04
9.616808404202100746e+02 1.562440439267367498e-04
9.625812906453226105e+02 1.593803600158310934e-04
9.634817408704351465e+02 1.619537527051585909e-04
9.643821910955476824e+02 1.638717700413398596e-04
9.652826413206603320e+02 1.654315917155965601e-04
9.661830915457728679e+02 1.668418619105435717e-04
9.670835417708854038e+02 1.682894583701702036e-04
9.679839919959979397e+02 1.697874914053129993e-04
9.688844422211104757e+02 1.709068883730256077e-04
9.697848924462230116e+02 1.712314087462098264e-04
9.706853426713356612e+02 1.706171443359028722e-04
9.715857928964481971e+02 1.693130880146173059e-04
9.724862431215607330e+02 1.678964320307460101e-04
9.733866933466732689e+02 1.670208626565012288e-04
9.742871435717858049e+02 1.667563311016537718e-04
9.751875937968984545e+02 1.666716423762824471e-04
9.760880440220109904e+02 1.666771151234997938e-04
9.769884942471235263e+02 1.669117178862333979e-04
9.778889444722360622e+02 1.672593840502924146e-04
9.787893946973485981e+02 1.674870251579696381e-04
9.796898449224611340e+02 1.673777338125759370e-04
9.805902951475737837e+02 1.668912555166392989e-04
9.814907453726863196e+02 1.661322373559103317e-04
9.823911955977988555e+02 1.653942811270373351e-04
9.832916458229113914e+02 1.652505792644167392e-04
9.841920960480239273e+02 1.661084134417901515e-04
9.850925462731365769e+02 1.676360081599164332e-04
9.859929964982491128e+02 1.695179769620392860e-04
9.868934467233616488e+02 1.721026449129873929e-04
9.877938969484741847e+02 1.753431727134431074e-04
9.886943471735867206e+02 1.786045466856492911e-04
9.895947973986992565e+02 1.816091528118478403e-04
9.904952476238119061e+02 1.842930668427701754e-04
9.913956978489244420e+02 1.865097249684240916e-04
9.922961480740369780e+02 1.883153161307401721e-04
9.931965982991495139e+02 1.905338195925936084e-04
9.940970485242620498e+02 1.938566393270057056e-04
9.949974987493745857e+02 1.972568994317229582e-04
9.958979489744872353e+02 1.991146865899598450e-04
9.967983991995997712e+02 1.995749937468788366e-04
9.976988494247123072e+02 2.003959040537349717e-04
9.985992996498248431e+02 2.024623805485093581e-04
9.994997498749373790e+02 2.050327694918826322e-04
1.000400200100050029e+03 2.072697062937359236e-04
1.001300650325162565e+03 2.091237513798267355e-04
1.002201100550275100e+03 2.109727850010782182e-04
1.003101550775387636e+03 2.131410020605185830e-04
1.004002001000500172e+03 2.158356324140735792e-04
1.004902451225612708e+03 2.189007841124530895e-04
1.005802901450725358e+03 2.214736129629511199e-04
1.006703351675837894e+03 2.227635395962007919e-04
1.007603801900950430e+03 2.229904733948779357e-04
1.008504252126062966e+03 2.231530344754683475e-04
1.009404702351175501e+03 2.243235501004913499e-04
1.010305152576288151e+03 2.270640750563382264e-04
1.011205602801400687e+03 2.306860544060029708e-04
1.012106053026513223e+03 2.334719213363651528e-04
1.013006503251625759e+03 2.348038287091495425e-04
1.013906953476738295e+03 2.356366958836898697e-04
1.014807403701850831e+03 2.368567206796703972e-04
1.015707853926963480e+03 2.384369148509209765e-04
1.016608304152076016e+03 2.403865085088972202e-04
1.017508754377188552e+03 2.437624730980066947e-04
1.018409204602301088e+03 2.491573747706722457e-04
1.019309654827413624e+03 2.552990447188207244e-04
1.020210105052526160e+03 2.603185902346178511e-04
1.021110555277638809e+03 2.638969253633193456e-04
1.022011005502751345e+03 2.670502352996224644e-04
1.022911455727863881e+03 2.703147366745104700e-04
1.023811905952976417e+03 2.729537413616074529e-04
1.024712356178089067e+03 2.742421302611643304e-04
1.025612806403201603e+03 2.746427733033190207e-04
1.026513256628314139e+03 2.754882281712611302e-04
1.027413706853426675e+03 2.774696104006272560e-04
1.028314157078539210e+03 2.801182983569778942e-04
1.029214607303651746e+03 2.822447570827585350e-04
1.030115057528764282e+03 2.823523936154919626e-04
1.031015507753876818e+03 2.804112922298055625e-04
1.031915957978989354e+03 2.781826717231129786e-04
1.032816408204101890e+03 2.771248682200101667e-04
1.033716858429214653e+03 2.774654335122046095e-04
1.034617308654327189e+03 2.788319859614902412e-04
1.035517758879439725e+03 2.807437137252838085e-04
1.036418209104552261e+03 2.830738131977694359e-04
1.037318659329664797e+03 2.859813659662185773e-04
1.038219109554777333e+03 2.895328059200345978e-04
1.039119559779889869e+03 2.937172245817093290e-04
1.040020010005002405e+03 2.983397507697625522e-04
1.040920460230114941e+03 3.029679603923974055e-04
1.041820910455227477e+03 3.069483158300056243e-04
1.042721360680340013e+03 3.098109826056454942e-04
1.043621810905452776e+03 3.116395129455446574e-04
1.044522261130565312e+03 3.131003506378334596e-04
1.045422711355677848e+03 3.155122397589171985e-04
1.046323161580790384e+03 3.195355178800199239e-04
1.047223611805902920e+03 3.239692018910508213e-04
1.048124062031015455e+03 3.270535481490042693e-04
1.049024512256127991e+03 3.286476386279810636e-04
1.049924962481240527e+03 3.300267544161019913e-04
1.050825412706353063e+03 3.317697547403922957e-04
1.051725862931465599e+03 3.338624134552762917e-04
1.052626313156578135e+03 3.368126769045239966e-04
1.053526763381690898e+03 3.411747878411396269e-04
1.054427213606803434e+03 3.465861573814283292e-04
1.055327663831915970e+03 3.523201852819490051e-04
1.056228114057028506e+03 3.581231066206887453e-04
1.057128564282141042e+03 3.641681718606805266e-04
1.058029014507253578e+03 3.703026119892286958e-04
1.058929464732366114e+03 3.760635540577751852e-04
1.059829914957478650e+03 3.807676903034193610e-04
1.060730365182591186e+03 3.834197991215012539e-04
1.061630815407703722e+03 3.836392133399209965e-04
1.062531265632816257e+03 3.825285410428280329e-04
1.063431715857929021e+03 3.825093867327263074e-04
1.064332166083041557e+03 3.853326765704372103e-04
1.065232616308154093e+03 3.895026524967648020e-04
1.066133066533266629e+03 3.910236964026944629e-04
1.067033516758379164e+03 3.881125100912492690e-04
1.067933966983491700e+03 3.832946529734348779e-04
1.068834417208604236e+03 3.797105400805608484e-04
1.069734867433716772e+03 3.782555003771114117e-04
1.070635317658829308e+03 3.786642355974025541e-04
1.071535767883941844e+03 3.803151090744234233e-04
1.072436218109054380e+03 3.826378972953347300e-04
1.073336668334167143e+03 3.853407293135969482e-04
1.074237118559279679e+03 3.881365849005698979e-04
1.075137568784392215e+03 3.912755297290486140e-04
1.076038019009504751e+03 3.950687933293316905e-04
1.076938469234617287e+03 3.990706787218990088e-04
1.077838919459729823e+03 4.026649258729893396e-04
1.078739369684842359e+03 4.054703342805171182e-04
1.079639819909954895e+03 4.067620319002859808e-04
1.080540270135067431e+03 4.062475606540859167e-04
1.081440720360179967e+03 4.056727553124306980e-04
1.082341170585292502e+03 4.069007510596756852e-04
1.083241620810405038e+03 4.095188572290850708e-04
1.084142071035517802e+03 4.119526317594760477e-04
1.085042521260630338e+03 4.142013620152450930e-04
1.085942971485742873e+03 4.176839493563606876e-04
1.086843421710855409e+03 4.226453150543558438e-04
1.087743871935967945e+03 4.281546305791064893e-04
1.088644322161080481e+03 4.334062404881701804e-04
1.089544772386193017e+03 4.384582013366583055e-04
1.090445222611305553e+03 4.441660382022381013e-04
1.091345672836418089e+03 4.511177313214994634e-04
1.092246123061530625e+03 4.583084332270669493e-04
1.093146573286643161e+03 4.645193858749137165e-04
1.094047023511755924e+03 4.698876362480727776e-04
1.094947473736868460e+03 4.748540065421742230e-04
1.095847923961980996e+03 4.778546311587552470e-04
1.096748374187093532e+03 4.768481700484573428e-04
1.097648824412206068e+03 4.722976355502864383e-04
1.098549274637318604e+03 4.656586403029411812e-04
1.099449724862431140e+03 4.584066436061314583e-04
1.100350175087543676e+03 4.532180582061646839e-04
1.101250625312656211e+03 4.521657746527268712e-04
1.102151075537768747e+03 4.540476720437215197e-04
1.103051525762881283e+03 4.562558401522562790e-04
1.103951975987994047e+03 4.579148534666137543e-04
1.104852426213106583e+03 4.591463849487822262e-04
1.105752876438219118e+03 4.597918815659373585e-04
1.106653326663331654e+03 4.595676804344885112e-04
1.107553776888444190e+03 4.600485415850258603e-04
1.108454227113556726e+03 4.649226273905391433e-04
1.109354677338669262e+03 4.747278829038343358e-04
1.110255127563781798e+03 4.851429429839729550e-04
1.111155577788894334e+03 4.923134160462737949e-04
1.112056028014006870e+03 4.970575769256196583e-04
1.112956478239119406e+03 5.023234424421409161e-04
1.113856928464232169e+03 5.089929703343916076e-04
1.114757378689344705e+03 5.156787079871399341e-04
1.115657828914457241e+03 5.213574114987481242e-04
1.116558279139569777e+03 5.257542056741986141e-04
1.117458729364682313e+03 5.274438162409602910e-04
1.118359179589794849e+03 5.248699170606415830e-04
1.119259629814907385e+03 5.188203268165342535e-04
1.120160080040019920e+03 5.125963928471100224e-04
1.121060530265132456e+03 5.094501051565237301e-04
1.121960980490244992e+03 5.106193413396374614e-04
1.122861430715357528e+03 5.151981101071769799e-04
1.123761880940470292e+03 5.208315445814461556e-04
1.124662331165582827e+03 5.241137236491742084e-04
1.125562781390695363e+03 5.234320527327605398e-04
1.126463231615807899e+03 5.212481600121406707e-04
1.127363681840920435e+03 5.213701807260764150e-04
1.128264132066032971e+03 5.254448643389516681e-04
1.129164582291145507e+03 5.328641730567208355e-04
1.130065032516258043e+03 5.441260114188295601e-04
1.130965482741370579e+03 5.606824594019589212e-04
1.131865932966483115e+03 5.818102209653060446e-04
1.132766383191595651e+03 6.036954775799582319e-04
1.133666833416708187e+03 6.225564901031552375e-04
1.134567283641820950e+03 6.368622942097254590e-04
1.135467733866933486e+03 6.477137716755826564e-04
1.136368184092046022e+03 6.580254640910002378e-04
1.137268634317158558e+03 6.704303949806233662e-04
1.138169084542271094e+03 6.864674486140813882e-04
1.139069534767383630e+03 7.069140754255710639e-04
1.139969984992496165e+03 7.337351475524852120e-04
1.140870435217608701e+03 7.683971127156115659e-04
1.141770885442721237e+03 8.102835977368212693e-04
1.142671335667833773e+03 8.589985200938511558e-04
1.143571785892946309e+03 9.138009084446775416e-04
1.144472236118059072e+03 9.709693797786295719e-04
1.145372686343171608e+03 1.021289418382403686e-03
1.146273136568284144e+03 1.059848364266938832e-03
1.147173586793396680e+03 1.095326567532911924e-03
1.148074037018509216e+03 1.137452092360755063e-03
1.148974487243621752e+03 1.188173500363211418e-03
1.149874937468734288e+03 1.247543948450297513e-03
1.150775387693846824e+03 1.316645697587550193e-03
1.151675837918959360e+03 1.392931468842740052e-03
1.152576288144071896e+03 1.471979767998139906e-03
1.153476738369184432e+03 1.555377039573147425e-03
1.154377188594297195e+03 1.645489306632562203e-03
1.155277638819409731e+03 1.734653783385157154e-03
1.156178089044522267e+03 1.810719764764223434e-03
1.157078539269634803e+03 1.872515778571543985e-03
1.157978989494747339e+03 1.929057799499511597e-03
1.158879439719859874e+03 1.990712026595348270e-03
1.159779889944972410e+03 2.059941770145172490e-03
1.160680340170084946e+03 2.131402789139255800e-03
1.161580790395197482e+03 2.209894462100826362e-03
1.162481240620310018e+03 2.303267509799372323e-03
1.163381690845422554e+03 2.405163952705363043e-03
1.164282141070535317e+03 2.496758678049208324e-03
1.165182591295647853e+03 2.558714875018197783e-03
1.166083041520760389e+03 2.588555308445805985e-03
1.166983491745872925e+03 2.591965912581178054e-03
1.167883941970985461e+03 2.561861545338718540e-03
1.168784392196097997e+03 2.485887850749317340e-03
1.169684842421210533e+03 2.367797433638084686e-03
1.170585292646323069e+03 2.234440187000589790e-03
1.171485742871435605e+03 2.109253065225201711e-03
1.172386193096548141e+03 1.996163583456432924e-03
1.173286643321660677e+03 1.894519012203726635e-03
1.174187093546773440e+03 1.806178007655159790e-03
1.175087543771885976e+03 1.730240633297096915e-03
1.175987993996998512e+03 1.664186100032476233e-03
1.176888444222111048e+03 1.604207865190677854e-03
1.177788894447223583e+03 1.548123535158038317e-03
1.178689344672336119e+03 1.502012732647895745e-03
1.179589794897448655e+03 1.470381269947350269e-03
1.180490245122561191e+03 1.443796379996243901e-03
1.181390695347673727e+03 1.409235801683088405e-03
1.182291145572786263e+03 1.368245813696922480e-03
1.183191595797898799e+03 1.333829779585970349e-03
1.184092046023011562e+03 1.312719771436324278e-03
1.184992496248124098e+03 1.300178790059336020e-03
1.185892946473236634e+03 1.288526816192984200e-03
1.186793396698349170e+03 1.273720079398212935e-03
1.187693846923461706e+03 1.256531824469298573e-03
1.188594297148574242e+03 1.239612319333719152e-03
1.189494747373686778e+03 1.225154773702315757e-03
1.190395197598799314e+03 1.214711218684280366e-03
1.191295647823911850e+03 1.208734801726344971e-03
1.192196098049024386e+03 1.207547895389586264e-03
1.193096548274136921e+03 1.212245212117431074e-03
1.193996998499249457e+03 1.219737822917246100e-03
1.194897448724362221e+03 1.221087549934979973e-03
1.195797898949474757e+03 1.210554656229292881e-03
1.196698349174587293e+03 1.191129744493058321e-03
1.197598799399699828e+03 1.170811389060870010e-03
1.198499249624812364e+03 1.155834075983929116e-03
1.199399699849924900e+03 1.148159207406341175e-03
1.200300150075037436e+03 1.146151857235932396e-03
1.201200600300149972e+03 1.149893900156574202e-03
1.202101050525262508e+03 1.160600969298545421e-03
1.203001500750375044e+03 1.176117164079719390e-03
1.203901950975487580e+03 1.189588840618469685e-03
1.204802401200600343e+03 1.191510395699595711e-03
1.205702851425712879e+03 1.179144318515786037e-03
1.206603301650825415e+03 1.160597280655944639e-03
1.207503751875937951e+03 1.142188029359707735e-03
1.208404202101050487e+03 1.119807782539984859e-03
1.209304652326163023e+03 1.087866091470946102e-03
1.210205102551275559e+03 1.049725673711481835e-03
1.211105552776388095e+03 1.015664206131514525e-03
1.212006003001500630e+03 9.932378146860155934e-04
1.212906453226613166e+03 9.832642240003143606e-04
1.213806903451725702e+03 9.814466373980544438e-04
1.214707353676838466e+03 9.817500564796841946e-04
1.215607803901951002e+03 9.808364639318977937e-04
1.216508254127063537e+03 9.796524004469075314e-04
1.217408704352176073e+03 9.806951655614165337e-04
1.218309154577288609e+03 9.835570273889202627e-04
1.219209604802401145e+03 9.849027130593083872e-04
1.220110055027513681e+03 9.840413878535656227e-04
1.221010505252626217e+03 9.829951450518385585e-04
1.221910955477738753e+03 9.823899953525763642e-04
1.222811405702851289e+03 9.817026690991982347e-04
1.223711855927963825e+03 9.818482935689380482e-04
1.224612306153076588e+03 9.837092762929537226e-04
1.225512756378189124e+03 9.857164289438823460e-04
1.226413206603301660e+03 9.874408499266009061e-04
1.227313656828414196e+03 9.934868729238174531e-04
1.228214107053526732e+03 1.006738425468650189e-03
1.229114557278639268e+03 1.021852619020128302e-03
1.230015007503751804e+03 1.033327872525211053e-03
1.230915457728864340e+03 1.042022439195819990e-03
1.231815907953976875e+03 1.048985634256502895e-03
1.232716358179089411e+03 1.053871872574239487e-03
1.233616808404201947e+03 1.058473276544388180e-03
1.234517258629314711e+03 1.064157479201852932e-03
1.235417708854427246e+03 1.068980379941296280e-03
1.236318159079539782e+03 1.071294781367648731e-03
1.237218609304652318e+03 1.072343539210391522e-03
1.238119059529764854e+03 1.074152051857548079e-03
1.239019509754877390e+03 1.078609575897370278e-03
1.239919959979989926e+03 1.085648815863106496e-03
1.240820410205102462e+03 1.093510848041411194e-03
1.241720860430214998e+03 1.100313317128963613e-03
1.242621310655327534e+03 1.101763063997941673e-03
1.243521760880440070e+03 1.091649102283240563e-03
1.244422211105552606e+03 1.071229265561738980e-03
1.245322661330665369e+03 1.049306982801112478e-03
1.246223111555777905e+03 1.034096726852966244e-03
1.247123561780890441e+03 1.030516759390031527e-03
1.248024012006002977e+03 1.038804620287681621e-03
1.248924462231115513e+03 1.052410989398980647e-03
1.249824912456228049e+03 1.062924201615581031e-03
1.250725362681340584e+03 1.067544644599139822e-03
1.251625812906453120e+03 1.070884568086608599e-03
1.252526263131565656e+03 1.078561529638278997e-03
1.253426713356678192e+03 1.090292759470677837e-03
1.254327163581790728e+03 1.103515142161904002e-03
1.255227613806903491e+03 1.117603066105093187e-03
1.256128064032016027e+03 1.131464718366664759e-03
1.257028514257128563e+03 1.142789171274609687e-03
1.257928964482241099e+03 1.149935054205089568e-03
1.258829414707353635e+03 1.151550600137792209e-03
1.259729864932466171e+03 1.148000552382178125e-03
1.260630315157578707e+03 1.144241281245629268e-03
1.261530765382691243e+03 1.145180504900700441e-03
1.262431215607803779e+03 1.149918350470952380e-03
1.263331665832916315e+03 1.155313162379434377e-03
1.264232116058028851e+03 1.161564116007017923e-03
1.265132566283141614e+03 1.171106093974455921e-03
1.266033016508254150e+03 1.184484169388237132e-03
1.266933466733366686e+03 1.201450583563333030e-03
1.267833916958479222e+03 1.223437450220483903e-03
1.268734367183591758e+03 1.251394328289485948e-03
1.269634817408704293e+03 1.282395097026342448e-03
1.270535267633816829e+03 1.310157787085009960e-03
1.271435717858929365e+03 1.330980238884067529e-03
1.272336168084041901e+03 1.348513244785133104e-03
1.273236618309154437e+03 1.370008312524707101e-03
1.274137068534266973e+03 1.398709908199826475e-03
1.275037518759379736e+03 1.432381649345144860e-03
1.275937968984492272e+03 1.467499619271105896e-03
1.276838419209604808e+03 1.500566305952750817e-03
1.277738869434717344e+03 1.526375245559603638e-03
1.278639319659829880e+03 1.542402084300687750e-03
1.279539769884942416e+03 1.552792459972865240e-03
1.280440220110054952e+03 1.564196470772391458e-03
1.281340670335167488e+03 1.580543050779663686e-03
1.282241120560280024e+03 1.599762848660653703e-03
1.283141570785392560e+03 1.616074364257046514e-03
1.284042021010505096e+03 1.627704328888806814e-03
1.284942471235617859e+03 1.638941006338518998e-03
1.285842921460730395e+03 1.655265141878210734e-03
1.286743371685842931e+03 1.679793109634976182e-03
1.287643821910955467e+03 1.712193283503842239e-03
1.288544272136068003e+03 1.748372149321304660e-03
1.289444722361180538e+03 1.784421002884613782e-03
1.290345172586293074e+03 1.819794404540131007e-03
1.291245622811405610e+03 1.854121662721931393e-03
1.292146073036518146e+03 1.885389865107836831e-03
1.293046523261630682e+03 1.911646476610302575e-03
1.293946973486743218e+03 1.933780721885661668e-03
1.294847423711855754e+03 1.956393189706254459e-03
1.295747873936968517e+03 1.982418712297154533e-03
1.296648324162081053e+03 2.011442190052265162e-03
1.297548774387193589e+03 2.042210934054034671e-03
1.298449224612306125e+03 2.075324013390922404e-03
1.299349674837418661e+03 2.112784016876370023e-03
1.300250125062531197e+03 2.154009699357052870e-03
1.301150575287643733e+03 2.195418083411391705e-03
1.302051025512756269e+03 2.232077727499993253e-03
1.302951475737868805e+03 2.262147149669345002e-03
1.303851925962981340e+03 2.290552060077228735e-03
1.304752376188093876e+03 2.323039763198669460e-03
1.305652826413206640e+03 2.358872267672984611e-03
1.306553276638319176e+03 2.391227943762156208e-03
1.307453726863431712e+03 2.415823365690393000e-03
1.308354177088544247e+03 2.436099979232496035e-03
1.309254627313656783e+03 2.457684689112760688e-03
1.310155077538769319e+03 2.484212981463560562e-03
1.311055527763881855e+03 2.517487044476385358e-03
1.311955977988994391e+03 2.556078175421517412e-03
1.312856428214106927e+03 2.594950389601436563e-03
1.313756878439219463e+03 2.630743470341933427e-03
1.314657328664331999e+03 2.662602882068459097e-03
1.315557778889444762e+03 2.688872862522910870e-03
1.316458229114557298e+03 2.709909319843519220e-03
1.317358679339669834e+03 2.729482854033086527e-03
1.318259129564782370e+03 2.750765427122745660e-03
1.319159579789894906e+03 2.776575049094333076e-03
1.320060030015007442e+03 2.814008686359840278e-03
1.320960480240119978e+03 2.868887729046938357e-03
1.321860930465232514e+03 2.938637268976927557e-03
1.322761380690345050e+03 3.016387675404620834e-03
1.323661830915457585e+03 3.097510163127365716e-03
1.324562281140570121e+03 3.183795449158105355e-03
1.325462731365682885e+03 3.278980774414179834e-03
1.326363181590795421e+03 3.385486372548720656e-03
1.327263631815907956e+03 3.506726630241600168e-03
1.328164082041020492e+03 3.642778395316550490e-03
1.329064532266133028e+03 3.784292013024271196e-03
1.329964982491245564e+03 3.920172745958709279e-03
1.330865432716358100e+03 4.044005495979463051e-03
1.331765882941470636e+03 4.150632538739268927e-03
1.332666333166583172e+03 4.243700019495035350e-03
1.333566783391695708e+03 4.335395190815480304e-03
1.334467233616808244e+03 4.428653353861138585e-03
1.335367683841921007e+03 4.515705946792016381e-03
1.336268134067033543e+03 4.599904859171902172e-03
1.337168584292146079e+03 4.692614234892996880e-03
1.338069034517258615e+03 4.797601839830828441e-03
1.338969484742371151e+03 4.914271929429254483e-03
1.339869934967483687e+03 5.040083638990698785e-03
1.340770385192596223e+03 5.170286091608594474e-03
1.341670835417708759e+03 5.297140238620991551e-03
1.342571285642821294e+03 5.414915463313233444e-03
1.343471735867933830e+03 5.526227845951237755e-03
1.344372186093046366e+03 5.631726811084039434e-03
1.345272636318158902e+03 5.730270331388012499e-03
1.346173086543271666e+03 5.825067043030778338e-03
1.347073536768384201e+03 5.910987724980742465e-03
1.347973986993496737e+03 5.983003545293194905e-03
1.348874437218609273e+03 6.046706372517029159e-03
1.349774887443721809e+03 6.113659649510246388e-03
1.350675337668834345e+03 6.196834698776922633e-03
1.351575787893946881e+03 6.299347136601017236e-03
1.352476238119059417e+03 6.413009760497334275e-03
1.353376688344171953e+03 6.531021097642197848e-03
1.354277138569284489e+03 6.652132895531085756e-03
1.355177588794397025e+03 6.775932253275507473e-03
1.356078039019509788e+03 6.896066443211528417e-03
1.356978489244622324e+03 7.005032297687602445e-03
1.357878939469734860e+03 7.121017775959476680e-03
1.358779389694847396e+03 7.274368241123018060e-03
1.359679839919959932e+03 7.475807949490911354e-03
1.360580290145072468e+03 7.710053118570872437e-03
1.361480740370185003e+03 7.946437031643162688e-03
1.362381190595297539e+03 8.154660767188539466e-03
1.363281640820410075e+03 8.315487385710579674e-03
1.364182091045522611e+03 8.439227550393103156e-03
1.365082541270635147e+03 8.577004411072780901e-03
1.365982991495747910e+03 8.791987144034851126e-03
1.366883441720860446e+03 9.105725945055265225e-03
1.367783891945972982e+03 9.492114368621724571e-03
1.368684342171085518e+03 9.926153875963284606e-03
1.369584792396198054e+03 1.039979552716942951e-02
1.370485242621310590e+03 1.087279399812207149e-02
1.371385692846423126e+03 1.127201366792485865e-02
1.372286143071535662e+03 1.156636634503648009e-02
1.373186593296648198e+03 1.179666674563734953e-02
1.374087043521760734e+03 1.203234514825476421e-02
1.374987493746873270e+03 1.232617596375085341e-02
1.375887943971986033e+03 1.269505105677791630e-02
1.376788394197098569e+03 1.310794872818041475e-02
1.377688844422211105e+03 1.349871147809087249e-02
1.378589294647323641e+03 1.380174521966851670e-02
1.379489744872436177e+03 1.400452337045007996e-02
1.380390195097548713e+03 1.418337214196228012e-02
1.381290645322661248e+03 1.442590125652349307e-02
1.382191095547773784e+03 1.476242842130381754e-02
1.383091545772886320e+03 1.516228081929381528e-02
1.383991995997998856e+03 1.556545532237492251e-02
1.384892446223111392e+03 1.592894897736316095e-02
1.385792896448224155e+03 1.624534451241304439e-02
1.386693346673336691e+03 1.656100936008108454e-02
1.387593796898449227e+03 1.692619535826926994e-02
1.388494247123561763e+03 1.733219323759262187e-02
1.389394697348674299e+03 1.772699220318190577e-02
1.390295147573786835e+03 1.805207855231458561e-02
1.391195597798899371e+03 1.827115009780911140e-02
1.392096048024011907e+03 1.836216213907745226e-02
1.392996498249124443e+03 1.830948128710320477e-02
1.393896948474236979e+03 1.812882461581569876e-02
1.394797398699349515e+03 1.791296712378886297e-02
1.395697848924462278e+03 1.778854689328152744e-02
1.396598299149574814e+03 1.779854841887179226e-02
1.397498749374687350e+03 1.785642396345874308e-02
1.398399199599799886e+03 1.785659521412076567e-02
1.399299649824912422e+03 1.777631456472197544e-02
1.400200100050024957e+03 1.766370028862172467e-02
1.401100550275137493e+03 1.756330427366045721e-02
1.402001000500250029e+03 1.749313174896877446e-02
1.402901450725362565e+03 1.746360359126588810e-02
1.403801900950475101e+03 1.744424744531321639e-02
1.404702351175587637e+03 1.738371888730681075e-02
1.405602801400700173e+03 1.726518772470183802e-02
1.406503251625812936e+03 1.713276396054111070e-02
1.407403701850925472e+03 1.704627217750566068e-02
1.408304152076038008e+03 1.699521652534917437e-02
1.409204602301150544e+03 1.689329494743853355e-02
1.410105052526263080e+03 1.665738443702644012e-02
1.411005502751375616e+03 1.628831750512423071e-02
1.411905952976488152e+03 1.586095987932351764e-02
1.412806403201600688e+03 1.545020242691716623e-02
1.413706853426713224e+03 1.509797977337693463e-02
1.414607303651825760e+03 1.479581479004681878e-02
1.415507753876938295e+03 1.447302812578106848e-02
1.416408204102051059e+03 1.407897791262193755e-02
1.417308654327163595e+03 1.365768798990443268e-02
1.418209104552276131e+03 1.329031696753768012e-02
1.419109554777388666e+03 1.300865042087655590e-02
1.420010005002501202e+03 1.278826633802482467e-02
1.420910455227613738e+03 1.259476581501035690e-02
1.421810905452726274e+03 1.242013616907568577e-02
1.422711355677838810e+03 1.223987187153414286e-02
1.423611805902951346e+03 1.199629617136597007e-02
1.424512256128063882e+03 1.167158206348441370e-02
1.425412706353176418e+03 1.129247291247473597e-02
1.426313156578289181e+03 1.090567606435626814e-02
1.427213606803401717e+03 1.056526162210417660e-02
1.428114057028514253e+03 1.029561567917248489e-02
1.429014507253626789e+03 1.008125648277240043e-02
1.429914957478739325e+03 9.869816614485540582e-03
1.430815407703851861e+03 9.602365632112567009e-03
1.431715857928964397e+03 9.274147557041928155e-03
1.432616308154076933e+03 8.942012301435960445e-03
1.433516758379189469e+03 8.653854339070102611e-03
1.434417208604302004e+03 8.413143092820846158e-03
1.435317658829414540e+03 8.210469435937858482e-03
1.436218109054527304e+03 8.044722033896478317e-03
1.437118559279639840e+03 7.927964448520709306e-03
1.438019009504752376e+03 7.870381750333308585e-03
1.438919459729864911e+03 7.843184126660879274e-03
1.439819909954977447e+03 7.788903773904657171e-03
1.440720360180089983e+03 7.670083713085012328e-03
1.441620810405202519e+03 7.492175984331283373e-03
1.442521260630315055e+03 7.284702030278852880e-03
1.443421710855427591e+03 7.083689102862831752e-03
1.444322161080540127e+03 6.909793668456867995e-03
1.445222611305652663e+03 6.757176291065813099e-03
1.446123061530765426e+03 6.625309491408530420e-03
1.447023511755877962e+03 6.520255683603986760e-03
1.447923961980990498e+03 6.431543773790562510e-03
1.448824412206103034e+03 6.338463476263680313e-03
1.449724862431215570e+03 6.232652672111184400e-03
1.450625312656328106e+03 6.115808231542195494e-03
1.451525762881440642e+03 5.991698876135998983e-03
1.452426213106553178e+03 5.867683829709670167e-03
1.453326663331665713e+03 5.736954946434049893e-03
1.454227113556778249e+03 5.586941972731606851e-03
1.455127563781890785e+03 5.426695346767265553e-03
1.456028014007003321e+03 5.280567104796284397e-03
1.456928464232116085e+03 5.159499734185512415e-03
1.457828914457228620e+03 5.057664696994050926e-03
1.458729364682341156e+03 4.963579596284325816e-03
1.459629814907453692e+03 4.866273124858375328e-03
1.460530265132566228e+03 4.754590662082163778e-03
1.461430715357678764e+03 4.621602133423667776e-03
1.462331165582791300e+03 4.475792102144836131e-03
1.463231615807903836e+03 4.335554030051247225e-03
1.464132066033016372e+03 4.216039703651847277e-03
1.465032516258128908e+03 4.121052527612597757e-03
1.465932966483241444e+03 4.040578080082711694e-03
1.466833416708354207e+03 3.955676471100871838e-03
1.467733866933466743e+03 3.851755496220677071e-03
1.468634317158579279e+03 3.729807933333165008e-03
1.469534767383691815e+03 3.605551403531947682e-03
1.470435217608804351e+03 3.497989090576380990e-03
1.471335667833916887e+03 3.413651115017530407e-03
1.472236118059029423e+03 3.344866152134364293e-03
1.473136568284141958e+03 3.282167804219760995e-03
1.474037018509254494e+03 3.216626559066138209e-03
1.474937468734367030e+03 3.138566078272151533e-03
1.475837918959479566e+03 3.047979603287040255e-03
1.476738369184592329e+03 2.955053743255919504e-03
1.477638819409704865e+03 2.866385906186537640e-03
1.478539269634817401e+03 2.782388896343651000e-03
1.479439719859929937e+03 2.701186520187617759e-03
1.480340170085042473e+03 2.623416266072932726e-03
1.481240620310155009e+03 2.551373214770165637e-03
1.482141070535267545e+03 2.482855580584907365e-03
1.483041520760380081e+03 2.415060170505432379e-03
1.483941970985492617e+03 2.347674124678220987e-03
1.484842421210605153e+03 2.281816786645098766e-03
1.485742871435717689e+03 2.219790250654800866e-03
1.486643321660830452e+03 2.165896061637713216e-03
1.487543771885942988e+03 2.124256457866760279e-03
1.488444222111055524e+03 2.092731768222952284e-03
1.489344672336168060e+03 2.065326343234370754e-03
1.490245122561280596e+03 2.037369314979456825e-03
1.491145572786393132e+03 2.005321889022544397e-03
1.492046023011505667e+03 1.969020902068608758e-03
1.492946473236618203e+03 1.934088096829747168e-03
1.493846923461730739e+03 1.906765874738271986e-03
1.494747373686843275e+03 1.888809005802970275e-03
1.495647823911955811e+03 1.878435146333610507e-03
1.496548274137068574e+03 1.874623231728569884e-03
1.497448724362181110e+03 1.876713893924644933e-03
1.498349174587293646e+03 1.878934593608502703e-03
1.499249624812406182e+03 1.872260615204647581e-03
1.500150075037518718e+03 1.851678609204014756e-03
1.501050525262631254e+03 1.822438234998860875e-03
1.501950975487743790e+03 1.797351386703141714e-03
1.502851425712856326e+03 1.779597619980076125e-03
1.503751875937968862e+03 1.759387386454853855e-03
1.504652326163081398e+03 1.732381464819449275e-03
1.505552776388193934e+03 1.704728916909754692e-03
1.506453226613306470e+03 1.679444818076352743e-03
1.507353676838419233e+03 1.655026903679328830e-03
1.508254127063531769e+03 1.630309744569359001e-03
1.509154577288644305e+03 1.607121342772249804e-03
1.510055027513756841e+03 1.590636531226771646e-03
1.510955477738869376e+03 1.582588472493194967e-03
1.511855927963981912e+03 1.579294565162832516e-03
1.512756378189094448e+03 1.582120679180145078e-03
1.513656828414206984e+03 1.594518758560025404e-03
1.514557278639319520e+03 1.609368435454714514e-03
1.515457728864432056e+03 1.614287416570464161e-03
1.516358179089544592e+03 1.603702563316422190e-03
1.517258629314657355e+03 1.580442150904481013e-03
1.518159079539769891e+03 1.548335771374898277e-03
1.519059529764882427e+03 1.508517348891868755e-03
1.519959979989994963e+03 1.463986216480106864e-03
1.520860430215107499e+03 1.421842494290217682e-03
1.521760880440220035e+03 1.389997950904548482e-03
1.522661330665332571e+03 1.369921277564223414e-03
1.523561780890445107e+03 1.354273995882800076e-03
1.524462231115557643e+03 1.335907753020448840e-03
1.525362681340670179e+03 1.313748974540280287e-03
1.526263131565782714e+03 1.291111846639445134e-03
1.527163581790895478e+03 1.269454201899122142e-03
1.528064032016008014e+03 1.246864459330815659e-03
1.528964482241120550e+03 1.224673777836900266e-03
1.529864932466233086e+03 1.204807008822516949e-03
1.530765382691345621e+03 1.185122440611682381e-03
1.531665832916458157e+03 1.164056303454237768e-03
1.532566283141570693e+03 1.144639844484023755e-03
1.533466733366683229e+03 1.129757755043965832e-03
1.534367183591795765e+03 1.116343396036523780e-03
1.535267633816908301e+03 1.098826258920462123e-03
1.536168084042020837e+03 1.076308514147056089e-03
1.537068534267133600e+03 1.052934950026556283e-03
1.537968984492246136e+03 1.031945790693408792e-03
1.538869434717358672e+03 1.014354740139562783e-03
1.539769884942471208e+03 9.993560394696745629e-04
1.540670335167583744e+03 9.823217479917481596e-04
1.541570785392696280e+03 9.593809732708699503e-04
1.542471235617808816e+03 9.323755092523314291e-04
1.543371685842921352e+03 9.065775970825915844e-04
1.544272136068033888e+03 8.867977267944075759e-04
1.545172586293146423e+03 8.749497671487999713e-04
1.546073036518258959e+03 8.692651851528924003e-04
1.546973486743371723e+03 8.671195355135240040e-04
1.547873936968484259e+03 8.661750649681564584e-04
1.548774387193596795e+03 8.628306789787354089e-04
1.549674837418709330e+03 8.539356974533868216e-04
1.550575287643821866e+03 8.391571608763046712e-04
1.551475737868934402e+03 8.219289077193921459e-04
1.552376188094046938e+03 8.049211718524159785e-04
1.553276638319159474e+03 7.870961406039905144e-04
1.554177088544272010e+03 7.689379633516736342e-04
1.555077538769384546e+03 7.526401274341791526e-04
1.555977988994497082e+03 7.381104268444687797e-04
1.556878439219609618e+03 7.216668931552864229e-04
1.557778889444722381e+03 7.000841219153575981e-04
1.558679339669834917e+03 6.745263164022952595e-04
1.559579789894947453e+03 6.469469709753713094e-04
1.560480240120059989e+03 6.196621458979522388e-04
1.561380690345172525e+03 5.973730411768067572e-04
1.562281140570285061e+03 5.834858831611668259e-04
1.563181590795397597e+03 5.760399480571966368e-04
1.564082041020510133e+03 5.693068094510988142e-04
1.564982491245622668e+03 5.558744297382838418e-04
1.565882941470735204e+03 5.294321472755470458e-04
1.566783391695847740e+03 4.929854572563362397e-04
1.567683841920960504e+03 4.556236284420847192e-04
1.568584292146073039e+03 4.215715229918564526e-04
1.569484742371185575e+03 3.893142380651328535e-04
1.570385192596298111e+03 3.575111664561058701e-04
1.571285642821410647e+03 3.287799365996052904e-04
1.572186093046523183e+03 3.048145383079442126e-04
1.573086543271635719e+03 2.812132399726953533e-04
1.573986993496748255e+03 2.542781222309375370e-04
1.574887443721860791e+03 2.261187988850494820e-04
1.575787893946973327e+03 2.004008484268132533e-04
1.576688344172085863e+03 1.790727593539338542e-04
1.577588794397198626e+03 1.622779431325769781e-04
1.578489244622311162e+03 1.495004707089756782e-04
1.579389694847423698e+03 1.401164097858974874e-04
1.580290145072536234e+03 1.336084536175502187e-04
1.581190595297648770e+03 1.296658798632051616e-04
1.582091045522761306e+03 1.280430079788578838e-04
1.582991495747873842e+03 1.280295245328741567e-04
1.583891945972986377e+03 1.276570033844730008e-04
1.584792396198098913e+03 1.242542440949351214e-04
1.585692846423211449e+03 1.173734925561515621e-04
1.586593296648323985e+03 1.092401166245386305e-04
1.587493746873436749e+03 1.018693615989701642e-04
1.588394197098549284e+03 9.588610831004368306e-05
1.589294647323661820e+03 9.115591232111987219e-05
1.590195097548774356e+03 8.738778627470103705e-05
1.591095547773886892e+03 8.434353142504756487e-05
1.591995997998999428e+03 8.186843881139369819e-05
1.592896448224111964e+03 7.987744459507871008e-05
1.593796898449224500e+03 7.833073641666006429e-05
1.594697348674337036e+03 7.718272910021903570e-05
1.595597798899449572e+03 7.626896963560922708e-05
1.596498249124562108e+03 7.522860370341751652e-05
1.597398699349674871e+03 7.381579291592403798e-05
1.598299149574787407e+03 7.228360705763187718e-05
1.599199599799899943e+03 7.105238774019319390e-05
1.600100050025012479e+03 7.032643426478143317e-05
1.601000500250125015e+03 7.004293306638868408e-05
1.601900950475237551e+03 6.982357609514230608e-05
1.602801400700350086e+03 6.910944080696974792e-05
1.603701850925462622e+03 6.758721409764812716e-05
1.604602301150575158e+03 6.540106795670563085e-05
1.605502751375687694e+03 6.304912076131635095e-05
1.606403201600800230e+03 6.093311898024415563e-05
1.607303651825912766e+03 5.915574145544906580e-05
1.608204102051025529e+03 5.766793640876112146e-05
1.609104552276138065e+03 5.639586417760196669e-05
1.610005002501250601e+03 5.528049031399957200e-05
1.610905452726363137e+03 5.428103798156506124e-05
1.611805902951475673e+03 5.337053522271826964e-05
1.612706353176588209e+03 5.253143273750127107e-05
1.613606803401700745e+03 5.175261850876353544e-05
1.614507253626813281e+03 5.102766332408696713e-05
1.615407703851925817e+03 5.035399149821889920e-05
1.616308154077038353e+03 4.973280163234126120e-05
1.617208604302150889e+03 4.916970495094603660e-05
1.618109054527263652e+03 4.867609148219115918e-05
1.619009504752376188e+03 4.827084255352160464e-05
1.619909954977488724e+03 4.797989999640203901e-05
1.620810405202601260e+03 4.782369176608798134e-05
1.621710855427713796e+03 4.776709283347492139e-05
1.622611305652826331e+03 4.762786089480499805e-05
1.623511755877938867e+03 4.712528771045231197e-05
1.624412206103051403e+03 4.622542061331346461e-05
1.625312656328163939e+03 4.519254718808512279e-05
1.626213106553276475e+03 4.423642939171474513e-05
1.627113556778389011e+03 4.340885008899250723e-05
1.628014007003501774e+03 4.269163221434347339e-05
1.628914457228614310e+03 4.205582873018152127e-05
1.629814907453726846e+03 4.147836627938501476e-05
1.630715357678839382e+03 4.094334592427768447e-05
1.631615807903951918e+03 4.044018998436357408e-05
1.632516258129064454e+03 3.996183844185428776e-05
1.633416708354176990e+03 3.950349111212735607e-05
1.634317158579289526e+03 3.906180257918390213e-05
1.635217608804402062e+03 3.863437758708495391e-05
1.636118059029514598e+03 3.821945371311857685e-05
1.637018509254627133e+03 3.781569912287357588e-05
1.637918959479739897e+03 3.742208138153364143e-05
1.638819409704852433e+03 3.703778071483909522e-05
1.639719859929964969e+03 3.666213154116733814e-05
1.640620310155077505e+03 3.629458230918562034e-05
1.641520760380190040e+03 3.593466740417361206e-05
1.642421210605302576e+03 3.558198715269666595e-05
1.643321660830415112e+03 3.523619335445041072e-05
1.644222111055527648e+03 3.489697864795047848e-05
1.645122561280640184e+03 3.456406857668413614e-05
1.646023011505752720e+03 3.423721558528040589e-05
1.646923461730865256e+03 3.391619441423523128e-05
1.647823911955978019e+03 3.360079852140608565e-05
1.648724362181090555e+03 3.329083726676256862e-05
1.649624812406203091e+03 3.298613367124728774e-05
1.650525262631315627e+03 3.268652261237308055e-05
1.651425712856428163e+03 3.239184935564830888e-05
1.652326163081540699e+03 3.210196834691243789e-05
1.653226613306653235e+03 3.181674220938628507e-05
1.654127063531765771e+03 3.153604090288054034e-05
1.655027513756878307e+03 3.125974101262249893e-05
1.655927963981990843e+03 3.098772514261089513e-05
1.656828414207103378e+03 3.071988139396990286e-05
1.657728864432216142e+03 3.045610291299884672e-05
1.658629314657328678e+03 3.019628749680567954e-05
1.659529764882441214e+03 2.994033724688403906e-05
1.660430215107553749e+03 2.968815826290032762e-05
1.661330665332666285e+03 2.943966037042831702e-05
1.662231115557778821e+03 2.919475687754970124e-05
1.663131565782891357e+03 2.895336435615143291e-05
1.664032016008003893e+03 2.871540244447814876e-05
1.664932466233116429e+03 2.848079366809414139e-05
1.665832916458228965e+03 2.824946327687237330e-05
1.666733366683341501e+03 2.802133909601535423e-05
1.667633816908454037e+03 2.779635138941983285e-05
1.668534267133566800e+03 2.757443273395475251e-05
1.669434717358679336e+03 2.735551790343306540e-05
1.670335167583791872e+03 2.713954376122646418e-05
1.671235617808904408e+03 2.692644916062563362e-05
1.672136068034016944e+03 2.671617485215859670e-05
1.673036518259129480e+03 2.650866339719361149e-05
1.673936968484242016e+03 2.630385908722772246e-05
1.674837418709354552e+03 2.610170786834194176e-05
1.675737868934467087e+03 2.590215727036636393e-05
1.676638319159579623e+03 2.570515634034524342e-05
1.677538769384692159e+03 2.551065557994459365e-05
1.678439219609804923e+03 2.531860688648233945e-05
1.679339669834917459e+03 2.512896349729130683e-05
1.680240120060029994e+03 2.494167993716035092e-05
1.681140570285142530e+03 2.475671196862393026e-05
1.682041020510255066e+03 2.457401654488692945e-05
1.682941470735367602e+03 2.439355176520114740e-05
1.683841920960480138e+03 2.421527683251962324e-05
1.684742371185592674e+03 2.403915201327420960e-05
1.685642821410705210e+03 2.386513859913491493e-05
1.686543271635817746e+03 2.369319887062082934e-05
1.687443721860930282e+03 2.352329606244468304e-05
1.688344172086043045e+03 2.335539433048276940e-05
1.689244622311155581e+03 2.318945872026895820e-05
1.690145072536268117e+03 2.302545513692203085e-05
1.691045522761380653e+03 2.286335031642040120e-05
1.691945972986493189e+03 2.270311179814730768e-05
1.692846423211605725e+03 2.254470789863126059e-05
1.693746873436718261e+03 2.238810768641664802e-05
1.694647323661830796e+03 2.223328095800176604e-05
1.695547773886943332e+03 2.208019821478363553e-05
1.696448224112055868e+03 2.192883064095915997e-05
1.697348674337168404e+03 2.177915008232851556e-05
1.698249124562281168e+03 2.163112902595686689e-05
1.699149574787393703e+03 2.148474058064803497e-05
1.700050025012506239e+03 2.133995845818840946e-05
1.700950475237618775e+03 2.119675695532625157e-05
1.701850925462731311e+03 2.105511093644497444e-05
1.702751375687843847e+03 2.091499581690109709e-05
1.703651825912956383e+03 2.077638754699125573e-05
1.704552276138068919e+03 2.063926259652097795e-05
1.705452726363181455e+03 2.050359793994535645e-05
1.706353176588293991e+03 2.036937104205548314e-05
1.707253626813406527e+03 2.023655984418520540e-05
1.708154077038519290e+03 2.010514275091539218e-05
1.709054527263631826e+03 1.997509861725339577e-05
1.709954977488744362e+03 1.984640673626335877e-05
1.710855427713856898e+03 1.971904682713326808e-05
1.711755877938969434e+03 1.959299902365496465e-05
1.712656328164081970e+03 1.946824386310033422e-05
1.713556778389194506e+03 1.934476227547893732e-05
1.714457228614307041e+03 1.922253557315705129e-05
1.715357678839419577e+03 1.910154544082753644e-05
1.716258129064532113e+03 1.898177392581168823e-05
1.717158579289644649e+03 1.886320342868242673e-05
1.718059029514757185e+03 1.874581669419425763e-05
1.718959479739869948e+03 1.862959680250757046e-05
1.719859929964982484e+03 1.851452716069705199e-05
1.720760380190095020e+03 1.840059149452980165e-05
1.721660830415207556e+03 1.828777384050694544e-05
1.722561280640320092e+03 1.817605853815364381e-05
1.723461730865432628e+03 1.806543022255165944e-05
1.724362181090545164e+03 1.795587381710335464e-05
1.725262631315657700e+03 1.784737452651847197e-05
1.726163081540770236e+03 1.773991783001584106e-05
1.727063531765882772e+03 1.763348947473115499e-05
1.727963981990995308e+03 1.752807546932422283e-05
1.728864432216108071e+03 1.742366207777675389e-05
1.729764882441220607e+03 1.732023581337588272e-05
1.730665332666333143e+03 1.721778343287397851e-05
1.731565782891445679e+03 1.711629193082117820e-05
1.732466233116558215e+03 1.701574853406223031e-05
1.733366683341670750e+03 1.691614069639350604e-05
1.734267133566783286e+03 1.681745609337203232e-05
1.735167583791895822e+03 1.671968261727544593e-05
1.736068034017008358e+03 1.662280837220260244e-05
1.736968484242120894e+03 1.652682166931372876e-05
1.737868934467233430e+03 1.643171102220387841e-05
1.738769384692346193e+03 1.633746514240482737e-05
1.739669834917458729e+03 1.624407293501247321e-05
1.740570285142571265e+03 1.615152349443294073e-05
1.741470735367683801e+03 1.605980610024706221e-05
1.742371185592796337e+03 1.596891021318497188e-05
1.743271635817908873e+03 1.587882547121232922e-05
1.744172086043021409e+03 1.578954168571869104e-05
1.745072536268133945e+03 1.570104883780987204e-05
1.745972986493246481e+03 1.561333707469740256e-05
1.746873436718359017e+03 1.552639670618432435e-05
1.747773886943471553e+03 1.544021820124264895e-05
1.748674337168584316e+03 1.535479218467997132e-05
1.749574787393696852e+03 1.527010943389289421e-05
1.750475237618809388e+03 1.518616087570430708e-05
1.751375687843921924e+03 1.510293758328185987e-05
1.752276138069034459e+03 1.502043077313430463e-05
1.753176588294146995e+03 1.493863180218513044e-05
1.754077038519259531e+03 1.485753216491942784e-05
1.754977488744372067e+03 1.477712349060309828e-05
1.755877938969484603e+03 1.469739754057002613e-05
1.756778389194597139e+03 1.461834620557834317e-05
1.757678839419709675e+03 1.453996150323110820e-05
1.758579289644822438e+03 1.446223557546044815e-05
1.759479739869934974e+03 1.438516068607358667e-05
1.760380190095047510e+03 1.430872921835832607e-05
1.761280640320160046e+03 1.423293367274596825e-05
1.762181090545272582e+03 1.415776666453187103e-05
1.763081540770385118e+03 1.408322092164936943e-05
1.763981990995497654e+03 1.400928928249726482e-05
1.764882441220610190e+03 1.393596469381889006e-05
1.765782891445722726e+03 1.386324020863131213e-05
1.766683341670835262e+03 1.379110898420263607e-05
1.767583791895947797e+03 1.371956428007746108e-05
1.768484242121060333e+03 1.364859945614765119e-05
1.769384692346173097e+03 1.357820797076774619e-05
1.770285142571285633e+03 1.350838337891447431e-05
1.771185592796398169e+03 1.343911933038778802e-05
1.772086043021510704e+03 1.337040956805287424e-05
1.772986493246623240e+03 1.330224792612303057e-05
1.773886943471735776e+03 1.323462832848043428e-05
1.774787393696848312e+03 1.316754478703506174e-05
1.775687843921960848e+03 1.310099140012076715e-05
1.776588294147073384e+03 1.303496235092608964e-05
1.777488744372185920e+03 1.296945190596123544e-05
1.778389194597298456e+03 1.290445441355799945e-05
1.779289644822411219e+03 1.283996430240311927e-05
1.780190095047523755e+03 1.277597608010365375e-05
1.781090545272636291e+03 1.271248433178364085e-05
1.781990995497748827e+03 1.264948371871127071e-05
1.782891445722861363e+03 1.258696897695584539e-05
1.783791895947973899e+03 1.252493491607351246e-05
1.784692346173086435e+03 1.246337641782108946e-05
1.785592796398198971e+03 1.240228843489792015e-05
1.786493246623311506e+03 1.234166598971333992e-05
1.787393696848424042e+03 1.228150417318190356e-05
1.788294147073536578e+03 1.222179814354219443e-05
1.789194597298649342e+03 1.216254312520180355e-05
1.790095047523761878e+03 1.210373440760580032e-05
1.790995497748874413e+03 1.204536734412890150e-05
1.791895947973986949e+03 1.198743735099065581e-05
1.792796398199099485e+03 1.192993990619294440e-05
1.793696848424212021e+03 1.187287054847963300e-05
1.794597298649324557e+03 1.181622487631703223e-05
1.795497748874437093e+03 1.175999854689536600e-05
1.796398199099549629e+03 1.170418727515122101e-05
1.797298649324662165e+03 1.164878683280814127e-05
1.798199099549774701e+03 1.159379304743876449e-05
1.799099549774887464e+03 1.153920180154346021e-05
1.800000000000000000e+03 1.148500903164954593e-05
