0.000000000000000000e+00 7.521829000626137438e-04
9.004502251125562351e-01 1.005831263544492002e-03
1.800900450225112470e+00 1.323035845600812211e-03
2.701350675337668594e+00 1.630834685026892258e-03
3.601800900450224940e+00 1.792921847732479104e-03
4.502251125562780842e+00 1.749352289176731847e-03
5.402701350675337189e+00 1.561864812155965140e-03
6.303151575787893535e+00 1.295371936580206424e-03
7.203601800900449881e+00 1.013508917431424437e-03
8.104052026013006227e+00 7.743639377637440710e-04
9.004502251125561685e+00 5.944727384391209095e-04
9.904952476238118919e+00 4.628345146873803014e-04
1.080540270135067438e+01 3.653974274876842471e-04
1.170585292646323161e+01 2.928839539930420282e-04
1.260630315157578707e+01 2.387879070502895221e-04
1.350675337668834430e+01 1.980340075921324704e-04
1.440720360180089976e+01 1.668751999951732313e-04
1.530765382691345522e+01 1.427001921606860170e-04
1.620810405202601245e+01 1.237075973222664916e-04
1.710855427713856969e+01 1.085989446332610099e-04
1.800900450225112337e+01 9.631767134153658135e-05
1.890945472736368060e+01 8.593158757354560568e-05
1.980990495247623784e+01 7.683008935564028606e-05
2.071035517758879507e+01 6.887468153275706035e-05
2.161080540270134875e+01 6.207636209506284329e-05
2.251125562781390599e+01 5.634732215789984530e-05
2.341170585292646322e+01 5.154101151260074822e-05
2.431215607803901690e+01 4.751599339330248782e-05
2.521260630315157414e+01 4.413987363998509469e-05
2.611305652826413137e+01 4.127598888852735971e-05
2.701350675337668861e+01 3.880755802320986423e-05
2.791395697848924229e+01 3.665258019790243867e-05
2.881440720360179952e+01 3.471270735455905690e-05
2.971485742871435676e+01 3.281771871904663328e-05
3.061530765382691044e+01 3.082226566938145657e-05
3.151575787893946767e+01 2.879168717621120348e-05
3.241620810405202491e+01 2.690209437450956107e-05
3.331665832916458214e+01 2.524845021937817958e-05
3.421710855427713938e+01 2.382263661669945380e-05
3.511755877938969661e+01 2.256084479243548665e-05
3.601800900450224674e+01 2.141266926908340162e-05
3.691845922961480397e+01 2.036325857620173191e-05
3.781890945472736121e+01 1.941231343451251578e-05
3.871935967983991844e+01 1.856159160300982009e-05
3.961980990495247568e+01 1.780647649119449831e-05
4.052026013006503291e+01 1.714533408784138543e-05
4.142071035517759015e+01 1.660376753388734497e-05
4.232116058029014027e+01 1.621548491174461143e-05
4.322161080540269751e+01 1.598647791563825944e-05
4.412206103051525474e+01 1.589167154286901613e-05
4.502251125562781198e+01 1.590555904704475215e-05
4.592296148074036921e+01 1.601708095459695799e-05
4.682341170585292645e+01 1.617489574182285909e-05
4.772386193096548368e+01 1.624735467253238686e-05
4.862431215607803381e+01 1.610761340222322777e-05
4.952476238119059104e+01 1.570252518142488843e-05
5.042521260630314828e+01 1.506240021798426269e-05
5.132566283141570551e+01 1.433745323857881440e-05
5.222611305652826275e+01 1.368518939065596827e-05
5.312656328164081998e+01 1.315957971298069926e-05
5.402701350675337721e+01 1.275182584830048683e-05
5.492746373186592734e+01 1.244268270529176108e-05
5.582791395697848458e+01 1.219464670719875397e-05
5.672836418209104181e+01 1.195918698659834302e-05
5.762881440720359905e+01 1.174063487493162270e-05
5.852926463231615628e+01 1.158778366723318857e-05
5.942971485742871351e+01 1.156389852712672862e-05
6.033016508254127075e+01 1.172817049272411905e-05
6.123061530765382088e+01 1.208963387352444362e-05
6.213106553276637811e+01 1.260220214141013277e-05
6.303151575787893535e+01 1.319512517702522236e-05
6.393196598299149258e+01 1.372362007062166326e-05
6.483241620810404982e+01 1.402416875681205395e-05
6.573286643321659994e+01 1.404345966608865418e-05
6.663331665832916428e+01 1.379483048379190315e-05
6.753376688344171441e+01 1.340357023589172961e-05
6.843421710855427875e+01 1.310366133452122525e-05
6.933466733366682888e+01 1.303852793682991472e-05
7.023511755877939322e+01 1.314120424248265758e-05
7.113556778389194335e+01 1.318406610889379000e-05
7.203601800900449348e+01 1.308534661985520313e-05
7.293646823411705782e+01 1.304840128589653502e-05
7.383691845922960795e+01 1.326872093586282411e-05
7.473736868434217229e+01 1.372399908433467445e-05
7.563781890945472242e+01 1.418907627638780656e-05
7.653826913456728676e+01 1.440317065343912789e-05
7.743871935967983688e+01 1.427414440142823431e-05
7.833916958479238701e+01 1.388281565794511156e-05
7.923961980990495135e+01 1.338174181221145646e-05
8.014007003501750148e+01 1.292937749867614378e-05
8.104052026013006582e+01 1.261438010112287357e-05
8.194097048524261595e+01 1.238797346132518357e-05
8.284142071035518029e+01 1.219691174092912810e-05
8.374187093546773042e+01 1.210029927931275890e-05
8.464232116058028055e+01 1.215449413979788923e-05
8.554277138569284489e+01 1.230468109717518298e-05
8.644322161080539502e+01 1.243527335401843385e-05
8.734367183591795936e+01 1.244621701015789290e-05
8.824412206103050949e+01 1.227875641046928773e-05
8.914457228614307382e+01 1.193873644328016281e-05
9.004502251125562395e+01 1.146436221957375147e-05
9.094547273636817408e+01 1.094896759320787055e-05
9.184592296148073842e+01 1.056649521902864336e-05
9.274637318659328855e+01 1.043376223337793727e-05
9.364682341170585289e+01 1.053337979908228069e-05
9.454727363681840302e+01 1.079109302684623146e-05
9.544772386193096736e+01 1.116421759441302667e-05
9.634817408704351749e+01 1.159952040928065621e-05
9.724862431215606762e+01 1.198097834864062876e-05
9.814907453726863196e+01 1.218951358179944660e-05
9.904952476238118209e+01 1.223292921001764040e-05
9.994997498749374643e+01 1.227211726269392320e-05
1.008504252126062966e+02 1.241164857357612704e-05
1.017508754377188609e+02 1.260322074613356393e-05
1.026513256628314110e+02 1.274590193670253383e-05
1.035517758879439612e+02 1.283382409878791578e-05
1.044522261130565255e+02 1.300282462223008379e-05
1.053526763381690756e+02 1.334961215167095066e-05
1.062531265632816400e+02 1.380588899688130192e-05
1.071535767883941901e+02 1.419646419785217018e-05
1.080540270135067544e+02 1.434946463296551256e-05
1.089544772386193046e+02 1.421182176638285000e-05
1.098549274637318547e+02 1.388029761808352629e-05
1.107553776888444190e+02 1.352482312006570995e-05
1.116558279139569692e+02 1.327687430755147178e-05
1.125562781390695335e+02 1.318306454768077761e-05
1.134567283641820836e+02 1.321566147729286701e-05
1.143571785892946480e+02 1.329528114154149682e-05
1.152576288144071981e+02 1.331531307569354413e-05
1.161580790395197482e+02 1.319416830986924040e-05
1.170585292646323126e+02 1.298977726466753420e-05
1.179589794897448627e+02 1.282135163535654896e-05
1.188594297148574270e+02 1.275548913653074034e-05
1.197598799399699772e+02 1.282060002160084334e-05
1.206603301650825415e+02 1.299613577000418426e-05
1.215607803901950916e+02 1.324288752184669141e-05
1.224612306153076418e+02 1.361006964944017491e-05
1.233616808404202061e+02 1.416092038499992881e-05
1.242621310655327562e+02 1.474805576944927162e-05
1.251625812906453206e+02 1.510716111458305782e-05
1.260630315157578707e+02 1.521895519359950185e-05
1.269634817408704350e+02 1.528442451193945379e-05
1.278639319659829852e+02 1.543846681833049213e-05
1.287643821910955353e+02 1.572158002176760223e-05
1.296648324162080996e+02 1.613319723571862211e-05
1.305652826413206640e+02 1.655167564002261917e-05
1.314657328664331999e+02 1.677186154712590705e-05
1.323661830915457642e+02 1.670470634856921892e-05
1.332666333166583286e+02 1.645028860459254912e-05
1.341670835417708929e+02 1.618454837928372391e-05
1.350675337668834288e+02 1.597596321581830930e-05
1.359679839919959932e+02 1.583913384279152375e-05
1.368684342171085575e+02 1.584816319592222125e-05
1.377688844422210934e+02 1.602995653651749280e-05
1.386693346673336578e+02 1.632650182562525647e-05
1.395697848924462221e+02 1.659537478788533714e-05
1.404702351175587864e+02 1.663298010933213981e-05
1.413706853426713224e+02 1.637147118803249977e-05
1.422711355677838867e+02 1.605863922236231924e-05
1.431715857928964510e+02 1.595541043269062015e-05
1.440720360180089870e+02 1.607634212612034841e-05
1.449724862431215513e+02 1.628994823083954383e-05
1.458729364682341156e+02 1.649782858149941408e-05
1.467733866933466800e+02 1.669148990379229057e-05
1.476738369184592159e+02 1.685953096769518143e-05
1.485742871435717802e+02 1.699598180284261084e-05
1.494747373686843446e+02 1.708412374207072257e-05
1.503751875937968805e+02 1.708261273618097046e-05
1.512756378189094448e+02 1.702470029425705357e-05
1.521760880440220092e+02 1.706424194931527969e-05
1.530765382691345735e+02 1.735089473954050257e-05
1.539769884942471094e+02 1.782123936873936936e-05
1.548774387193596738e+02 1.826308862086227733e-05
1.557778889444722381e+02 1.856372769105962307e-05
1.566783391695847740e+02 1.877424293888919007e-05
1.575787893946973384e+02 1.894635000505066633e-05
1.584792396198099027e+02 1.910369458982151132e-05
1.593796898449224670e+02 1.920255910721794810e-05
1.602801400700350030e+02 1.905572767895623176e-05
1.611805902951475673e+02 1.866589022760511155e-05
1.620810405202601316e+02 1.834239181843717371e-05
1.629814907453726676e+02 1.828802521159398370e-05
1.638819409704852319e+02 1.845280817748317647e-05
1.647823911955977962e+02 1.866629117685291017e-05
1.656828414207103606e+02 1.881267331218471254e-05
1.665832916458228965e+02 1.888731789124997233e-05
1.674837418709354608e+02 1.884977598925545621e-05
1.683841920960480252e+02 1.868337187826286437e-05
1.692846423211605611e+02 1.852495086893145900e-05
1.701850925462731254e+02 1.846731936014469453e-05
1.710855427713856898e+02 1.855094615909106448e-05
1.719859929964982541e+02 1.885538377904895729e-05
1.728864432216107900e+02 1.941130054664643950e-05
1.737868934467233544e+02 2.014809639562688739e-05
1.746873436718359187e+02 2.099763043675072213e-05
1.755877938969484546e+02 2.188798148977088171e-05
1.764882441220610190e+02 2.264057752461807392e-05
1.773886943471735833e+02 2.307313941389704001e-05
1.782891445722861476e+02 2.319557362546890964e-05
1.791895947973986836e+02 2.315404636686794831e-05
1.800900450225112479e+02 2.314428246447068136e-05
1.809904952476238122e+02 2.345786517960457687e-05
1.818909454727363482e+02 2.427478679492245893e-05
1.827913956978489125e+02 2.542724153016482153e-05
1.836918459229614768e+02 2.653163706988944040e-05
1.845922961480740412e+02 2.739302119930787325e-05
1.854927463731865771e+02 2.806635491891695431e-05
1.863931965982991414e+02 2.869199066051251286e-05
1.872936468234117058e+02 2.949912999613016286e-05
1.881940970485242417e+02 3.065620997684377299e-05
1.890945472736368060e+02 3.205628279487212045e-05
1.899949974987493704e+02 3.335837884888700968e-05
1.908954477238619347e+02 3.427819365102317465e-05
1.917958979489744706e+02 3.475316234917827428e-05
1.926963481740870350e+02 3.476044642105574053e-05
1.935967983991995993e+02 3.431242015695585060e-05
1.944972486243121352e+02 3.360355969119751878e-05
1.953976988494246996e+02 3.284033344320754503e-05
1.962981490745372639e+02 3.216334682553206962e-05
1.971985992996498283e+02 3.164521937623736303e-05
1.980990495247623642e+02 3.124881336998372737e-05
1.989994997498749285e+02 3.081665689813230252e-05
1.998999499749874929e+02 3.033610756579570633e-05
2.008004002001000288e+02 2.985775202342991661e-05
2.017008504252125931e+02 2.937048241555428619e-05
2.026013006503251574e+02 2.889943768371032546e-05
2.035017508754377218e+02 2.847408868612290753e-05
2.044022011005502577e+02 2.811458448153719345e-05
2.053026513256628220e+02 2.768639184307767790e-05
2.062031015507753864e+02 2.700476495813276429e-05
2.071035517758879223e+02 2.605298466965462478e-05
2.080040020010004866e+02 2.493066613562108658e-05
2.089044522261130510e+02 2.387036911119724819e-05
2.098049024512256153e+02 2.310361293830959678e-05
2.107053526763381512e+02 2.268830297428620999e-05
2.116058029014507156e+02 2.259941353929079157e-05
2.125062531265632799e+02 2.282989747486115605e-05
2.134067033516758158e+02 2.326883013058219255e-05
2.143071535767883802e+02 2.362030929049774140e-05
2.152076038019009445e+02 2.370830471615657768e-05
2.161080540270135089e+02 2.362299250730227795e-05
2.170085042521260448e+02 2.349343643156964569e-05
2.179089544772386091e+02 2.337911227881164919e-05
2.188094047023511735e+02 2.333188026088492257e-05
2.197098549274637094e+02 2.350783529394944989e-05
2.206103051525762737e+02 2.405488844268968395e-05
2.215107553776888381e+02 2.492840369316784869e-05
2.224112056028014024e+02 2.590607131178604809e-05
2.233116558279139383e+02 2.676693585491563430e-05
2.242121060530265027e+02 2.745611391225563801e-05
2.251125562781390670e+02 2.800554825287274792e-05
2.260130065032516029e+02 2.835468155800677202e-05
2.269134567283641672e+02 2.848559932929066620e-05
2.278139069534767316e+02 2.847197489231669066e-05
2.287143571785892959e+02 2.839131823678804986e-05
2.296148074037018318e+02 2.829869534165930137e-05
2.305152576288143962e+02 2.822757512906451982e-05
2.314157078539269605e+02 2.819025251494110910e-05
2.323161580790394964e+02 2.817462364358105348e-05
2.332166083041520608e+02 2.811899615563166061e-05
2.341170585292646251e+02 2.795977073914674105e-05
2.350175087543771895e+02 2.773175327823591255e-05
2.359179589794897254e+02 2.753642981426627609e-05
2.368184092046022897e+02 2.735057399212282827e-05
2.377188594297148541e+02 2.714859420686302656e-05
2.386193096548273900e+02 2.699379581502005728e-05
2.395197598799399543e+02 2.692532022444840234e-05
2.404202101050525187e+02 2.693844335826663604e-05
2.413206603301650830e+02 2.706406771195416067e-05
2.422211105552776189e+02 2.735377974664803839e-05
2.431215607803901833e+02 2.767865588168971368e-05
2.440220110055027476e+02 2.765386591545404668e-05
2.449224612306152835e+02 2.704992717656351354e-05
2.458229114557278479e+02 2.614847124774276744e-05
2.467233616808404122e+02 2.541831695180251754e-05
2.476238119059529765e+02 2.505348305498428328e-05
2.485242621310655124e+02 2.490824316188080414e-05
2.494247123561780768e+02 2.477002783873887741e-05
2.503251625812906411e+02 2.464219263049689991e-05
2.512256128064031770e+02 2.468268604978655873e-05
2.521260630315157414e+02 2.493840244974977901e-05
2.530265132566283057e+02 2.536793935828046413e-05
2.539269634817408701e+02 2.585806927859262699e-05
2.548274137068534060e+02 2.621540275371107389e-05
2.557278639319659703e+02 2.638697265909510314e-05
2.566283141570785347e+02 2.650109178027316948e-05
2.575287643821910706e+02 2.661055572108426666e-05
2.584292146073036633e+02 2.663572759520231047e-05
2.593296648324161993e+02 2.658674987611633659e-05
2.602301150575287352e+02 2.658912748496875439e-05
2.611305652826413279e+02 2.674680554992573246e-05
2.620310155077538639e+02 2.707891180551880470e-05
2.629314657328663998e+02 2.755681237924325713e-05
2.638319159579789925e+02 2.813727914368237672e-05
2.647323661830915285e+02 2.877665565956380578e-05
2.656328164082040644e+02 2.937374227886795035e-05
2.665332666333166571e+02 2.967471873972357126e-05
2.674337168584291931e+02 2.955360860277411010e-05
2.683341670835417858e+02 2.920480366679186130e-05
2.692346173086543217e+02 2.899511818513022350e-05
2.701350675337668577e+02 2.920536338365926245e-05
2.710355177588794504e+02 2.978070535925234278e-05
2.719359679839919863e+02 3.036570305525428123e-05
2.728364182091045222e+02 3.062201881829770193e-05
2.737368684342171150e+02 3.061179144890137268e-05
2.746373186593296509e+02 3.069270217862041450e-05
2.755377688844421868e+02 3.104567110536493612e-05
2.764382191095547796e+02 3.164843547286791571e-05
2.773386693346673155e+02 3.247981238025804678e-05
2.782391195597798514e+02 3.362204099962112872e-05
2.791395697848924442e+02 3.526027608435908716e-05
2.800400200100049801e+02 3.740090005179720617e-05
2.809404702351175729e+02 3.957236372818789528e-05
2.818409204602301088e+02 4.104593355135058075e-05
2.827413706853426447e+02 4.140955843907944621e-05
2.836418209104552375e+02 4.086535691599980273e-05
2.845422711355677734e+02 4.003554705531659966e-05
2.854427213606803093e+02 3.942378275783916256e-05
2.863431715857929021e+02 3.912249090594537238e-05
2.872436218109054380e+02 3.902985385411600810e-05
2.881440720360179739e+02 3.914572064299948320e-05
2.890445222611305667e+02 3.956973153816810196e-05
2.899449724862431026e+02 4.011545260719083950e-05
2.908454227113556385e+02 4.031646657727354626e-05
2.917458729364682313e+02 3.989097784983514756e-05
2.926463231615807672e+02 3.905396637029265978e-05
2.935467733866933600e+02 3.825897186035026501e-05
2.944472236118058959e+02 3.781324350237247296e-05
2.953476738369184318e+02 3.776477322616246659e-05
2.962481240620310246e+02 3.795723333480888146e-05
2.971485742871435605e+02 3.825899076659515470e-05
2.980490245122560964e+02 3.863222240605648799e-05
2.989494747373686891e+02 3.894908883655547158e-05
2.998499249624812251e+02 3.907170916562792662e-05
3.007503751875937610e+02 3.909330346745469717e-05
3.016508254127063537e+02 3.930822828721982010e-05
3.025512756378188897e+02 3.991917672196178675e-05
3.034517258629314256e+02 4.073518981145150461e-05
3.043521760880440183e+02 4.135839081923478242e-05
3.052526263131565543e+02 4.156010728579956316e-05
3.061530765382691470e+02 4.134651933547151865e-05
3.070535267633816829e+02 4.089150770114369790e-05
3.079539769884942189e+02 4.056382794040076561e-05
3.088544272136068116e+02 4.076151996864450794e-05
3.097548774387193475e+02 4.156096181302916602e-05
3.106553276638318835e+02 4.268040176530549771e-05
3.115557778889444762e+02 4.372173452877640233e-05
3.124562281140570121e+02 4.444730002243077124e-05
3.133566783391695481e+02 4.492897163793046735e-05
3.142571285642821408e+02 4.536039701065317273e-05
3.151575787893946767e+02 4.583438276858289721e-05
3.160580290145072127e+02 4.638296163114562090e-05
3.169584792396198054e+02 4.713967976553287486e-05
3.178589294647323413e+02 4.822816030939504437e-05
3.187593796898449341e+02 4.951232034021433909e-05
3.196598299149574700e+02 5.058539852012066231e-05
3.205602801400700059e+02 5.094093885879436164e-05
3.214607303651825987e+02 5.036321954024825708e-05
3.223611805902951346e+02 4.921014970656788700e-05
3.232616308154076705e+02 4.801522313597133629e-05
3.241620810405202633e+02 4.707545218533958634e-05
3.250625312656327992e+02 4.644918202450709567e-05
3.259629814907453351e+02 4.605798475370145108e-05
3.268634317158579279e+02 4.570854977295731248e-05
3.277638819409704638e+02 4.526711390571760692e-05
3.286643321660829997e+02 4.484938994817126408e-05
3.295647823911955925e+02 4.459902229101113668e-05
3.304652326163081284e+02 4.440579526482083325e-05
3.313656828414207212e+02 4.416260182177389525e-05
3.322661330665332571e+02 4.412391117171395760e-05
3.331665832916457930e+02 4.448999503305786185e-05
3.340670335167583858e+02 4.502026978830297777e-05
3.349674837418709217e+02 4.541316918349668034e-05
3.358679339669834576e+02 4.565299895867155021e-05
3.367683841920960504e+02 4.583141743424860756e-05
3.376688344172085863e+02 4.586952458947625986e-05
3.385692846423211222e+02 4.558896485917097844e-05
3.394697348674337150e+02 4.501766734305299625e-05
3.403701850925462509e+02 4.441499292842602934e-05
3.412706353176587868e+02 4.406142712063191685e-05
3.421710855427713796e+02 4.391256655283229979e-05
3.430715357678839155e+02 4.375038850510594744e-05
3.439719859929965082e+02 4.365293520136228890e-05
3.448724362181090441e+02 4.381451065361623929e-05
3.457728864432215801e+02 4.421690386349955403e-05
3.466733366683341728e+02 4.471647114733139148e-05
3.475737868934467087e+02 4.531348264530783926e-05
3.484742371185592447e+02 4.604226242247589772e-05
3.493746873436718374e+02 4.661174919510839511e-05
3.502751375687843733e+02 4.652572660790431651e-05
3.511755877938969093e+02 4.565281740927997503e-05
3.520760380190095020e+02 4.445455815745355662e-05
3.529764882441220379e+02 4.349355644820639247e-05
3.538769384692345739e+02 4.295857534723145711e-05
3.547773886943471666e+02 4.270285531372919698e-05
3.556778389194597025e+02 4.241330143480042162e-05
3.565782891445722953e+02 4.186862682431522414e-05
3.574787393696848312e+02 4.126814073251169559e-05
3.583791895947973671e+02 4.101375894726733173e-05
3.592796398199099599e+02 4.130876539980678566e-05
3.601800900450224958e+02 4.200117760306030330e-05
3.610805402701350317e+02 4.270808248591258921e-05
3.619809904952476245e+02 4.327104612213275104e-05
3.628814407203601604e+02 4.392914725994721630e-05
3.637818909454726963e+02 4.489536931827806348e-05
3.646823411705852891e+02 4.604424819591113808e-05
3.655827913956978250e+02 4.700157156708922369e-05
3.664832416208103609e+02 4.739400855180794401e-05
3.673836918459229537e+02 4.714334660180544926e-05
3.682841420710354896e+02 4.648389822077395229e-05
3.691845922961480824e+02 4.567322274803234817e-05
3.700850425212606183e+02 4.486046234216059677e-05
3.709854927463731542e+02 4.413505759932655019e-05
3.718859429714857470e+02 4.356194614549926031e-05
3.727863931965982829e+02 4.322828656755097295e-05
3.736868434217108188e+02 4.317060070671435994e-05
3.745872936468234116e+02 4.337623544281385835e-05
3.754877438719359475e+02 4.387103623879376571e-05
3.763881940970484834e+02 4.456675043342623547e-05
3.772886443221610762e+02 4.518792192310530040e-05
3.781890945472736121e+02 4.562775088420873576e-05
3.790895447723861480e+02 4.594504916475718707e-05
3.799899949974987408e+02 4.613041589429255665e-05
3.808904452226112767e+02 4.626526559179092217e-05
3.817908954477238694e+02 4.641652041861972863e-05
3.826913456728364054e+02 4.649280801057634985e-05
3.835917958979489413e+02 4.631295384272583217e-05
3.844922461230615340e+02 4.573711988320357653e-05
3.853926963481740700e+02 4.483143980804177005e-05
3.862931465732866059e+02 4.374608379701424698e-05
3.871935967983991986e+02 4.254166486575260695e-05
3.880940470235117346e+02 4.134275153097982750e-05
3.889944972486242705e+02 4.040346725364675712e-05
3.898949474737368632e+02 3.988255094562403818e-05
3.907953976988493991e+02 3.974911792146203909e-05
3.916958479239619351e+02 3.983907183912314704e-05
3.925962981490745278e+02 3.998094906025295963e-05
3.934967483741870637e+02 4.008453406918096722e-05
3.943971985992996565e+02 4.014610975359375757e-05
3.952976488244121924e+02 4.015390136585727864e-05
3.961980990495247283e+02 4.007944967095203824e-05
3.970985492746373211e+02 3.996652265615558146e-05
3.979989994997498570e+02 4.001186086335266952e-05
3.988994497248623929e+02 4.040920993532345082e-05
3.997998999499749857e+02 4.103689657569535733e-05
4.007003501750875216e+02 4.149393425178057637e-05
4.016008004002000575e+02 4.153221278957472618e-05
4.025012506253126503e+02 4.127908494919067600e-05
4.034017008504251862e+02 4.100802047812718049e-05
4.043021510755377221e+02 4.084937155748730717e-05
4.052026013006503149e+02 4.078783068028589025e-05
4.061030515257628508e+02 4.079422334702784614e-05
4.070035017508754436e+02 4.089695067008149127e-05
4.079039519759879795e+02 4.110332180704599303e-05
4.088044022011005154e+02 4.126806585522107559e-05
4.097048524262131082e+02 4.122008566971508455e-05
4.106053026513256441e+02 4.098685096272116333e-05
4.115057528764381800e+02 4.079811882477391835e-05
4.124062031015507728e+02 4.081757407984981884e-05
4.133066533266633087e+02 4.095291729014006234e-05
4.142071035517758446e+02 4.102625341448423127e-05
4.151075537768884374e+02 4.101278434850743471e-05
4.160080040020009733e+02 4.101810169468810409e-05
4.169084542271135092e+02 4.101872037013664247e-05
4.178089044522261020e+02 4.096401341526089584e-05
4.187093546773386379e+02 4.088062210490561640e-05
4.196098049024512306e+02 4.080209192294380512e-05
4.205102551275637666e+02 4.081767365746092246e-05
4.214107053526763025e+02 4.093126807254578821e-05
4.223111555777888952e+02 4.102242861497328773e-05
4.232116058029014312e+02 4.104905445909302349e-05
4.241120560280139671e+02 4.113589329841160584e-05
4.250125062531265598e+02 4.133300633187469351e-05
4.259129564782390958e+02 4.160621560698247090e-05
4.268134067033516317e+02 4.216195630068781953e-05
4.277138569284642244e+02 4.312303679978901931e-05
4.286143071535767604e+02 4.413585428506784018e-05
4.295147573786892963e+02 4.477613158726063215e-05
4.304152076038018890e+02 4.490660741857415881e-05
4.313156578289144250e+02 4.459901999845860919e-05
4.322161080540270177e+02 4.405055292917418083e-05
4.331165582791395536e+02 4.350840909475550531e-05
4.340170085042520896e+02 4.319469807349004506e-05
4.349174587293646823e+02 4.323811732960551921e-05
4.358179089544772182e+02 4.356511300810171047e-05
4.367183591795897541e+02 4.392428705418713710e-05
4.376188094047023469e+02 4.401140053659016466e-05
4.385192596298148828e+02 4.369166884006192667e-05
4.394197098549274187e+02 4.318172974701906403e-05
4.403201600800400115e+02 4.285113136329826396e-05
4.412206103051525474e+02 4.289024577596973700e-05
4.421210605302650833e+02 4.327448867395408471e-05
4.430215107553776761e+02 4.390233348117560390e-05
4.439219609804902120e+02 4.461402281975511544e-05
4.448224112056028048e+02 4.520063421841548400e-05
4.457228614307153407e+02 4.560979218265555666e-05
4.466233116558278766e+02 4.598238924045645708e-05
4.475237618809404694e+02 4.634366137556857594e-05
4.484242121060530053e+02 4.659735823945239971e-05
4.493246623311655412e+02 4.670528591105089155e-05
4.502251125562781340e+02 4.672361875152841401e-05
4.511255627813906699e+02 4.679683921864312960e-05
4.520260130065032058e+02 4.696828485590031000e-05
4.529264632316157986e+02 4.712753150054961783e-05
4.538269134567283345e+02 4.718757980650994022e-05
4.547273636818408704e+02 4.715580420773928671e-05
4.556278139069534632e+02 4.712402915551919708e-05
4.565282641320659991e+02 4.719521885421319908e-05
4.574287143571785919e+02 4.740198286382317510e-05
4.583291645822911278e+02 4.758146164570648874e-05
4.592296148074036637e+02 4.758353453223348686e-05
4.601300650325162565e+02 4.748539494390644660e-05
4.610305152576287924e+02 4.744133606889534355e-05
4.619309654827413283e+02 4.746268888630971860e-05
4.628314157078539210e+02 4.735191123832734273e-05
4.637318659329664570e+02 4.693923900419712226e-05
4.646323161580789929e+02 4.621382343162151252e-05
4.655327663831915856e+02 4.534106356578041143e-05
4.664332166083041216e+02 4.458435454047513576e-05
4.673336668334167143e+02 4.405891283047589133e-05
4.682341170585292502e+02 4.379771452308266980e-05
4.691345672836417862e+02 4.387691476514019419e-05
4.700350175087543789e+02 4.432416554540934199e-05
4.709354677338669148e+02 4.507224095184506296e-05
4.718359179589794508e+02 4.600197202244560849e-05
4.727363681840920435e+02 4.696218378952679210e-05
4.736368184092045794e+02 4.782968236550467573e-05
4.745372686343171154e+02 4.862925562985130314e-05
4.754377188594297081e+02 4.949353212493447701e-05
4.763381690845422440e+02 5.040245941126685102e-05
4.772386193096547800e+02 5.107706210505612288e-05
4.781390695347673727e+02 5.115829296456277266e-05
4.790395197598799086e+02 5.047421910907372414e-05
4.799399699849925014e+02 4.924534969495255395e-05
4.808404202101050373e+02 4.803732275436402104e-05
4.817408704352175732e+02 4.728305882431079355e-05
4.826413206603301660e+02 4.698577669920960535e-05
4.835417708854427019e+02 4.698707532347132622e-05
4.844422211105552378e+02 4.718686133707388191e-05
4.853426713356678306e+02 4.746960847582348781e-05
4.862431215607803665e+02 4.771525309206397559e-05
4.871435717858929024e+02 4.788627464747745142e-05
4.880440220110054952e+02 4.805176100456545974e-05
4.889444722361180311e+02 4.836235100008661652e-05
4.898449224612305670e+02 4.890093599631320081e-05
4.907453726863431598e+02 4.953551265236847887e-05
4.916458229114556957e+02 5.004537202798251645e-05
4.925462731365682885e+02 5.033637895347076304e-05
4.934467233616808244e+02 5.045261313611600009e-05
4.943471735867933603e+02 5.052109095765208827e-05
4.952476238119059531e+02 5.073585701439531706e-05
4.961480740370184890e+02 5.126199494622895035e-05
4.970485242621310249e+02 5.213615510358238610e-05
4.979489744872436177e+02 5.317543034139909041e-05
4.988494247123561536e+02 5.389606659402200451e-05
4.997498749374686895e+02 5.392371356923111343e-05
5.006503251625812823e+02 5.341553518832006895e-05
5.015507753876938182e+02 5.289476519233337736e-05
5.024512256128063541e+02 5.278941814702369200e-05
5.033516758379189469e+02 5.308385457801857233e-05
5.042521260630314828e+02 5.344981054919214635e-05
5.051525762881440755e+02 5.368003624348235780e-05
5.060530265132566115e+02 5.383447630118168227e-05
5.069534767383691474e+02 5.400819933728420952e-05
5.078539269634817401e+02 5.418667368306052842e-05
5.087543771885942760e+02 5.420322971447037573e-05
5.096548274137068120e+02 5.397744479599966242e-05
5.105552776388194047e+02 5.375722925929222172e-05
5.114557278639319406e+02 5.383292765828261021e-05
5.123561780890445334e+02 5.414975537905020994e-05
5.132566283141570693e+02 5.446667467232999666e-05
5.141570785392696052e+02 5.469453545380967724e-05
5.150575287643821412e+02 5.489067193899479949e-05
5.159579789894946771e+02 5.515366225968676558e-05
5.168584292146073267e+02 5.561147988501425390e-05
5.177588794397198626e+02 5.631752707058935206e-05
5.186593296648323985e+02 5.707208434727501249e-05
5.195597798899449344e+02 5.751634808512431229e-05
5.204602301150574704e+02 5.748583693394439882e-05
5.213606803401700063e+02 5.720364940314329465e-05
5.222611305652826559e+02 5.693925908730837504e-05
5.231615807903951918e+02 5.674799224003474878e-05
5.240620310155077277e+02 5.668417165228283641e-05
5.249624812406202636e+02 5.694697034446186547e-05
5.258629314657327996e+02 5.774502564462827704e-05
5.267633816908454492e+02 5.911247877764541777e-05
5.276638319159579851e+02 6.080998748100888233e-05
5.285642821410705210e+02 6.243274859389661639e-05
5.294647323661830569e+02 6.363689145227114416e-05
5.303651825912955928e+02 6.426414650308545379e-05
5.312656328164081287e+02 6.443598480879556315e-05
5.321660830415207784e+02 6.449875475500215416e-05
5.330665332666333143e+02 6.475569518748217806e-05
5.339669834917458502e+02 6.529409287853170406e-05
5.348674337168583861e+02 6.593868502839848552e-05
5.357678839419709220e+02 6.633487064738400056e-05
5.366683341670835716e+02 6.627718982697999742e-05
5.375687843921961075e+02 6.592886379094851435e-05
5.384692346173086435e+02 6.567297232055170045e-05
5.393696848424211794e+02 6.576378649885587042e-05
5.402701350675337153e+02 6.608448445439154639e-05
5.411705852926462512e+02 6.641727164451143451e-05
5.420710355177589008e+02 6.671134567908181370e-05
5.429714857428714367e+02 6.695897411185348165e-05
5.438719359679839727e+02 6.705496394969042632e-05
5.447723861930965086e+02 6.687905124284446189e-05
5.456728364182090445e+02 6.666157435764787239e-05
5.465732866433215804e+02 6.693714883834111986e-05
5.474737368684342300e+02 6.786417887348161846e-05
5.483741870935467659e+02 6.898908852073047247e-05
5.492746373186593019e+02 6.979984639037937371e-05
5.501750875437718378e+02 7.018491883347956163e-05
5.510755377688843737e+02 7.036272559654648516e-05
5.519759879939970233e+02 7.060324639729387286e-05
5.528764382191095592e+02 7.102081208878779830e-05
5.537768884442220951e+02 7.154054395408325625e-05
5.546773386693346310e+02 7.201357534438609606e-05
5.555777888944471670e+02 7.235069080762884341e-05
5.564782391195597029e+02 7.251808203105032733e-05
5.573786893446723525e+02 7.252834590121700579e-05
5.582791395697848884e+02 7.246902143247241487e-05
5.591795897948974243e+02 7.245660863403229133e-05
5.600800400200099602e+02 7.259044885381702394e-05
5.609804902451224962e+02 7.285651910394503195e-05
5.618809404702351458e+02 7.301824375988739491e-05
5.627813906953476817e+02 7.273959132481640601e-05
5.636818409204602176e+02 7.192649059225883598e-05
5.645822911455727535e+02 7.086968515494834937e-05
5.654827413706852894e+02 7.000499351295504059e-05
5.663831915957978254e+02 6.955766556320098603e-05
5.672836418209104750e+02 6.951048215187688559e-05
5.681840920460230109e+02 6.977656459221049854e-05
5.690845422711355468e+02 7.022062393884553801e-05
5.699849924962480827e+02 7.065251092625277659e-05
5.708854427213606186e+02 7.086839086001125380e-05
5.717858929464731546e+02 7.071823284772380512e-05
5.726863431715858042e+02 7.016954294569338103e-05
5.735867933966983401e+02 6.932709282449667394e-05
5.744872436218108760e+02 6.842033892708180621e-05
5.753876938469234119e+02 6.760973033160582932e-05
5.762881440720359478e+02 6.687291971657127255e-05
5.771885942971485974e+02 6.618899442806136404e-05
5.780890445222611334e+02 6.563779711827451258e-05
5.789894947473736693e+02 6.536566921171374912e-05
5.798899449724862052e+02 6.547644053827719822e-05
5.807903951975987411e+02 6.586508765564444174e-05
5.816908454227112770e+02 6.635539790022658597e-05
5.825912956478239266e+02 6.689722343667361601e-05
5.834917458729364625e+02 6.759047860001673623e-05
5.843921960980489985e+02 6.845901222625085786e-05
5.852926463231615344e+02 6.928297506646888325e-05
5.861930965482740703e+02 6.992391477722646308e-05
5.870935467733867199e+02 7.037228685292510374e-05
5.879939969984992558e+02 7.044134711987734196e-05
5.888944472236117917e+02 6.983240932815321881e-05
5.897948974487243277e+02 6.852873020442954723e-05
5.906953476738368636e+02 6.697070787556620567e-05
5.915957978989493995e+02 6.557078181333204784e-05
5.924962481240620491e+02 6.451670611130968537e-05
5.933966983491745850e+02 6.392080489254565101e-05
5.942971485742871209e+02 6.375221253584469972e-05
5.951975987993996569e+02 6.387668085941533883e-05
5.960980490245121928e+02 6.413378749689494147e-05
5.969984992496247287e+02 6.435416922666868970e-05
5.978989494747373783e+02 6.445782430306688121e-05
5.987993996998499142e+02 6.438573240775567405e-05
5.996998499249624501e+02 6.405560657241018854e-05
6.006003001500749860e+02 6.346213766605964652e-05
6.015007503751875220e+02 6.270445373545437508e-05
6.024012006003001716e+02 6.198110465412410002e-05
6.033016508254127075e+02 6.137371453472108794e-05
6.042021010505252434e+02 6.081404759161887567e-05
6.051025512756377793e+02 6.024355243186792273e-05
6.060030015007503152e+02 5.956028610568771063e-05
6.069034517258628512e+02 5.874397903069457111e-05
6.078039019509755008e+02 5.797385708924143272e-05
6.087043521760880367e+02 5.737794541606595970e-05
6.096048024012005726e+02 5.693001550612933147e-05
6.105052526263131085e+02 5.663410335232619565e-05
6.114057028514256444e+02 5.655063294042932196e-05
6.123061530765382940e+02 5.663079795725552026e-05
6.132066033016508300e+02 5.676431754566453467e-05
6.141070535267633659e+02 5.700340632201815558e-05
6.150075037518759018e+02 5.749794285260708006e-05
6.159079539769884377e+02 5.814836077674661176e-05
6.168084042021009736e+02 5.865968290512209500e-05
6.177088544272136232e+02 5.880538277408990731e-05
6.186093046523261592e+02 5.856800890489752281e-05
6.195097548774386951e+02 5.808268675368318131e-05
6.204102051025512310e+02 5.758337782660530307e-05
6.213106553276637669e+02 5.729958952702866279e-05
6.222111055527763028e+02 5.724982820748016331e-05
6.231115557778889524e+02 5.736208337178041040e-05
6.240120060030014884e+02 5.752519748477169531e-05
6.249124562281140243e+02 5.758174289768809876e-05
6.258129064532265602e+02 5.754659331711342444e-05
6.267133566783390961e+02 5.765083860533175454e-05
6.276138069034517457e+02 5.804704336882197669e-05
6.285142571285642816e+02 5.861633176336461293e-05
6.294147073536768175e+02 5.903724771839814615e-05
6.303151575787893535e+02 5.909922284703537156e-05
6.312156078039018894e+02 5.876557242574156345e-05
6.321160580290144253e+02 5.803543536066585554e-05
6.330165082541270749e+02 5.709113431114802502e-05
6.339169584792396108e+02 5.620597350849424400e-05
6.348174087043521467e+02 5.551494254471682656e-05
6.357178589294646827e+02 5.497533886092311454e-05
6.366183091545772186e+02 5.446587639754612914e-05
6.375187593796898682e+02 5.393348852554820752e-05
6.384192096048024041e+02 5.343368386525585470e-05
6.393196598299149400e+02 5.303103956475693499e-05
6.402201100550274759e+02 5.269502139224265544e-05
6.411205602801400119e+02 5.236127791705393552e-05
6.420210105052525478e+02 5.220974593776061710e-05
6.429214607303651974e+02 5.252425951343726336e-05
6.438219109554777333e+02 5.336337652353709108e-05
6.447223611805902692e+02 5.456831126743426884e-05
6.456228114057028051e+02 5.579437012028010855e-05
6.465232616308153411e+02 5.663242214925860664e-05
6.474237118559278770e+02 5.686069487858726862e-05
6.483241620810405266e+02 5.664273819495015843e-05
6.492246123061530625e+02 5.632390505341603040e-05
6.501250625312655984e+02 5.612663287736516303e-05
6.510255127563781343e+02 5.613199899396192346e-05
6.519259629814906702e+02 5.646877773476629333e-05
6.528264132066033198e+02 5.717336098283607381e-05
6.537268634317158558e+02 5.793613029491649386e-05
6.546273136568283917e+02 5.829742430858741894e-05
6.555277638819409276e+02 5.817397739600426695e-05
6.564282141070534635e+02 5.792890778955047195e-05
6.573286643321659994e+02 5.785709057625164342e-05
6.582291145572786490e+02 5.801280808113058751e-05
6.591295647823911850e+02 5.832653676751573354e-05
6.600300150075037209e+02 5.865981872366798520e-05
6.609304652326162568e+02 5.886666053613844924e-05
6.618309154577287927e+02 5.888232643516015593e-05
6.627313656828414423e+02 5.866828214482524553e-05
6.636318159079539782e+02 5.820399640054803292e-05
6.645322661330665142e+02 5.757243565374345779e-05
6.654327163581790501e+02 5.698353354082618419e-05
6.663331665832915860e+02 5.661995401679571213e-05
6.672336168084041219e+02 5.644963861165907919e-05
6.681340670335167715e+02 5.633519329061017014e-05
6.690345172586293074e+02 5.625128278089257478e-05
6.699349674837418434e+02 5.631140339275306282e-05
6.708354177088543793e+02 5.666640866430510992e-05
6.717358679339669152e+02 5.732844595637107848e-05
6.726363181590794511e+02 5.818816981367503629e-05
6.735367683841921007e+02 5.899835404013675273e-05
6.744372186093046366e+02 5.943238478636727522e-05
6.753376688344171725e+02 5.939821211050188145e-05
6.762381190595297085e+02 5.908529653361546680e-05
6.771385692846422444e+02 5.875619904257274557e-05
6.780390195097548940e+02 5.858809397342123700e-05
6.789394697348674299e+02 5.852743303278908754e-05
6.798399199599799658e+02 5.847383658206898053e-05
6.807403701850925017e+02 5.843914285017333458e-05
6.816408204102050377e+02 5.845025246973677163e-05
6.825412706353175736e+02 5.853171879838666255e-05
6.834417208604302232e+02 5.874094842273193471e-05
6.843421710855427591e+02 5.904809785494208671e-05
6.852426213106552950e+02 5.919654051144991586e-05
6.861430715357678309e+02 5.889789795564635150e-05
6.870435217608803669e+02 5.823738458097104401e-05
6.879439719859930165e+02 5.762088610255327833e-05
6.888444222111055524e+02 5.735459976696496780e-05
6.897448724362180883e+02 5.746737425921599556e-05
6.906453226613306242e+02 5.782235935803546514e-05
6.915457728864431601e+02 5.824684194212946319e-05
6.924462231115556961e+02 5.864760757315010538e-05
6.933466733366683457e+02 5.886516735484169502e-05
6.942471235617808816e+02 5.868341766927079903e-05
6.951475737868934175e+02 5.811522446456845515e-05
6.960480240120059534e+02 5.735171186200915236e-05
6.969484742371184893e+02 5.654639882090291503e-05
6.978489244622311389e+02 5.584556275391466021e-05
6.987493746873436749e+02 5.546308230901314193e-05
6.996498249124562108e+02 5.549042184119646736e-05
7.005502751375687467e+02 5.582063406317730610e-05
7.014507253626812826e+02 5.639159796765500860e-05
7.023511755877938185e+02 5.718982687780901897e-05
7.032516258129064681e+02 5.806975168827965741e-05
7.041520760380190040e+02 5.892071266074356070e-05
7.050525262631315400e+02 5.982280840695966404e-05
7.059529764882440759e+02 6.078020493640402594e-05
7.068534267133566118e+02 6.169145175449144319e-05
7.077538769384691477e+02 6.254874975548710392e-05
7.086543271635817973e+02 6.331211811920450089e-05
7.095547773886943332e+02 6.377269106396246873e-05
7.104552276138068692e+02 6.366005478864380650e-05
7.113556778389194051e+02 6.269735167458334764e-05
7.122561280640319410e+02 6.089479419303369469e-05
7.131565782891445906e+02 5.882525171615008710e-05
7.140570285142571265e+02 5.715602846016473937e-05
7.149574787393696624e+02 5.609902216236523802e-05
7.158579289644821984e+02 5.554183969784557372e-05
7.167583791895947343e+02 5.533871823101113493e-05
7.176588294147072702e+02 5.548044769694882613e-05
7.185592796398199198e+02 5.605134861151193410e-05
7.194597298649324557e+02 5.701294259055242027e-05
7.203601800900449916e+02 5.814619290700282622e-05
7.212606303151575275e+02 5.917287580726099855e-05
7.221610805402700635e+02 5.992309611141644857e-05
7.230615307653827131e+02 6.034653071818807992e-05
7.239619809904952490e+02 6.049586365258583794e-05
7.248624312156077849e+02 6.047290019169154009e-05
7.257628814407203208e+02 6.050549403568464653e-05
7.266633316658328567e+02 6.075324545706496459e-05
7.275637818909453927e+02 6.100359094746796043e-05
7.284642321160580423e+02 6.098056121240371340e-05
7.293646823411705782e+02 6.062479611325719388e-05
7.302651325662831141e+02 6.007116954454996382e-05
7.311655827913956500e+02 5.955417333746583334e-05
7.320660330165081859e+02 5.916703610315906826e-05
7.329664832416207219e+02 5.890522551393427423e-05
7.338669334667333715e+02 5.877102372520156908e-05
7.347673836918459074e+02 5.868764206209357154e-05
7.356678339169584433e+02 5.860442374684541635e-05
7.365682841420709792e+02 5.860730598064846185e-05
7.374687343671835151e+02 5.877891755186831171e-05
7.383691845922961647e+02 5.909318734826818391e-05
7.392696348174087007e+02 5.945207936137501489e-05
7.401700850425212366e+02 5.978509530613474696e-05
7.410705352676337725e+02 6.006370323075703720e-05
7.419709854927463084e+02 6.026694504828627904e-05
7.428714357178588443e+02 6.033423417181068795e-05
7.437718859429714939e+02 6.006820595549705670e-05
7.446723361680840299e+02 5.946834294679421371e-05
7.455727863931965658e+02 5.902213592961097634e-05
7.464732366183091017e+02 5.915888263262716781e-05
7.473736868434216376e+02 5.989230883235894615e-05
7.482741370685342872e+02 6.111306587926273418e-05
7.491745872936468231e+02 6.278412620729803095e-05
7.500750375187593590e+02 6.475455752882037608e-05
7.509754877438718950e+02 6.644073815125822377e-05
7.518759379689844309e+02 6.711573326041466424e-05
7.527763881940969668e+02 6.685785215570511769e-05
7.536768384192096164e+02 6.660831677766647255e-05
7.545772886443221523e+02 6.709816196989359298e-05
7.554777388694346882e+02 6.812291911406150740e-05
7.563781890945472242e+02 6.895466014322501407e-05
7.572786393196597601e+02 6.936705569825358760e-05
7.581790895447722960e+02 6.969388235527114873e-05
7.590795397698849456e+02 7.007407081896205694e-05
7.599799899949974815e+02 7.035817963241462161e-05
7.608804402201100174e+02 7.038039033812542938e-05
7.617808904452225534e+02 7.022521002732125825e-05
7.626813406703350893e+02 7.016517836266017536e-05
7.635817908954477389e+02 7.018281961021238140e-05
7.644822411205602748e+02 6.994620049297066596e-05
7.653826913456728107e+02 6.947012735674529130e-05
7.662831415707853466e+02 6.917370835003552518e-05
7.671835917958978825e+02 6.924684843046972687e-05
7.680840420210104185e+02 6.957934850752742163e-05
7.689844922461230681e+02 7.006433326140047593e-05
7.698849424712356040e+02 7.063177896205472591e-05
7.707853926963481399e+02 7.107598943684858086e-05
7.716858429214606758e+02 7.122194441646602576e-05
7.725862931465732117e+02 7.103652877739893097e-05
7.734867433716858613e+02 7.055453944271520401e-05
7.743871935967983973e+02 6.990698108585469172e-05
7.752876438219109332e+02 6.941473361898349700e-05
7.761880940470234691e+02 6.934016682213050143e-05
7.770885442721360050e+02 6.950582930563662006e-05
7.779889944972485409e+02 6.945500940138374282e-05
7.788894447223611905e+02 6.893252769071678949e-05
7.797898949474737265e+02 6.792116039752082925e-05
7.806903451725862624e+02 6.658222319541625789e-05
7.815907953976987983e+02 6.543108652769220141e-05
7.824912456228113342e+02 6.496852666458427733e-05
7.833916958479238701e+02 6.522355541114575428e-05
7.842921460730365197e+02 6.593656134816846962e-05
7.851925962981490557e+02 6.673937572119790032e-05
7.860930465232615916e+02 6.730076758166968914e-05
7.869934967483741275e+02 6.759563738136251186e-05
7.878939469734866634e+02 6.779541325213270632e-05
7.887943971985993130e+02 6.791865784481180982e-05
7.896948474237118489e+02 6.779074760317932750e-05
7.905952976488243849e+02 6.719655550299135575e-05
7.914957478739369208e+02 6.618700951290796663e-05
7.923961980990494567e+02 6.528438369241842086e-05
7.932966483241619926e+02 6.507049196137228684e-05
7.941970985492746422e+02 6.564777869914633268e-05
7.950975487743871781e+02 6.669142214718282678e-05
7.959979989994997140e+02 6.768782646827350188e-05
7.968984492246122500e+02 6.813279240844211701e-05
7.977988994497247859e+02 6.798079291971405552e-05
7.986993496748374355e+02 6.764131104068825330e-05
7.995997998999499714e+02 6.746086834935712190e-05
8.005002501250625073e+02 6.769753229650580877e-05
8.014007003501750432e+02 6.874805155122522954e-05
8.023011505752875792e+02 7.070972997585239209e-05
8.032016008004001151e+02 7.282726129338425386e-05
8.041020510255127647e+02 7.414931008972555540e-05
8.050025012506253006e+02 7.441644438232180713e-05
8.059029514757378365e+02 7.391380152146910488e-05
8.068034017008503724e+02 7.304803450713732353e-05
8.077038519259629084e+02 7.216013547348173042e-05
8.086043021510754443e+02 7.150171738678592665e-05
8.095047523761880939e+02 7.112957273789327465e-05
8.104052026013006298e+02 7.075553621844449356e-05
8.113056528264131657e+02 7.000004979359698745e-05
8.122061030515257016e+02 6.871608345960519100e-05
8.131065532766382375e+02 6.721470744346822411e-05
8.140070035017508872e+02 6.600284810491355064e-05
8.149074537268634231e+02 6.538767031816078977e-05
8.158079039519759590e+02 6.543338581041636514e-05
8.167083541770884949e+02 6.597796948518221984e-05
8.176088044022010308e+02 6.680638042602885115e-05
8.185092546273135667e+02 6.789345060697318443e-05
8.194097048524262163e+02 6.924298393418498146e-05
8.203101550775387523e+02 7.055887639198865440e-05
8.212106053026512882e+02 7.130578954740630514e-05
8.221110555277638241e+02 7.114539422477421447e-05
8.230115057528763600e+02 7.037473312237637853e-05
8.239119559779890096e+02 6.964686625352662329e-05
8.248124062031015455e+02 6.929174652454968112e-05
8.257128564282140815e+02 6.926847314739057219e-05
8.266133066533266174e+02 6.943624785085238105e-05
8.275137568784391533e+02 6.962881168629766104e-05
8.284142071035516892e+02 6.964111591113417209e-05
8.293146573286643388e+02 6.933069371756820081e-05
8.302151075537768747e+02 6.881059554100808285e-05
8.311155577788894107e+02 6.855222946251382651e-05
8.320160080040019466e+02 6.905655142830312266e-05
8.329164582291144825e+02 7.041863009616624485e-05
8.338169084542270184e+02 7.207825914338354711e-05
8.347173586793396680e+02 7.333464947369566246e-05
8.356178089044522039e+02 7.413551688224034506e-05
8.365182591295647399e+02 7.471590579764586558e-05
8.374187093546772758e+02 7.501130014952104555e-05
8.383191595797898117e+02 7.511399904686897916e-05
8.392196098049024613e+02 7.559751911837091752e-05
8.401200600300149972e+02 7.685852021656692839e-05
8.410205102551275331e+02 7.870624526795733989e-05
8.419209604802400690e+02 8.080872320161498399e-05
8.428214107053526050e+02 8.264062910740081194e-05
8.437218609304651409e+02 8.362707679200021243e-05
8.446223111555777905e+02 8.378978792776481594e-05
8.455227613806903264e+02 8.369692021668168318e-05
8.464232116058028623e+02 8.362739688463293700e-05
8.473236618309153982e+02 8.332504942447015140e-05
8.482241120560279342e+02 8.266138233801038665e-05
8.491245622811405838e+02 8.182174150225619066e-05
8.500250125062531197e+02 8.097581101996267081e-05
8.509254627313656556e+02 8.022536289250613674e-05
8.518259129564781915e+02 7.967698013526823596e-05
8.527263631815907274e+02 7.940595484097022342e-05
8.536268134067032634e+02 7.927506311915266148e-05
8.545272636318159130e+02 7.908403997604783930e-05
8.554277138569284489e+02 7.881618162542811579e-05
8.563281640820409848e+02 7.854388016350168956e-05
8.572286143071535207e+02 7.835357410368239974e-05
8.581290645322660566e+02 7.846373646913677106e-05
8.590295147573785925e+02 7.891124105152690115e-05
8.599299649824912422e+02 7.935096097977709486e-05
8.608304152076037781e+02 7.959039025246511100e-05
8.617308654327163140e+02 7.974137310013942805e-05
8.626313156578288499e+02 7.986769834186011453e-05
8.635317658829413858e+02 7.998275604344428833e-05
8.644322161080540354e+02 8.023611314384594521e-05
8.653326663331665713e+02 8.071610919817341656e-05
8.662331165582791073e+02 8.136792339103912327e-05
8.671335667833916432e+02 8.226878543758718142e-05
8.680340170085041791e+02 8.350683365036349964e-05
8.689344672336167150e+02 8.499769766048119750e-05
8.698349174587293646e+02 8.654784475847489235e-05
8.707353676838419005e+02 8.802106828773061651e-05
8.716358179089544365e+02 8.927891345842711159e-05
8.725362681340669724e+02 9.002993226113507137e-05
8.734367183591795083e+02 8.994754564836118186e-05
8.743371685842921579e+02 8.916322805159597215e-05
8.752376188094046938e+02 8.806590346037423966e-05
8.761380690345172297e+02 8.673605853457280951e-05
8.770385192596297657e+02 8.525833196987109644e-05
8.779389694847423016e+02 8.387049427470968444e-05
8.788394197098548375e+02 8.286620343743436785e-05
8.797398699349674871e+02 8.261949397776105605e-05
8.806403201600800230e+02 8.344827441406030028e-05
8.815407703851925589e+02 8.511173868501821537e-05
8.824412206103050949e+02 8.700038333392417405e-05
8.833416708354176308e+02 8.894590666905447386e-05
8.842421210605301667e+02 9.128233894420187248e-05
8.851425712856428163e+02 9.413540359859277114e-05
8.860430215107553522e+02 9.731367535503774398e-05
8.869434717358678881e+02 1.007813394283068822e-04
8.878439219609804240e+02 1.042633231896057075e-04
8.887443721860929600e+02 1.068202755590535454e-04
8.896448224112056096e+02 1.075789367969066685e-04
8.905452726363181455e+02 1.066499534211797217e-04
8.914457228614306814e+02 1.051244528721902068e-04
8.923461730865432173e+02 1.042756449558936507e-04
8.932466233116557532e+02 1.044640964740998487e-04
8.941470735367682892e+02 1.048610535462899719e-04
8.950475237618809388e+02 1.045314213905936625e-04
8.959479739869934747e+02 1.036533844656194479e-04
8.968484242121060106e+02 1.033278553753954010e-04
8.977488744372185465e+02 1.043890281070470238e-04
8.986493246623310824e+02 1.068515210492893783e-04
8.995497748874437320e+02 1.099780941152911454e-04
9.004502251125562680e+02 1.126454494036556361e-04
9.013506753376688039e+02 1.139843156897061589e-04
9.022511255627813398e+02 1.140921746964263157e-04
9.031515757878938757e+02 1.139876094393945982e-04
9.040520260130064116e+02 1.146512958808459985e-04
9.049524762381190612e+02 1.163400547792774962e-04
9.058529264632315972e+02 1.184746571212487361e-04
9.067533766883441331e+02 1.199878194534284684e-04
9.076538269134566690e+02 1.200654324596683192e-04
9.085542771385692049e+02 1.187475931116575590e-04
9.094547273636817408e+02 1.169631319225179924e-04
9.103551775887943904e+02 1.157476271825779823e-04
9.112556278139069263e+02 1.154120819925442905e-04
9.121560780390194623e+02 1.156822195337822744e-04
9.130565282641319982e+02 1.162853165698955304e-04
9.139569784892445341e+02 1.172070792310859707e-04
9.148574287143571837e+02 1.186830107761455215e-04
9.157578789394697196e+02 1.208314245460452059e-04
9.166583291645822555e+02 1.230683079240525702e-04
9.175587793896947915e+02 1.245650446138661606e-04
9.184592296148073274e+02 1.252250209713611439e-04
9.193596798399198633e+02 1.251630732949953113e-04
9.202601300650325129e+02 1.243933834984419461e-04
9.211605802901450488e+02 1.235713606373136590e-04
9.220610305152575847e+02 1.237679040139222559e-04
9.229614807403701207e+02 1.256551492129021140e-04
9.238619309654826566e+02 1.288266113734638611e-04
9.247623811905953062e+02 1.318543875284157853e-04
9.256628314157078421e+02 1.335479837328303033e-04
9.265632816408203780e+02 1.343279448569384611e-04
9.274637318659329139e+02 1.348474339117194400e-04
9.283641820910454499e+02 1.345512743571722141e-04
9.292646323161579858e+02 1.329259011799089273e-04
9.301650825412706354e+02 1.304323160805806144e-04
9.310655327663831713e+02 1.277313934626741045e-04
9.319659829914957072e+02 1.254619984285662473e-04
9.328664332166082431e+02 1.243975866322592034e-04
9.337668834417207790e+02 1.248706567406916842e-04
9.346673336668334287e+02 1.262112069209354523e-04
9.355677838919459646e+02 1.272791207381258492e-04
9.364682341170585005e+02 1.278864910141735089e-04
9.373686843421710364e+02 1.288761117087290089e-04
9.382691345672835723e+02 1.308872230105989425e-04
9.391695847923961082e+02 1.337222895924070933e-04
9.400700350175087578e+02 1.368001692651023326e-04
9.409704852426212938e+02 1.400335177433710359e-04
9.418709354677338297e+02 1.433611664801772714e-04
9.427713856928463656e+02 1.460021902196082964e-04
9.436718359179589015e+02 1.474057367760082883e-04
9.445722861430714374e+02 1.482179048251338119e-04
9.454727363681840870e+02 1.492965693057650618e-04
9.463731865932966230e+02 1.513147473839343310e-04
9.472736368184091589e+02 1.547098714004973045e-04
9.481740870435216948e+02 1.591961167239797233e-04
9.490745372686342307e+02 1.639917631818919191e-04
9.499749874937468803e+02 1.687100591899919945e-04
9.508754377188594162e+02 1.738308318470495838e-04
9.517758879439719522e+02 1.793088626969271179e-04
9.526763381690844881e+02 1.833886987594843157e-04
9.535767883941970240e+02 1.840249799255402332e-04
9.544772386193095599e+02 1.812314784154156954e-04
9.553776888444222095e+02 1.770128003453186295e-04
9.562781390695347454e+02 1.736140823522929757e-04
9.571785892946472813e+02 1.723670072044265202e-04
9.580790395197598173e+02 1.730610325382696474e-04
9.589794897448723532e+02 1.747532264603379347e-04
9.598799399699850028e+02 1.770141132921557094e-04
9.607803901950975387e+02 1.796803148455116284e-04
9.616808404202100746e+02 1.824892863049445762e-04
9.625812906453226105e+02 1.852528608659816979e-04
9.634817408704351465e+02 1.875664801013693990e-04
9.643821910955476824e+02 1.889994472087942181e-04
9.652826413206603320e+02 1.892331229942713930e-04
9.661830915457728679e+02 1.880211320037944998e-04
9.670835417708854038e+02 1.860328023298510867e-04
9.679839919959979397e+02 1.846172966146320373e-04
9.688844422211104757e+02 1.846284550489771725e-04
9.697848924462230116e+02 1.860184327354651710e-04
9.706853426713356612e+02 1.881328664553286081e-04
9.715857928964481971e+02 1.903395683552287201e-04
9.724862431215607330e+02 1.921478852531473594e-04
9.733866933466732689e+02 1.932621897840547170e-04
9.742871435717858049e+02 1.936921374317538585e-04
9.751875937968984545e+02 1.934688857017834520e-04
9.760880440220109904e+02 1.927500005917970880e-04
9.769884942471235263e+02 1.922076260569202384e-04
9.778889444722360622e+02 1.924972092819424402e-04
9.787893946973485981e+02 1.937039969408531521e-04
9.796898449224611340e+02 1.956172515437531469e-04
9.805902951475737837e+02 1.979755209593570073e-04
9.814907453726863196e+02 2.005910265608519517e-04
9.823911955977988555e+02 2.037400985558841544e-04
9.832916458229113914e+02 2.077121860994748665e-04
9.841920960480239273e+02 2.123865129825812544e-04
9.850925462731365769e+02 2.177458932375754953e-04
9.859929964982491128e+02 2.232485380941353855e-04
9.868934467233616488e+02 2.274354225025937090e-04
9.877938969484741847e+02 2.297870217000676197e-04
9.886943471735867206e+02 2.307112979557485416e-04
9.895947973986992565e+02 2.305580991546632506e-04
9.904952476238119061e+02 2.299267887919645328e-04
9.913956978489244420e+02 2.294383655622532871e-04
9.922961480740369780e+02 2.289604815647861794e-04
9.931965982991495139e+02 2.273423554759805803e-04
9.940970485242620498e+02 2.243089472792343501e-04
9.949974987493745857e+02 2.216246139305500787e-04
9.958979489744872353e+02 2.212159314418516288e-04
9.967983991995997712e+02 2.238383500544033995e-04
9.976988494247123072e+02 2.287219118069842264e-04
9.985992996498248431e+02 2.337802529368327483e-04
9.994997498749373790e+02 2.374718799774450822e-04
1.000400200100050029e+03 2.403966928004270598e-04
1.001300650325162565e+03 2.441623075137434981e-04
1.002201100550275100e+03 2.496242256032174707e-04
1.003101550775387636e+03 2.565743684622683192e-04
1.004002001000500172e+03 2.636885384336675928e-04
1.004902451225612708e+03 2.694820183362525256e-04
1.005802901450725358e+03 2.734759445044349698e-04
1.006703351675837894e+03 2.755663694766332999e-04
1.007603801900950430e+03 2.761033905031199482e-04
1.008504252126062966e+03 2.760874470392738725e-04
1.009404702351175501e+03 2.761835702075501170e-04
1.010305152576288151e+03 2.765271639332789969e-04
1.011205602801400687e+03 2.772227580067307168e-04
1.012106053026513223e+03 2.782402945969461409e-04
1.013006503251625759e+03 2.797626693013923263e-04
1.013906953476738295e+03 2.823872436496453189e-04
1.014807403701850831e+03 2.859027068903708790e-04
1.015707853926963480e+03 2.895443218465112252e-04
1.016608304152076016e+03 2.927713309100907712e-04
1.017508754377188552e+03 2.951640398238551460e-04
1.018409204602301088e+03 2.971317990010352138e-04
1.019309654827413624e+03 2.995007538480130545e-04
1.020210105052526160e+03 3.024866593992023181e-04
1.021110555277638809e+03 3.059861421420995305e-04
1.022011005502751345e+03 3.094892298058043545e-04
1.022911455727863881e+03 3.116314474555538223e-04
1.023811905952976417e+03 3.118141690557764780e-04
1.024712356178089067e+03 3.106980814567427036e-04
1.025612806403201603e+03 3.085017480160481156e-04
1.026513256628314139e+03 3.050998343464311107e-04
1.027413706853426675e+03 3.011793849325578856e-04
1.028314157078539210e+03 2.972598869659583837e-04
1.029214607303651746e+03 2.934009318463429031e-04
1.030115057528764282e+03 2.901901869278123791e-04
1.031015507753876818e+03 2.883420583236356600e-04
1.031915957978989354e+03 2.877249892447173362e-04
1.032816408204101890e+03 2.874295059926468320e-04
1.033716858429214653e+03 2.875072562173727276e-04
1.034617308654327189e+03 2.888965610286058083e-04
1.035517758879439725e+03 2.918124521836671010e-04
1.036418209104552261e+03 2.961767952889312184e-04
1.037318659329664797e+03 3.019330171157849694e-04
1.038219109554777333e+03 3.080033970874488042e-04
1.039119559779889869e+03 3.126858314635121280e-04
1.040020010005002405e+03 3.147956616630727313e-04
1.040920460230114941e+03 3.142338126963616215e-04
1.041820910455227477e+03 3.120553093622326557e-04
1.042721360680340013e+03 3.093451226264525987e-04
1.043621810905452776e+03 3.065100710029809651e-04
1.044522261130565312e+03 3.037421343854478854e-04
1.045422711355677848e+03 3.014171656904313231e-04
1.046323161580790384e+03 2.999800526575082749e-04
1.047223611805902920e+03 2.999636407871637150e-04
1.048124062031015455e+03 3.018563496553785218e-04
1.049024512256127991e+03 3.057106775747165479e-04
1.049924962481240527e+03 3.109012569705450323e-04
1.050825412706353063e+03 3.156745704335699003e-04
1.051725862931465599e+03 3.190944652624950529e-04
1.052626313156578135e+03 3.222674870006909096e-04
1.053526763381690898e+03 3.258011880300405597e-04
1.054427213606803434e+03 3.286179274083869174e-04
1.055327663831915970e+03 3.292122214133239326e-04
1.056228114057028506e+03 3.275031481627843264e-04
1.057128564282141042e+03 3.253876570687863775e-04
1.058029014507253578e+03 3.247255017522006522e-04
1.058929464732366114e+03 3.262152392710423576e-04
1.059829914957478650e+03 3.300743760940510552e-04
1.060730365182591186e+03 3.356843142513690607e-04
1.061630815407703722e+03 3.417969674910006223e-04
1.062531265632816257e+03 3.469302311638498490e-04
1.063431715857929021e+03 3.504816338397292183e-04
1.064332166083041557e+03 3.536445634236424487e-04
1.065232616308154093e+03 3.574915025742176852e-04
1.066133066533266629e+03 3.622182150341092055e-04
1.067033516758379164e+03 3.678146970476719687e-04
1.067933966983491700e+03 3.743324454792413929e-04
1.068834417208604236e+03 3.819836213218243581e-04
1.069734867433716772e+03 3.908059942149688529e-04
1.070635317658829308e+03 3.993427889411824160e-04
1.071535767883941844e+03 4.049011446960178000e-04
1.072436218109054380e+03 4.066499996311889980e-04
1.073336668334167143e+03 4.060417580445209776e-04
1.074237118559279679e+03 4.041663527458379300e-04
1.075137568784392215e+03 4.012235101617468084e-04
1.076038019009504751e+03 3.979732303600492659e-04
1.076938469234617287e+03 3.954672722421796868e-04
1.077838919459729823e+03 3.942761587707425291e-04
1.078739369684842359e+03 3.950040433664504737e-04
1.079639819909954895e+03 3.983012578084715047e-04
1.080540270135067431e+03 4.039413043626250560e-04
1.081440720360179967e+03 4.111326213195079754e-04
1.082341170585292502e+03 4.187753015043920650e-04
1.083241620810405038e+03 4.248310785616928216e-04
1.084142071035517802e+03 4.276187226484511137e-04
1.085042521260630338e+03 4.274048909289215555e-04
1.085942971485742873e+03 4.260437864755326756e-04
1.086843421710855409e+03 4.251812708487553777e-04
1.087743871935967945e+03 4.253314169795053244e-04
1.088644322161080481e+03 4.263582395419110460e-04
1.089544772386193017e+03 4.272406038440109896e-04
1.090445222611305553e+03 4.270498520705526616e-04
1.091345672836418089e+03 4.273462865926304301e-04
1.092246123061530625e+03 4.310981157197373253e-04
1.093146573286643161e+03 4.396876481084168353e-04
1.094047023511755924e+03 4.513873237370242555e-04
1.094947473736868460e+03 4.631246470213713556e-04
1.095847923961980996e+03 4.724823738914481100e-04
1.096748374187093532e+03 4.777293382708986845e-04
1.097648824412206068e+03 4.790068403743047323e-04
1.098549274637318604e+03 4.783904054958651084e-04
1.099449724862431140e+03 4.765394391353955264e-04
1.100350175087543676e+03 4.717209594330140643e-04
1.101250625312656211e+03 4.622367755614502230e-04
1.102151075537768747e+03 4.493109080595872871e-04
1.103051525762881283e+03 4.369604552726605176e-04
1.103951975987994047e+03 4.289264730505405721e-04
1.104852426213106583e+03 4.266582864602791155e-04
1.105752876438219118e+03 4.291825656318237802e-04
1.106653326663331654e+03 4.344273555084461201e-04
1.107553776888444190e+03 4.411597469861853050e-04
1.108454227113556726e+03 4.494530720008016911e-04
1.109354677338669262e+03 4.587514048561397418e-04
1.110255127563781798e+03 4.666773723787977506e-04
1.111155577788894334e+03 4.703371290065323242e-04
1.112056028014006870e+03 4.686508636405833450e-04
1.112956478239119406e+03 4.639046533094108105e-04
1.113856928464232169e+03 4.603070849315980730e-04
1.114757378689344705e+03 4.607229873858164986e-04
1.115657828914457241e+03 4.659154701762927703e-04
1.116558279139569777e+03 4.740671239986580209e-04
1.117458729364682313e+03 4.813423664423235881e-04
1.118359179589794849e+03 4.854824699896211396e-04
1.119259629814907385e+03 4.866195284815478953e-04
1.120160080040019920e+03 4.852333074710339926e-04
1.121060530265132456e+03 4.820616957302381687e-04
1.121960980490244992e+03 4.785931590640009879e-04
1.122861430715357528e+03 4.762202887430165479e-04
1.123761880940470292e+03 4.751888400767366135e-04
1.124662331165582827e+03 4.757472725686911390e-04
1.125562781390695363e+03 4.795850693987113158e-04
1.126463231615807899e+03 4.867578461640111888e-04
1.127363681840920435e+03 4.939839834532892132e-04
1.128264132066032971e+03 4.989805765018949383e-04
1.129164582291145507e+03 5.043485134326199364e-04
1.130065032516258043e+03 5.131406502575146461e-04
1.130965482741370579e+03 5.237890421059683251e-04
1.131865932966483115e+03 5.330718710878086346e-04
1.132766383191595651e+03 5.405163290653402976e-04
1.133666833416708187e+03 5.478041976669603165e-04
1.134567283641820950e+03 5.559960480488227406e-04
1.135467733866933486e+03 5.643740520334622566e-04
1.136368184092046022e+03 5.732984605140792073e-04
1.137268634317158558e+03 5.860644466058400563e-04
1.138169084542271094e+03 6.061223986570942694e-04
1.139069534767383630e+03 6.337559028211328009e-04
1.139969984992496165e+03 6.669016137653493255e-04
1.140870435217608701e+03 6.999151704962133487e-04
1.141770885442721237e+03 7.236474344066403308e-04
1.142671335667833773e+03 7.334163185039094170e-04
1.143571785892946309e+03 7.323381462009274706e-04
1.144472236118059072e+03 7.275818728570230274e-04
1.145372686343171608e+03 7.250437972107185314e-04
1.146273136568284144e+03 7.301510928259092410e-04
1.147173586793396680e+03 7.471374946524302757e-04
1.148074037018509216e+03 7.729601429986420608e-04
1.148974487243621752e+03 8.022245229080786355e-04
1.149874937468734288e+03 8.354028471945485184e-04
1.150775387693846824e+03 8.761855578386665636e-04
1.151675837918959360e+03 9.271277384144574300e-04
1.152576288144071896e+03 9.900059642317976701e-04
1.153476738369184432e+03 1.072290068798142362e-03
1.154377188594297195e+03 1.180437748633844913e-03
1.155277638819409731e+03 1.306354648064695896e-03
1.156178089044522267e+03 1.432908541233871838e-03
1.157078539269634803e+03 1.548350945954176088e-03
1.157978989494747339e+03 1.650344936864065479e-03
1.158879439719859874e+03 1.741045452151820635e-03
1.159779889944972410e+03 1.819248803700578400e-03
1.160680340170084946e+03 1.881138641652305371e-03
1.161580790395197482e+03 1.931215147817575686e-03
1.162481240620310018e+03 1.982282863209616774e-03
1.163381690845422554e+03 2.040208713942430301e-03
1.164282141070535317e+03 2.102875091541798590e-03
1.165182591295647853e+03 2.163916967498635997e-03
1.166083041520760389e+03 2.210219319008427559e-03
1.166983491745872925e+03 2.230231828782001414e-03
1.167883941970985461e+03 2.217522944415753483e-03
1.168784392196097997e+03 2.169395460309481681e-03
1.169684842421210533e+03 2.090002750256186696e-03
1.170585292646323069e+03 1.991132217452716048e-03
1.171485742871435605e+03 1.885644153889893355e-03
1.172386193096548141e+03 1.783223608334210926e-03
1.173286643321660677e+03 1.692668782385946431e-03
1.174187093546773440e+03 1.618054723092723565e-03
1.175087543771885976e+03 1.557372336885085376e-03
1.175987993996998512e+03 1.503562396395411024e-03
1.176888444222111048e+03 1.446938224867842923e-03
1.177788894447223583e+03 1.388546192969410684e-03
1.178689344672336119e+03 1.339960465244714348e-03
1.179589794897448655e+03 1.305161026897217955e-03
1.180490245122561191e+03 1.278398583752489524e-03
1.181390695347673727e+03 1.254508623962789088e-03
1.182291145572786263e+03 1.233904011879822507e-03
1.183191595797898799e+03 1.218069602805528376e-03
1.184092046023011562e+03 1.205563179467394495e-03
1.184992496248124098e+03 1.193334808961659483e-03
1.185892946473236634e+03 1.182275318619041516e-03
1.186793396698349170e+03 1.176185979385248846e-03
1.187693846923461706e+03 1.176380738793392005e-03
1.188594297148574242e+03 1.181219200238100685e-03
1.189494747373686778e+03 1.187132662066962049e-03
1.190395197598799314e+03 1.190872562150580146e-03
1.191295647823911850e+03 1.190416075409586258e-03
1.192196098049024386e+03 1.187812473311103748e-03
1.193096548274136921e+03 1.189533552524369570e-03
1.193996998499249457e+03 1.199834368758966171e-03
1.194897448724362221e+03 1.216514770387694963e-03
1.195797898949474757e+03 1.231599486691599670e-03
1.196698349174587293e+03 1.237026902394447155e-03
1.197598799399699828e+03 1.231107442288202538e-03
1.198499249624812364e+03 1.216688557056934492e-03
1.199399699849924900e+03 1.195166611624245067e-03
1.200300150075037436e+03 1.167362007417262898e-03
1.201200600300149972e+03 1.137118500434706374e-03
1.202101050525262508e+03 1.110324645728944914e-03
1.203001500750375044e+03 1.092905742499037216e-03
1.203901950975487580e+03 1.087966839620152591e-03
1.204802401200600343e+03 1.093215705202360945e-03
1.205702851425712879e+03 1.102034322846978968e-03
1.206603301650825415e+03 1.108617833033987386e-03
1.207503751875937951e+03 1.110766562942634358e-03
1.208404202101050487e+03 1.109103480190584950e-03
1.209304652326163023e+03 1.106579368772382319e-03
1.210205102551275559e+03 1.104208385200468713e-03
1.211105552776388095e+03 1.101113856461836266e-03
1.212006003001500630e+03 1.098431179404805221e-03
1.212906453226613166e+03 1.097901868476496750e-03
1.213806903451725702e+03 1.097134916786388602e-03
1.214707353676838466e+03 1.092256065958645229e-03
1.215607803901951002e+03 1.084762969608864085e-03
1.216508254127063537e+03 1.079864634022188958e-03
1.217408704352176073e+03 1.081454654808141225e-03
1.218309154577288609e+03 1.088939977584129238e-03
1.219209604802401145e+03 1.099120286741905482e-03
1.220110055027513681e+03 1.109722837155838627e-03
1.221010505252626217e+03 1.119513712759816161e-03
1.221910955477738753e+03 1.127153119036049126e-03
1.222811405702851289e+03 1.130909628720693817e-03
1.223711855927963825e+03 1.128166529459899425e-03
1.224612306153076588e+03 1.115446313310659724e-03
1.225512756378189124e+03 1.094021884129970550e-03
1.226413206603301660e+03 1.069825447140889795e-03
1.227313656828414196e+03 1.048108389543164071e-03
1.228214107053526732e+03 1.031849512420445749e-03
1.229114557278639268e+03 1.021001371514108436e-03
1.230015007503751804e+03 1.012335945614349251e-03
1.230915457728864340e+03 1.003034532651385759e-03
1.231815907953976875e+03 9.983202533467891004e-04
1.232716358179089411e+03 1.006524395975444885e-03
1.233616808404201947e+03 1.027155905145529140e-03
1.234517258629314711e+03 1.050972657730300623e-03
1.235417708854427246e+03 1.067785838215450089e-03
1.236318159079539782e+03 1.074485429298927376e-03
1.237218609304652318e+03 1.072685349728342294e-03
1.238119059529764854e+03 1.064572438068016932e-03
1.239019509754877390e+03 1.054277926136197412e-03
1.239919959979989926e+03 1.046605631248999834e-03
1.240820410205102462e+03 1.044640231832828650e-03
1.241720860430214998e+03 1.048439325032406774e-03
1.242621310655327534e+03 1.055101274377612123e-03
1.243521760880440070e+03 1.063096606114964562e-03
1.244422211105552606e+03 1.073326549742933348e-03
1.245322661330665369e+03 1.083712040700755613e-03
1.246223111555777905e+03 1.088841494235010888e-03
1.247123561780890441e+03 1.087421987088122918e-03
1.248024012006002977e+03 1.083634928437130114e-03
1.248924462231115513e+03 1.082867876099818071e-03
1.249824912456228049e+03 1.087438065699093334e-03
1.250725362681340584e+03 1.093840415083185491e-03
1.251625812906453120e+03 1.096674596662401300e-03
1.252526263131565656e+03 1.093195387527080018e-03
1.253426713356678192e+03 1.086011780516882904e-03
1.254327163581790728e+03 1.079177523283132495e-03
1.255227613806903491e+03 1.073619721229736789e-03
1.256128064032016027e+03 1.069791491443577731e-03
1.257028514257128563e+03 1.070507035744289745e-03
1.257928964482241099e+03 1.079237833728380856e-03
1.258829414707353635e+03 1.096297000235470697e-03
1.259729864932466171e+03 1.116497764566317524e-03
1.260630315157578707e+03 1.132158336513769186e-03
1.261530765382691243e+03 1.138730572949362340e-03
1.262431215607803779e+03 1.139593018187270426e-03
1.263331665832916315e+03 1.143587936511556834e-03
1.264232116058028851e+03 1.156325302147196516e-03
1.265132566283141614e+03 1.175396285386521265e-03
1.266033016508254150e+03 1.194072542071611572e-03
1.266933466733366686e+03 1.208319893342442355e-03
1.267833916958479222e+03 1.218651486806105258e-03
1.268734367183591758e+03 1.227099745602025158e-03
1.269634817408704293e+03 1.234653937119859195e-03
1.270535267633816829e+03 1.244809046772141431e-03
1.271435717858929365e+03 1.264078713363807989e-03
1.272336168084041901e+03 1.293486923588086810e-03
1.273236618309154437e+03 1.327476531539680937e-03
1.274137068534266973e+03 1.361076219350888924e-03
1.275037518759379736e+03 1.392204711264809821e-03
1.275937968984492272e+03 1.420176642037086247e-03
1.276838419209604808e+03 1.445275217679921169e-03
1.277738869434717344e+03 1.468174677562309252e-03
1.278639319659829880e+03 1.490168188038758224e-03
1.279539769884942416e+03 1.512399490548193854e-03
1.280440220110054952e+03 1.534947031731080701e-03
1.281340670335167488e+03 1.557902999516100426e-03
1.282241120560280024e+03 1.582501835365707210e-03
1.283141570785392560e+03 1.610643532139301518e-03
1.284042021010505096e+03 1.641729404299551495e-03
1.284942471235617859e+03 1.672365099431364710e-03
1.285842921460730395e+03 1.698364666006692020e-03
1.286743371685842931e+03 1.715442289738333768e-03
1.287643821910955467e+03 1.724405743321790873e-03
1.288544272136068003e+03 1.733917009569347452e-03
1.289444722361180538e+03 1.750564547651592071e-03
1.290345172586293074e+03 1.773359345120170249e-03
1.291245622811405610e+03 1.800629104452549029e-03
1.292146073036518146e+03 1.834272879451763006e-03
1.293046523261630682e+03 1.873152921321222329e-03
1.293946973486743218e+03 1.910095877173816764e-03
1.294847423711855754e+03 1.940871886618076745e-03
1.295747873936968517e+03 1.967707107623414050e-03
1.296648324162081053e+03 1.993681044294755116e-03
1.297548774387193589e+03 2.019240491918847941e-03
1.298449224612306125e+03 2.042512676955559117e-03
1.299349674837418661e+03 2.062228153493530537e-03
1.300250125062531197e+03 2.079454444075491334e-03
1.301150575287643733e+03 2.096410362487065478e-03
1.302051025512756269e+03 2.116543995076422546e-03
1.302951475737868805e+03 2.143222764734121263e-03
1.303851925962981340e+03 2.179829473889893787e-03
1.304752376188093876e+03 2.229473473420769212e-03
1.305652826413206640e+03 2.288766569005591580e-03
1.306553276638319176e+03 2.344311966019661363e-03
1.307453726863431712e+03 2.381480386386443295e-03
1.308354177088544247e+03 2.395214972927427535e-03
1.309254627313656783e+03 2.389093433420454160e-03
1.310155077538769319e+03 2.373301875708560323e-03
1.311055527763881855e+03 2.364139455092228569e-03
1.311955977988994391e+03 2.373751619382148768e-03
1.312856428214106927e+03 2.402280117308549720e-03
1.313756878439219463e+03 2.445026055440511006e-03
1.314657328664331999e+03 2.499882272457070939e-03
1.315557778889444762e+03 2.565762493629164965e-03
1.316458229114557298e+03 2.640243270365421908e-03
1.317358679339669834e+03 2.719873704386599218e-03
1.318259129564782370e+03 2.798011080649587690e-03
1.319159579789894906e+03 2.864685271061631535e-03
1.320060030015007442e+03 2.916664612759341767e-03
1.320960480240119978e+03 2.957978138697689614e-03
1.321860930465232514e+03 2.992006861858150998e-03
1.322761380690345050e+03 3.021717192712686240e-03
1.323661830915457585e+03 3.054380961130086745e-03
1.324562281140570121e+03 3.101472593210236224e-03
1.325462731365682885e+03 3.167915510154929899e-03
1.326363181590795421e+03 3.245843282670174586e-03
1.327263631815907956e+03 3.324802125297492833e-03
1.328164082041020492e+03 3.402874759365178119e-03
1.329064532266133028e+03 3.479611610657069691e-03
1.329964982491245564e+03 3.553284554126594739e-03
1.330865432716358100e+03 3.631131136680158626e-03
1.331765882941470636e+03 3.720451345573568078e-03
1.332666333166583172e+03 3.817036131031087236e-03
1.333566783391695708e+03 3.911815003273742299e-03
1.334467233616808244e+03 3.996870551065814965e-03
1.335367683841921007e+03 4.070651707798063866e-03
1.336268134067033543e+03 4.142103973650242306e-03
1.337168584292146079e+03 4.215375881281441424e-03
1.338069034517258615e+03 4.284100592491592134e-03
1.338969484742371151e+03 4.348401597911547532e-03
1.339869934967483687e+03 4.416717420957171590e-03
1.340770385192596223e+03 4.489565475456542241e-03
1.341670835417708759e+03 4.561055348574846562e-03
1.342571285642821294e+03 4.635688765686456735e-03
1.343471735867933830e+03 4.732627022660793915e-03
1.344372186093046366e+03 4.866566821454460998e-03
1.345272636318158902e+03 5.035121016497324381e-03
1.346173086543271666e+03 5.220284818002720630e-03
1.347073536768384201e+03 5.401267908989031141e-03
1.347973986993496737e+03 5.568564316274065770e-03
1.348874437218609273e+03 5.726512724781944973e-03
1.349774887443721809e+03 5.888129173012331651e-03
1.350675337668834345e+03 6.055469003108234979e-03
1.351575787893946881e+03 6.208303489313995657e-03
1.352476238119059417e+03 6.328016973990162504e-03
1.353376688344171953e+03 6.428828631125612855e-03
1.354277138569284489e+03 6.542895739150980834e-03
1.355177588794397025e+03 6.684879268715423518e-03
1.356078039019509788e+03 6.848759365774743230e-03
1.356978489244622324e+03 7.010323736922546151e-03
1.357878939469734860e+03 7.147166684965548626e-03
1.358779389694847396e+03 7.268315804519107602e-03
1.359679839919959932e+03 7.394626485102798706e-03
1.360580290145072468e+03 7.530643145602856220e-03
1.361480740370185003e+03 7.680236832507488301e-03
1.362381190595297539e+03 7.863588011281414519e-03
1.363281640820410075e+03 8.091282213928303879e-03
1.364182091045522611e+03 8.353018832955874662e-03
1.365082541270635147e+03 8.639578092507231230e-03
1.365982991495747910e+03 8.947712528863062745e-03
1.366883441720860446e+03 9.271032267257173221e-03
1.367783891945972982e+03 9.595148446748186580e-03
1.368684342171085518e+03 9.903441509064126597e-03
1.369584792396198054e+03 1.018625548463977792e-02
1.370485242621310590e+03 1.045198632500649559e-02
1.371385692846423126e+03 1.074072439087009855e-02
1.372286143071535662e+03 1.109040041300093406e-02
1.373186593296648198e+03 1.148312914440972020e-02
1.374087043521760734e+03 1.188341086387977551e-02
1.374987493746873270e+03 1.230046914350475286e-02
1.375887943971986033e+03 1.274577830795553708e-02
1.376788394197098569e+03 1.318909470097208436e-02
1.377688844422211105e+03 1.359025134119410012e-02
1.378589294647323641e+03 1.393347443314289953e-02
1.379489744872436177e+03 1.421126743333173473e-02
1.380390195097548713e+03 1.440879798388931994e-02
1.381290645322661248e+03 1.453643009856772812e-02
1.382191095547773784e+03 1.464377864637980697e-02
1.383091545772886320e+03 1.479256109828669223e-02
1.383991995997998856e+03 1.501512954814596644e-02
1.384892446223111392e+03 1.531442898572438205e-02
1.385792896448224155e+03 1.568757889753599408e-02
1.386693346673336691e+03 1.611487416019330085e-02
1.387593796898449227e+03 1.655354342228619949e-02
1.388494247123561763e+03 1.697653547169462526e-02
1.389394697348674299e+03 1.738719207522708074e-02
1.390295147573786835e+03 1.779668364711356129e-02
1.391195597798899371e+03 1.818418509770037411e-02
1.392096048024011907e+03 1.846182930492196173e-02
1.392996498249124443e+03 1.857331566180876053e-02
1.393896948474236979e+03 1.858612965704544914e-02
1.394797398699349515e+03 1.858657268836559628e-02
1.395697848924462278e+03 1.858564413667044765e-02
1.396598299149574814e+03 1.856219246475977053e-02
1.397498749374687350e+03 1.852317505243132253e-02
1.398399199599799886e+03 1.850167002357650664e-02
1.399299649824912422e+03 1.850727036687671231e-02
1.400200100050024957e+03 1.849028363610708339e-02
1.401100550275137493e+03 1.839304384583510116e-02
1.402001000500250029e+03 1.820660326673442797e-02
1.402901450725362565e+03 1.794902549365378144e-02
1.403801900950475101e+03 1.766917404680883041e-02
1.404702351175587637e+03 1.743859909802934066e-02
1.405602801400700173e+03 1.728181359557736524e-02
1.406503251625812936e+03 1.714547632342610164e-02
1.407403701850925472e+03 1.696148759596412259e-02
1.408304152076038008e+03 1.672615417215080405e-02
1.409204602301150544e+03 1.646951313718810275e-02
1.410105052526263080e+03 1.620410960072681678e-02
1.411005502751375616e+03 1.595335073524850253e-02
1.411905952976488152e+03 1.574081539430822671e-02
1.412806403201600688e+03 1.555136032314908406e-02
1.413706853426713224e+03 1.533003918436393401e-02
1.414607303651825760e+03 1.504738661536231259e-02
1.415507753876938295e+03 1.476288514459092593e-02
1.416408204102051059e+03 1.453959293483821948e-02
1.417308654327163595e+03 1.435518340849924884e-02
1.418209104552276131e+03 1.414178453896414514e-02
1.419109554777388666e+03 1.384521444576686591e-02
1.420010005002501202e+03 1.346453110774480967e-02
1.420910455227613738e+03 1.305578780074658288e-02
1.421810905452726274e+03 1.266700032403446190e-02
1.422711355677838810e+03 1.233407099650195120e-02
1.423611805902951346e+03 1.209104366293809255e-02
1.424512256128063882e+03 1.192136560955987107e-02
1.425412706353176418e+03 1.178021337447253403e-02
1.426313156578289181e+03 1.164031931528121573e-02
1.427213606803401717e+03 1.147729810428641493e-02
1.428114057028514253e+03 1.125675649207275031e-02
1.429014507253626789e+03 1.098105662093133185e-02
1.429914957478739325e+03 1.070866742862861161e-02
1.430815407703851861e+03 1.048932299457341032e-02
1.431715857928964397e+03 1.030250461710117277e-02
1.432616308154076933e+03 1.008429857111903596e-02
1.433516758379189469e+03 9.801909222159881779e-03
1.434417208604302004e+03 9.477074563122536710e-03
1.435317658829414540e+03 9.143600040085634456e-03
1.436218109054527304e+03 8.822646578535625617e-03
1.437118559279639840e+03 8.531150034118582456e-03
1.438019009504752376e+03 8.276839758511738906e-03
1.438919459729864911e+03 8.063360691883814449e-03
1.439819909954977447e+03 7.892125988186719787e-03
1.440720360180089983e+03 7.750692951385096570e-03
1.441620810405202519e+03 7.613348005838028662e-03
1.442521260630315055e+03 7.469198584631961575e-03
1.443421710855427591e+03 7.324786734934633781e-03
1.444322161080540127e+03 7.178267554646712567e-03
1.445222611305652663e+03 7.026845952251449881e-03
1.446123061530765426e+03 6.875631420155493834e-03
1.447023511755877962e+03 6.727117844890088787e-03
1.447923961980990498e+03 6.576413639225645209e-03
1.448824412206103034e+03 6.422810047097293230e-03
1.449724862431215570e+03 6.277347766291015846e-03
1.450625312656328106e+03 6.140709904929492723e-03
1.451525762881440642e+03 6.008046272769965862e-03
1.452426213106553178e+03 5.885261832295551193e-03
1.453326663331665713e+03 5.780840425289732014e-03
1.454227113556778249e+03 5.688658080171860552e-03
1.455127563781890785e+03 5.586289101674036736e-03
1.456028014007003321e+03 5.451301943327499858e-03
1.456928464232116085e+03 5.283719780082685169e-03
1.457828914457228620e+03 5.101473505640072813e-03
1.458729364682341156e+03 4.927511841458287467e-03
1.459629814907453692e+03 4.787051559486094239e-03
1.460530265132566228e+03 4.692319310944267213e-03
1.461430715357678764e+03 4.626332424484063711e-03
1.462331165582791300e+03 4.562375900869965022e-03
1.463231615807903836e+03 4.493842061379167002e-03
1.464132066033016372e+03 4.412918698679398240e-03
1.465032516258128908e+03 4.302581723102462223e-03
1.465932966483241444e+03 4.169765715921693212e-03
1.466833416708354207e+03 4.043556402805760334e-03
1.467733866933466743e+03 3.941930901946477314e-03
1.468634317158579279e+03 3.858528046276320841e-03
1.469534767383691815e+03 3.783487124380714803e-03
1.470435217608804351e+03 3.719098379276400759e-03
1.471335667833916887e+03 3.659440318272174589e-03
1.472236118059029423e+03 3.586010592758816142e-03
1.473136568284141958e+03 3.494505866190373948e-03
1.474037018509254494e+03 3.393265640557954245e-03
1.474937468734367030e+03 3.285441610517296929e-03
1.475837918959479566e+03 3.169682652062332136e-03
1.476738369184592329e+03 3.043795072538257700e-03
1.477638819409704865e+03 2.908407164315441034e-03
1.478539269634817401e+03 2.771434593490373303e-03
1.479439719859929937e+03 2.646171244623332988e-03
1.480340170085042473e+03 2.539435827468133119e-03
1.481240620310155009e+03 2.449241620452062129e-03
1.482141070535267545e+03 2.373819057804755009e-03
1.483041520760380081e+03 2.313479862432977693e-03
1.483941970985492617e+03 2.268011211270647576e-03
1.484842421210605153e+03 2.230049767318887256e-03
1.485742871435717689e+03 2.189475386955039380e-03
1.486643321660830452e+03 2.146634809477895433e-03
1.487543771885942988e+03 2.105561086294133449e-03
1.488444222111055524e+03 2.065026453838310436e-03
1.489344672336168060e+03 2.027208750847266268e-03
1.490245122561280596e+03 1.996024489045396082e-03
1.491145572786393132e+03 1.969852560656066079e-03
1.492046023011505667e+03 1.944413216815236425e-03
1.492946473236618203e+03 1.912719502638733594e-03
1.493846923461730739e+03 1.866146761182843703e-03
1.494747373686843275e+03 1.806725435938515232e-03
1.495647823911955811e+03 1.748785024749930500e-03
1.496548274137068574e+03 1.704090427676526690e-03
1.497448724362181110e+03 1.675318599259726770e-03
1.498349174587293646e+03 1.661432054867241839e-03
1.499249624812406182e+03 1.659365711582097168e-03
1.500150075037518718e+03 1.662043350754910994e-03
1.501050525262631254e+03 1.663403292289273878e-03
1.501950975487743790e+03 1.663000028620887543e-03
1.502851425712856326e+03 1.659887174118364339e-03
1.503751875937968862e+03 1.651583374307322421e-03
1.504652326163081398e+03 1.637666516129014605e-03
1.505552776388193934e+03 1.617421609637269666e-03
1.506453226613306470e+03 1.593076308968777990e-03
1.507353676838419233e+03 1.572961168457067413e-03
1.508254127063531769e+03 1.564309555549319277e-03
1.509154577288644305e+03 1.565474892003035096e-03
1.510055027513756841e+03 1.566945024994902775e-03
1.510955477738869376e+03 1.559339961244972372e-03
1.511855927963981912e+03 1.540265004439976678e-03
1.512756378189094448e+03 1.514608952101202752e-03
1.513656828414206984e+03 1.488061686288208495e-03
1.514557278639319520e+03 1.464653457475918697e-03
1.515457728864432056e+03 1.445558436575720886e-03
1.516358179089544592e+03 1.430105569284179350e-03
1.517258629314657355e+03 1.419549307004613339e-03
1.518159079539769891e+03 1.413959684964092830e-03
1.519059529764882427e+03 1.410793453387732552e-03
1.519959979989994963e+03 1.408383778393057723e-03
1.520860430215107499e+03 1.406122530794598046e-03
1.521760880440220035e+03 1.403952037606468048e-03
1.522661330665332571e+03 1.400145362763615363e-03
1.523561780890445107e+03 1.393199758373697304e-03
1.524462231115557643e+03 1.385723081185738633e-03
1.525362681340670179e+03 1.378626129910411405e-03
1.526263131565782714e+03 1.369985055939534685e-03
1.527163581790895478e+03 1.358450949721650477e-03
1.528064032016008014e+03 1.343826894464727551e-03
1.528964482241120550e+03 1.330003263585073864e-03
1.529864932466233086e+03 1.319820206264920269e-03
1.530765382691345621e+03 1.310049677286560365e-03
1.531665832916458157e+03 1.293933374331194663e-03
1.532566283141570693e+03 1.268082939471303289e-03
1.533466733366683229e+03 1.234188059628976231e-03
1.534367183591795765e+03 1.197614826528760855e-03
1.535267633816908301e+03 1.162789627405853843e-03
1.536168084042020837e+03 1.129869143735306135e-03
1.537068534267133600e+03 1.097772094624321947e-03
1.537968984492246136e+03 1.066140020848049558e-03
1.538869434717358672e+03 1.037863912009971646e-03
1.539769884942471208e+03 1.015687046866001241e-03
1.540670335167583744e+03 9.979598407153353248e-04
1.541570785392696280e+03 9.836475787892559261e-04
1.542471235617808816e+03 9.755954821732180189e-04
1.543371685842921352e+03 9.764893649234917964e-04
1.544272136068033888e+03 9.859847708309742165e-04
1.545172586293146423e+03 9.992677443219845530e-04
1.546073036518258959e+03 1.007829574542240623e-03
1.546973486743371723e+03 1.005644486232771693e-03
1.547873936968484259e+03 9.931863730201946627e-04
1.548774387193596795e+03 9.756589029375644685e-04
1.549674837418709330e+03 9.537858651640120089e-04
1.550575287643821866e+03 9.217022839267686443e-04
1.551475737868934402e+03 8.789790114829200852e-04
1.552376188094046938e+03 8.344162763314377004e-04
1.553276638319159474e+03 7.955089121891680600e-04
1.554177088544272010e+03 7.633136732813938004e-04
1.555077538769384546e+03 7.368300467760649595e-04
1.555977988994497082e+03 7.175177597878305055e-04
1.556878439219609618e+03 7.059167035220096460e-04
1.557778889444722381e+03 6.982431555862487213e-04
1.558679339669834917e+03 6.910383421082328488e-04
1.559579789894947453e+03 6.838456402448533184e-04
1.560480240120059989e+03 6.772996827927150760e-04
1.561380690345172525e+03 6.718360263894216635e-04
1.562281140570285061e+03 6.642035528435796549e-04
1.563181590795397597e+03 6.481098503952567201e-04
1.564082041020510133e+03 6.229758236060940280e-04
1.564982491245622668e+03 5.963252211917696331e-04
1.565882941470735204e+03 5.714905625065395218e-04
1.566783391695847740e+03 5.451900383555865863e-04
1.567683841920960504e+03 5.152074813273497785e-04
1.568584292146073039e+03 4.808457774959140943e-04
1.569484742371185575e+03 4.414374104336102572e-04
1.570385192596298111e+03 3.971224659230784089e-04
1.571285642821410647e+03 3.517585796724249990e-04
1.572186093046523183e+03 3.112332040080080303e-04
1.573086543271635719e+03 2.783483813429188706e-04
1.573986993496748255e+03 2.518120471261225241e-04
1.574887443721860791e+03 2.293461127317325142e-04
1.575787893946973327e+03 2.099113238437568950e-04
1.576688344172085863e+03 1.941934996441067169e-04
1.577588794397198626e+03 1.826322705938680682e-04
1.578489244622311162e+03 1.737561547143123331e-04
1.579389694847423698e+03 1.653578211657721084e-04
1.580290145072536234e+03 1.569209553777069677e-04
1.581190595297648770e+03 1.487085779165574911e-04
1.582091045522761306e+03 1.402899028098841816e-04
1.582991495747873842e+03 1.319114397170955170e-04
1.583891945972986377e+03 1.244023687266489241e-04
1.584792396198098913e+03 1.181755811900653117e-04
1.585692846423211449e+03 1.133600482274241147e-04
1.586593296648323985e+03 1.099246804632366472e-04
1.587493746873436749e+03 1.075361323462906463e-04
1.588394197098549284e+03 1.057595214926140674e-04
1.589294647323661820e+03 1.045432835543585331e-04
1.590195097548774356e+03 1.042019754994031932e-04
1.591095547773886892e+03 1.050630566734463655e-04
1.591995997998999428e+03 1.067545414435606288e-04
1.592896448224111964e+03 1.076342800356249715e-04
1.593796898449224500e+03 1.062042303678906315e-04
1.594697348674337036e+03 1.029901095660297396e-04
1.595597798899449572e+03 9.935673534963661269e-05
1.596498249124562108e+03 9.593451633256499449e-05
1.597398699349674871e+03 9.277299403623670429e-05
1.598299149574787407e+03 8.982712391500632704e-05
1.599199599799899943e+03 8.697901573267599422e-05
1.600100050025012479e+03 8.434712192641708004e-05
1.601000500250125015e+03 8.249713822785119594e-05
1.601900950475237551e+03 8.175826207001861206e-05
1.602801400700350086e+03 8.165940527666610714e-05
1.603701850925462622e+03 8.107014008391851293e-05
1.604602301150575158e+03 7.934269267048401329e-05
1.605502751375687694e+03 7.683029636671402846e-05
1.606403201600800230e+03 7.399771611911903121e-05
1.607303651825912766e+03 7.134352062250696297e-05
1.608204102051025529e+03 6.934159655442285694e-05
1.609104552276138065e+03 6.796238458528437894e-05
1.610005002501250601e+03 6.662979512658794565e-05
1.610905452726363137e+03 6.482839599155893037e-05
1.611805902951475673e+03 6.276446448674414928e-05
1.612706353176588209e+03 6.096084694098843708e-05
1.613606803401700745e+03 5.969338728329789875e-05
1.614507253626813281e+03 5.901000204410993661e-05
1.615407703851925817e+03 5.883779870272836440e-05
1.616308154077038353e+03 5.894614321605786306e-05
1.617208604302150889e+03 5.895195143346276817e-05
1.618109054527263652e+03 5.853420865050570584e-05
1.619009504752376188e+03 5.758414932844204364e-05
1.619909954977488724e+03 5.618671688561426025e-05
1.620810405202601260e+03 5.453446748773767223e-05
1.621710855427713796e+03 5.289085311809238840e-05
1.622611305652826331e+03 5.151856380269388664e-05
1.623511755877938867e+03 5.053846946299730871e-05
1.624412206103051403e+03 4.995495154287340876e-05
1.625312656328163939e+03 4.969905729351591241e-05
1.626213106553276475e+03 4.956584551232193073e-05
1.627113556778389011e+03 4.921650561199565567e-05
1.628014007003501774e+03 4.853352552576174663e-05
1.628914457228614310e+03 4.781126837127364299e-05
1.629814907453726846e+03 4.737262491012643933e-05
1.630715357678839382e+03 4.733412095922632975e-05
1.631615807903951918e+03 4.757294868758878440e-05
1.632516258129064454e+03 4.763638372198241409e-05
1.633416708354176990e+03 4.698268307059165141e-05
1.634317158579289526e+03 4.567205880087591742e-05
1.635217608804402062e+03 4.423878151260046899e-05
1.636118059029514598e+03 4.301697605657949625e-05
1.637018509254627133e+03 4.206305401473104272e-05
1.637918959479739897e+03 4.134228673156315999e-05
1.638819409704852433e+03 4.081690661087800185e-05
1.639719859929964969e+03 4.046361125106799243e-05
1.640620310155077505e+03 4.027785452515513865e-05
1.641520760380190040e+03 4.027667322746277613e-05
1.642421210605302576e+03 4.050313657775418056e-05
1.643321660830415112e+03 4.103478287121390793e-05
1.644222111055527648e+03 4.199584394649385946e-05
1.645122561280640184e+03 4.356363544765159312e-05
1.646023011505752720e+03 4.592404783232409611e-05
1.646923461730865256e+03 4.903745554246114597e-05
1.647823911955978019e+03 5.205148283941434537e-05
1.648724362181090555e+03 5.305313271991432474e-05
1.649624812406203091e+03 5.095199535063341090e-05
1.650525262631315627e+03 4.712535538081702577e-05
1.651425712856428163e+03 4.338954001445510984e-05
1.652326163081540699e+03 4.043736012828341502e-05
1.653226613306653235e+03 3.824599643654697959e-05
1.654127063531765771e+03 3.661921954489908879e-05
1.655027513756878307e+03 3.538125785960625206e-05
1.655927963981990843e+03 3.440789364857909136e-05
1.656828414207103378e+03 3.361674574058112883e-05
1.657728864432216142e+03 3.295373113392469853e-05
1.658629314657328678e+03 3.238298861055962258e-05
1.659529764882441214e+03 3.188031342650395468e-05
1.660430215107553749e+03 3.142903249208143357e-05
1.661330665332666285e+03 3.101742095375940378e-05
1.662231115557778821e+03 3.063706732269600694e-05
1.663131565782891357e+03 3.028182220262295819e-05
1.664032016008003893e+03 2.994710995702994471e-05
1.664932466233116429e+03 2.962946960567936573e-05
1.665832916458228965e+03 2.932624302712905396e-05
1.666733366683341501e+03 2.903535951330746942e-05
1.667633816908454037e+03 2.875518445313185066e-05
1.668534267133566800e+03 2.848441141807480327e-05
1.669434717358679336e+03 2.822198409200379858e-05
1.670335167583791872e+03 2.796703903254123562e-05
1.671235617808904408e+03 2.771886317930488295e-05
1.672136068034016944e+03 2.747686194061204726e-05
1.673036518259129480e+03 2.724053496321518215e-05
1.673936968484242016e+03 2.700945754747895115e-05
1.674837418709354552e+03 2.678326625638521646e-05
1.675737868934467087e+03 2.656164767220293307e-05
1.676638319159579623e+03 2.634432953860525302e-05
1.677538769384692159e+03 2.613107372719891095e-05
1.678439219609804923e+03 2.592167061149800513e-05
1.679339669834917459e+03 2.571593453562254650e-05
1.680240120060029994e+03 2.551370014118163496e-05
1.681140570285142530e+03 2.531481937196890356e-05
1.682041020510255066e+03 2.511915901789487155e-05
1.682941470735367602e+03 2.492659869093383904e-05
1.683841920960480138e+03 2.473702914958284362e-05
1.684742371185592674e+03 2.455035090641117778e-05
1.685642821410705210e+03 2.436647306716298460e-05
1.686543271635817746e+03 2.418531236063164631e-05
1.687443721860930282e+03 2.400679232690714832e-05
1.688344172086043045e+03 2.383084263819266490e-05
1.689244622311155581e+03 2.365739853161740627e-05
1.690145072536268117e+03 2.348640033766127776e-05
1.691045522761380653e+03 2.331779309120285613e-05
1.691945972986493189e+03 2.315152621498755124e-05
1.692846423211605725e+03 2.298755326764142324e-05
1.693746873436718261e+03 2.282583175035164343e-05
1.694647323661830796e+03 2.266632296806576663e-05
1.695547773886943332e+03 2.250899194265593953e-05
1.696448224112055868e+03 2.235380737697276719e-05
1.697348674337168404e+03 2.220074167018071582e-05
1.698249124562281168e+03 2.204977098626740130e-05
1.699149574787393703e+03 2.190087537923299206e-05
1.700050025012506239e+03 2.175403898026304010e-05
1.700950475237618775e+03 2.160925025426032722e-05
1.701850925462731311e+03 2.146650233557813038e-05
1.702751375687843847e+03 2.132579345577876516e-05
1.703651825912956383e+03 2.118712747993307564e-05
1.704552276138068919e+03 2.105051457260192216e-05
1.705452726363181455e+03 2.091597202050802398e-05
1.706353176588293991e+03 2.078352524643863901e-05
1.707253626813406527e+03 2.065320905865461790e-05
1.708154077038519290e+03 2.052506919281513396e-05
1.709054527263631826e+03 2.039916422019028477e-05
1.709954977488744362e+03 2.027556791820482547e-05
1.710855427713856898e+03 2.015437222920947512e-05
1.711755877938969434e+03 2.003569097373391217e-05
1.712656328164081970e+03 1.991966453954863367e-05
1.713556778389194506e+03 1.980646584374165346e-05
1.714457228614307041e+03 1.969630797063375566e-05
1.715357678839419577e+03 1.958945403691258138e-05
1.716258129064532113e+03 1.948623004673516682e-05
1.717158579289644649e+03 1.938704180383081922e-05
1.718059029514757185e+03 1.929239739125164385e-05
1.718959479739869948e+03 1.920293738481738813e-05
1.719859929964982484e+03 1.911947594822441975e-05
1.720760380190095020e+03 1.904305745080453081e-05
1.721660830415207556e+03 1.897503555427948490e-05
1.722561280640320092e+03 1.891718533195044144e-05
1.723461730865432628e+03 1.887186475221706462e-05
1.724362181090545164e+03 1.884225120798807635e-05
1.725262631315657700e+03 1.883269416046508981e-05
1.726163081540770236e+03 1.884925061299772613e-05
1.727063531765882772e+03 1.890051318718479316e-05
1.727963981990995308e+03 1.899891250480964909e-05
1.728864432216108071e+03 1.916279191853717924e-05
1.729764882441220607e+03 1.941972175930264870e-05
1.730665332666333143e+03 1.981168139863158424e-05
1.731565782891445679e+03 2.040249029012939703e-05
1.732466233116558215e+03 2.128542711297514545e-05
1.733366683341670750e+03 2.257776592556665066e-05
1.734267133566783286e+03 2.435178671604031964e-05
1.735167583791895822e+03 2.638992142895194197e-05
1.736068034017008358e+03 2.782191349613064404e-05
1.736968484242120894e+03 2.755518185040272018e-05
1.737868934467233430e+03 2.573011373708555171e-05
1.738769384692346193e+03 2.350129127674148999e-05
1.739669834917458729e+03 2.161400487140122898e-05
1.740570285142571265e+03 2.020643955202289159e-05
1.741470735367683801e+03 1.918730832228334479e-05
1.742371185592796337e+03 1.844146624925797090e-05
1.743271635817908873e+03 1.788111426563891628e-05
1.744172086043021409e+03 1.744687112485580530e-05
1.745072536268133945e+03 1.709974836032402741e-05
1.745972986493246481e+03 1.681409076366691916e-05
1.746873436718359017e+03 1.657276981818255800e-05
1.747773886943471553e+03 1.636413012091201874e-05
1.748674337168584316e+03 1.618007914827135257e-05
1.749574787393696852e+03 1.601488602228578223e-05
1.750475237618809388e+03 1.586441561567071340e-05
1.751375687843921924e+03 1.572563171408362026e-05
1.752276138069034459e+03 1.559626875093558305e-05
1.753176588294146995e+03 1.547461092741217256e-05
1.754077038519259531e+03 1.535934095331798407e-05
1.754977488744372067e+03 1.524943472435685352e-05
1.755877938969484603e+03 1.514408682892456320e-05
1.756778389194597139e+03 1.504265708445223571e-05
1.757678839419709675e+03 1.494463164065236236e-05
1.758579289644822438e+03 1.484959432013596639e-05
1.759479739869934974e+03 1.475720525216757184e-05
1.760380190095047510e+03 1.466718476882826414e-05
1.761280640320160046e+03 1.457930114414330382e-05
1.762181090545272582e+03 1.449336117148984919e-05
1.763081540770385118e+03 1.440920285976165323e-05
1.763981990995497654e+03 1.432668972728893065e-05
1.764882441220610190e+03 1.424570631235742404e-05
1.765782891445722726e+03 1.416615461880992392e-05
1.766683341670835262e+03 1.408795128696256755e-05
1.767583791895947797e+03 1.401102533227930252e-05
1.768484242121060333e+03 1.393531633262043868e-05
1.769384692346173097e+03 1.386077297336519363e-05
1.770285142571285633e+03 1.378735188107259978e-05
1.771185592796398169e+03 1.371501669252942012e-05
1.772086043021510704e+03 1.364373731844822397e-05
1.772986493246623240e+03 1.357348937072419953e-05
1.773886943471735776e+03 1.350425372977550165e-05
1.774787393696848312e+03 1.343601623463518238e-05
1.775687843921960848e+03 1.336876748354414467e-05
1.776588294147073384e+03 1.330250273713985889e-05
1.777488744372185920e+03 1.323722192021942640e-05
1.778389194597298456e+03 1.317292972168438848e-05
1.779289644822411219e+03 1.310963579587358167e-05
1.780190095047523755e+03 1.304735507224029253e-05
1.781090545272636291e+03 1.298610818446120361e-05
1.781990995497748827e+03 1.292592203479928260e-05
1.782891445722861363e+03 1.286683051518743319e-05
1.783791895947973899e+03 1.280887541340405922e-05
1.784692346173086435e+03 1.275210754134777097e-05
1.785592796398198971e+03 1.269658813341734220e-05
1.786493246623311506e+03 1.264239057718390217e-05
1.787393696848424042e+03 1.258960255706632139e-05
1.788294147073536578e+03 1.253832871616083066e-05
1.789194597298649342e+03 1.248869397393684683e-05
1.790095047523761878e+03 1.244084768132047325e-05
1.790995497748874413e+03 1.239496885418262349e-05
1.791895947973986949e+03 1.235127280785369227e-05
1.792796398199099485e+03 1.231001962833317314e-05
1.793696848424212021e+03 1.227152507414931609e-05
1.794597298649324557e+03 1.223617472690191206e-05
1.795497748874437093e+03 1.220444252946131108e-05
1.796398199099549629e+03 1.217691531617460516e-05
1.797298649324662165e+03 1.215432562305468627e-05
1.798199099549774701e+03 1.213759608404391975e-05
1.799099549774887464e+03 1.212790025774517294e-05
1.800000000000000000e+03 1.212674708877813868e-05
