0.000000000000000000e+00 6.564985644703172103e-04
9.004502251125562351e-01 8.676002133833606239e-04
1.800900450225112470e+00 1.113992349392596950e-03
2.701350675337668594e+00 1.318686968108006424e-03
3.601800900450224940e+00 1.392937266091511146e-03
4.502251125562780842e+00 1.365774751730153757e-03
5.402701350675337189e+00 1.342456891332129316e-03
6.303151575787893535e+00 1.350252869939697455e-03
7.203601800900449881e+00 1.310880507432309440e-03
8.104052026013006227e+00 1.159315449312560420e-03
9.004502251125561685e+00 9.400191927711054477e-04
9.904952476238118919e+00 7.269138959809885508e-04
1.080540270135067438e+01 5.549331470212254562e-04
1.170585292646323161e+01 4.275159799503447768e-04
1.260630315157578707e+01 3.357224575221873404e-04
1.350675337668834430e+01 2.693457086344472817e-04
1.440720360180089976e+01 2.204586496708816354e-04
1.530765382691345522e+01 1.836831838781046605e-04
1.620810405202601245e+01 1.555317866025524747e-04
1.710855427713856969e+01 1.336225923024511066e-04
1.800900450225112337e+01 1.162104695614313369e-04
1.890945472736368060e+01 1.020406204955670831e-04
1.980990495247623784e+01 9.033918103690141590e-05
2.071035517758879507e+01 8.068133396130862172e-05
2.161080540270134875e+01 7.273441210610680652e-05
2.251125562781390599e+01 6.614913201176231370e-05
2.341170585292646322e+01 6.061325151955490267e-05
2.431215607803901690e+01 5.594425327704382006e-05
2.521260630315157414e+01 5.207765073944472747e-05
2.611305652826413137e+01 4.884404211328433797e-05
2.701350675337668861e+01 4.589410672924726424e-05
2.791395697848924229e+01 4.302348157187603619e-05
2.881440720360179952e+01 4.028708578553862789e-05
2.971485742871435676e+01 3.773243926846155452e-05
3.061530765382691044e+01 3.534951798972944109e-05
3.151575787893946767e+01 3.310396698785080644e-05
3.241620810405202491e+01 3.099011768124190080e-05
3.331665832916458214e+01 2.907753273232191276e-05
3.421710855427713938e+01 2.740776843970398597e-05
3.511755877938969661e+01 2.592616525260519806e-05
3.601800900450224674e+01 2.456767443696313604e-05
3.691845922961480397e+01 2.333969198774023921e-05
3.781890945472736121e+01 2.226194886748324899e-05
3.871935967983991844e+01 2.132727356224752542e-05
3.961980990495247568e+01 2.054170108778423097e-05
4.052026013006503291e+01 1.990530049638185338e-05
4.142071035517759015e+01 1.940041813971245767e-05
4.232116058029014027e+01 1.903879820153792974e-05
4.322161080540269751e+01 1.888517539752195573e-05
4.412206103051525474e+01 1.901017821773313220e-05
4.502251125562781198e+01 1.939716825451600634e-05
4.592296148074036921e+01 1.990551417278270291e-05
4.682341170585292645e+01 2.037863601408534153e-05
4.772386193096548368e+01 2.074936463537613394e-05
4.862431215607803381e+01 2.090456876274758758e-05
4.952476238119059104e+01 2.065730656384614925e-05
5.042521260630314828e+01 1.991224022730209942e-05
5.132566283141570551e+01 1.884327242215418687e-05
5.222611305652826275e+01 1.775226226815621679e-05
5.312656328164081998e+01 1.678001368491024230e-05
5.402701350675337721e+01 1.594881775276421992e-05
5.492746373186592734e+01 1.526281996841672350e-05
5.582791395697848458e+01 1.464788587296543669e-05
5.672836418209104181e+01 1.398115495246297395e-05
5.762881440720359905e+01 1.326318842179546616e-05
5.852926463231615628e+01 1.260147683498991809e-05
5.942971485742871351e+01 1.207922903795215364e-05
6.033016508254127075e+01 1.172328440285979944e-05
6.123061530765382088e+01 1.152619947639282431e-05
6.213106553276637811e+01 1.146123317880017458e-05
6.303151575787893535e+01 1.149981082368239047e-05
6.393196598299149258e+01 1.159931440152407548e-05
6.483241620810404982e+01 1.167479910603750106e-05
6.573286643321659994e+01 1.166648076077892610e-05
6.663331665832916428e+01 1.159147855581965274e-05
6.753376688344171441e+01 1.148557580946775151e-05
6.843421710855427875e+01 1.136450418520839428e-05
6.933466733366682888e+01 1.122440440811856127e-05
7.023511755877939322e+01 1.108497103206728715e-05
7.113556778389194335e+01 1.100081739399064450e-05
7.203601800900449348e+01 1.096145334815477978e-05
7.293646823411705782e+01 1.089042624619700173e-05
7.383691845922960795e+01 1.079507292286523147e-05
7.473736868434217229e+01 1.076921455978707501e-05
7.563781890945472242e+01 1.086859485435561130e-05
7.653826913456728676e+01 1.102789386956445471e-05
7.743871935967983688e+01 1.108956967890755091e-05
7.833916958479238701e+01 1.098501361792874412e-05
7.923961980990495135e+01 1.080316353960420316e-05
8.014007003501750148e+01 1.066159527026507696e-05
8.104052026013006582e+01 1.065220211070081439e-05
8.194097048524261595e+01 1.083022550453345400e-05
8.284142071035518029e+01 1.115718929995742667e-05
8.374187093546773042e+01 1.150258386277568387e-05
8.464232116058028055e+01 1.176613644540749215e-05
8.554277138569284489e+01 1.196089586680016762e-05
8.644322161080539502e+01 1.211819135546406686e-05
8.734367183591795936e+01 1.218074820334126000e-05
8.824412206103050949e+01 1.207382080321822586e-05
8.914457228614307382e+01 1.185842680564580881e-05
9.004502251125562395e+01 1.165204493128698411e-05
9.094547273636817408e+01 1.151232606666420108e-05
9.184592296148073842e+01 1.143788083014976085e-05
9.274637318659328855e+01 1.144248647647428233e-05
9.364682341170585289e+01 1.157203312194838435e-05
9.454727363681840302e+01 1.182023687682968007e-05
9.544772386193096736e+01 1.211024246418070219e-05
9.634817408704351749e+01 1.237168247460782514e-05
9.724862431215606762e+01 1.262752588633655742e-05
9.814907453726863196e+01 1.287981307695881876e-05
9.904952476238118209e+01 1.301468951542537345e-05
9.994997498749374643e+01 1.298587766754631595e-05
1.008504252126062966e+02 1.291523981503207601e-05
1.017508754377188609e+02 1.290945342106450510e-05
1.026513256628314110e+02 1.297690172387479086e-05
1.035517758879439612e+02 1.314639716895275275e-05
1.044522261130565255e+02 1.344669268977187105e-05
1.053526763381690756e+02 1.382006810749805502e-05
1.062531265632816400e+02 1.421629982674662032e-05
1.071535767883941901e+02 1.457772329551657713e-05
1.080540270135067544e+02 1.474105854276747787e-05
1.089544772386193046e+02 1.460176789239903521e-05
1.098549274637318547e+02 1.423887029245396431e-05
1.107553776888444190e+02 1.378550725696180299e-05
1.116558279139569692e+02 1.328730147108678252e-05
1.125562781390695335e+02 1.274329214784353303e-05
1.134567283641820836e+02 1.221940424504168789e-05
1.143571785892946480e+02 1.180068899043460120e-05
1.152576288144071981e+02 1.151684570189697494e-05
1.161580790395197482e+02 1.132970021422592259e-05
1.170585292646323126e+02 1.116309249501742632e-05
1.179589794897448627e+02 1.101760677347998825e-05
1.188594297148574270e+02 1.097826895881265340e-05
1.197598799399699772e+02 1.111648104001583447e-05
1.206603301650825415e+02 1.142194405447966015e-05
1.215607803901950916e+02 1.183073981168268629e-05
1.224612306153076418e+02 1.228454633255334440e-05
1.233616808404202061e+02 1.277154028861994517e-05
1.242621310655327562e+02 1.332773163770146418e-05
1.251625812906453206e+02 1.389868119253795738e-05
1.260630315157578707e+02 1.425401701507757363e-05
1.269634817408704350e+02 1.425107983391453367e-05
1.278639319659829852e+02 1.404170685304617255e-05
1.287643821910955353e+02 1.385935069777297517e-05
1.296648324162080996e+02 1.377790893275649745e-05
1.305652826413206640e+02 1.374398981478138084e-05
1.314657328664331999e+02 1.372364025243416293e-05
1.323661830915457642e+02 1.373959205001819457e-05
1.332666333166583286e+02 1.383863047395551399e-05
1.341670835417708929e+02 1.401963051547884831e-05
1.350675337668834288e+02 1.418484563813256222e-05
1.359679839919959932e+02 1.426214456436918321e-05
1.368684342171085575e+02 1.429254715221985831e-05
1.377688844422210934e+02 1.435712306832559393e-05
1.386693346673336578e+02 1.457501536416372770e-05
1.395697848924462221e+02 1.505820302378203306e-05
1.404702351175587864e+02 1.579338695592661727e-05
1.413706853426713224e+02 1.659227252561930275e-05
1.422711355677838867e+02 1.726848630252483135e-05
1.431715857928964510e+02 1.782862090984720511e-05
1.440720360180089870e+02 1.820377705227094919e-05
1.449724862431215513e+02 1.818279352885762343e-05
1.458729364682341156e+02 1.779570540674731182e-05
1.467733866933466800e+02 1.726094841309939207e-05
1.476738369184592159e+02 1.671693494778645804e-05
1.485742871435717802e+02 1.628974308504408847e-05
1.494747373686843446e+02 1.608151622525045069e-05
1.503751875937968805e+02 1.604775362331549004e-05
1.512756378189094448e+02 1.607672362215168760e-05
1.521760880440220092e+02 1.611538034108636819e-05
1.530765382691345735e+02 1.614264931869896968e-05
1.539769884942471094e+02 1.616539848790137304e-05
1.548774387193596738e+02 1.620685428111662485e-05
1.557778889444722381e+02 1.626417685114504174e-05
1.566783391695847740e+02 1.636825654609011687e-05
1.575787893946973384e+02 1.663457506192448141e-05
1.584792396198099027e+02 1.709740673482649246e-05
1.593796898449224670e+02 1.758212779359946904e-05
1.602801400700350030e+02 1.790123979145172674e-05
1.611805902951475673e+02 1.798750746021544929e-05
1.620810405202601316e+02 1.785630311801665872e-05
1.629814907453726676e+02 1.764828268960672659e-05
1.638819409704852319e+02 1.756564330958373306e-05
1.647823911955977962e+02 1.772704145924682074e-05
1.656828414207103606e+02 1.816186810450363059e-05
1.665832916458228965e+02 1.880865194491071899e-05
1.674837418709354608e+02 1.950010643211368147e-05
1.683841920960480252e+02 2.007992591894982125e-05
1.692846423211605611e+02 2.045472832464547452e-05
1.701850925462731254e+02 2.052377414042711606e-05
1.710855427713856898e+02 2.026929262295658541e-05
1.719859929964982541e+02 1.987579925063703650e-05
1.728864432216107900e+02 1.947045476257540069e-05
1.737868934467233544e+02 1.900548271395010908e-05
1.746873436718359187e+02 1.858090081759012971e-05
1.755877938969484546e+02 1.844339133897987060e-05
1.764882441220610190e+02 1.868132855975086773e-05
1.773886943471735833e+02 1.918449489882415946e-05
1.782891445722861476e+02 1.980423851805021573e-05
1.791895947973986836e+02 2.042787559860286247e-05
1.800900450225112479e+02 2.098596431362931408e-05
1.809904952476238122e+02 2.135880914095830775e-05
1.818909454727363482e+02 2.139018032663095038e-05
1.827913956978489125e+02 2.107393519233687656e-05
1.836918459229614768e+02 2.063441428367027199e-05
1.845922961480740412e+02 2.039993167202549043e-05
1.854927463731865771e+02 2.053248041872623360e-05
1.863931965982991414e+02 2.094309959577356616e-05
1.872936468234117058e+02 2.143037863758050741e-05
1.881940970485242417e+02 2.176688659437818940e-05
1.890945472736368060e+02 2.178088356353675620e-05
1.899949974987493704e+02 2.155708420488886421e-05
1.908954477238619347e+02 2.139834982244411151e-05
1.917958979489744706e+02 2.156972919429425771e-05
1.926963481740870350e+02 2.211873717477574501e-05
1.935967983991995993e+02 2.279957759466510979e-05
1.944972486243121352e+02 2.330172929723172185e-05
1.953976988494246996e+02 2.356635265751120292e-05
1.962981490745372639e+02 2.368684880144827974e-05
1.971985992996498283e+02 2.368880241284911491e-05
1.980990495247623642e+02 2.361023881236741609e-05
1.989994997498749285e+02 2.366724813200322451e-05
1.998999499749874929e+02 2.401380256344314777e-05
2.008004002001000288e+02 2.444404934584982968e-05
2.017008504252125931e+02 2.458702658446103591e-05
2.026013006503251574e+02 2.428201444404488689e-05
2.035017508754377218e+02 2.376290910505596203e-05
2.044022011005502577e+02 2.344308314925862608e-05
2.053026513256628220e+02 2.352131299968893239e-05
2.062031015507753864e+02 2.391304734559798886e-05
2.071035517758879223e+02 2.439813322892533443e-05
2.080040020010004866e+02 2.471408941595301591e-05
2.089044522261130510e+02 2.472496775096494134e-05
2.098049024512256153e+02 2.451228164972580110e-05
2.107053526763381512e+02 2.421711967195664544e-05
2.116058029014507156e+02 2.396536798558349086e-05
2.125062531265632799e+02 2.382227351779418840e-05
2.134067033516758158e+02 2.378561292074682389e-05
2.143071535767883802e+02 2.384242421800926502e-05
2.152076038019009445e+02 2.394598202638158131e-05
2.161080540270135089e+02 2.396902427985196020e-05
2.170085042521260448e+02 2.371533794636290955e-05
2.179089544772386091e+02 2.323013218072621301e-05
2.188094047023511735e+02 2.283000233356480225e-05
2.197098549274637094e+02 2.270344179854962737e-05
2.206103051525762737e+02 2.282126206599263227e-05
2.215107553776888381e+02 2.307820052411765051e-05
2.224112056028014024e+02 2.339382978299638116e-05
2.233116558279139383e+02 2.372181284197468667e-05
2.242121060530265027e+02 2.401860595410027101e-05
2.251125562781390670e+02 2.417592364365929610e-05
2.260130065032516029e+02 2.411875103431080714e-05
2.269134567283641672e+02 2.395924160376316855e-05
2.278139069534767316e+02 2.390429191919246960e-05
2.287143571785892959e+02 2.400906320262179963e-05
2.296148074037018318e+02 2.416017180790026923e-05
2.305152576288143962e+02 2.423116040452369095e-05
2.314157078539269605e+02 2.415677351984271549e-05
2.323161580790394964e+02 2.394367480774293574e-05
2.332166083041520608e+02 2.372267946433414935e-05
2.341170585292646251e+02 2.369322976299492381e-05
2.350175087543771895e+02 2.392899084555358396e-05
2.359179589794897254e+02 2.433423758108049158e-05
2.368184092046022897e+02 2.479577750511981183e-05
2.377188594297148541e+02 2.523554184231907815e-05
2.386193096548273900e+02 2.558858801597154630e-05
2.395197598799399543e+02 2.581838348885051365e-05
2.404202101050525187e+02 2.599506216662300599e-05
2.413206603301650830e+02 2.625441114143121961e-05
2.422211105552776189e+02 2.668223109545123640e-05
2.431215607803901833e+02 2.718004015923627847e-05
2.440220110055027476e+02 2.758540689130181806e-05
2.449224612306152835e+02 2.791937301890447623e-05
2.458229114557278479e+02 2.833309999342658540e-05
2.467233616808404122e+02 2.885877516006456534e-05
2.476238119059529765e+02 2.935850514028563794e-05
2.485242621310655124e+02 2.980010220598689141e-05
2.494247123561780768e+02 3.030449779148723310e-05
2.503251625812906411e+02 3.095230048750962146e-05
2.512256128064031770e+02 3.167395683668622461e-05
2.521260630315157414e+02 3.229883027103923207e-05
2.530265132566283057e+02 3.272413064767766756e-05
2.539269634817408701e+02 3.293226132463925119e-05
2.548274137068534060e+02 3.297142830430923493e-05
2.557278639319659703e+02 3.301685237573744671e-05
2.566283141570785347e+02 3.328503817884075560e-05
2.575287643821910706e+02 3.378470912756081717e-05
2.584292146073036633e+02 3.434225220363282613e-05
2.593296648324161993e+02 3.475869414384347394e-05
2.602301150575287352e+02 3.488701395439793300e-05
2.611305652826413279e+02 3.474285196377466180e-05
2.620310155077538639e+02 3.436811049994408147e-05
2.629314657328663998e+02 3.376798019741768226e-05
2.638319159579789925e+02 3.313858419540740863e-05
2.647323661830915285e+02 3.277644412563543056e-05
2.656328164082040644e+02 3.284030127926189130e-05
2.665332666333166571e+02 3.326319926702019184e-05
2.674337168584291931e+02 3.376072345267922144e-05
2.683341670835417858e+02 3.401619687757788748e-05
2.692346173086543217e+02 3.396516729006295086e-05
2.701350675337668577e+02 3.368469340586518156e-05
2.710355177588794504e+02 3.321162449897346652e-05
2.719359679839919863e+02 3.262334108598615866e-05
2.728364182091045222e+02 3.206560467113485759e-05
2.737368684342171150e+02 3.172237569057353220e-05
2.746373186593296509e+02 3.174125422420939210e-05
2.755377688844421868e+02 3.209503268284533205e-05
2.764382191095547796e+02 3.256616241683020838e-05
2.773386693346673155e+02 3.290758421327386274e-05
2.782391195597798514e+02 3.313805732582665554e-05
2.791395697848924442e+02 3.350249104691278618e-05
2.800400200100049801e+02 3.423218503548110524e-05
2.809404702351175729e+02 3.533829587505058785e-05
2.818409204602301088e+02 3.654675302764061486e-05
2.827413706853426447e+02 3.759691335432141843e-05
2.836418209104552375e+02 3.830674597618663382e-05
2.845422711355677734e+02 3.854941097956500218e-05
2.854427213606803093e+02 3.857498384133194386e-05
2.863431715857929021e+02 3.879362162961080932e-05
2.872436218109054380e+02 3.935350411467523657e-05
2.881440720360179739e+02 4.009631627002011880e-05
2.890445222611305667e+02 4.077823963443619052e-05
2.899449724862431026e+02 4.123124927740381870e-05
2.908454227113556385e+02 4.134675268049921299e-05
2.917458729364682313e+02 4.118193835919664407e-05
2.926463231615807672e+02 4.090976639219021322e-05
2.935467733866933600e+02 4.054058620768454142e-05
2.944472236118058959e+02 3.989780391028109830e-05
2.953476738369184318e+02 3.886816965110160595e-05
2.962481240620310246e+02 3.746970865475836553e-05
2.971485742871435605e+02 3.587086656465250097e-05
2.980490245122560964e+02 3.443680026585023722e-05
2.989494747373686891e+02 3.348915199050329683e-05
2.998499249624812251e+02 3.310888799007270398e-05
3.007503751875937610e+02 3.319876987734269301e-05
3.016508254127063537e+02 3.354539502581080698e-05
3.025512756378188897e+02 3.395243864332699290e-05
3.034517258629314256e+02 3.442101717601116396e-05
3.043521760880440183e+02 3.506805893167649126e-05
3.052526263131565543e+02 3.589745998578038733e-05
3.061530765382691470e+02 3.685365005444735147e-05
3.070535267633816829e+02 3.799768729478177867e-05
3.079539769884942189e+02 3.940584283067065895e-05
3.088544272136068116e+02 4.097897988808121188e-05
3.097548774387193475e+02 4.249640270687897339e-05
3.106553276638318835e+02 4.373049180567280231e-05
3.115557778889444762e+02 4.447008304024214890e-05
3.124562281140570121e+02 4.474897716526325502e-05
3.133566783391695481e+02 4.489027526232144619e-05
3.142571285642821408e+02 4.525677223999685178e-05
3.151575787893946767e+02 4.597948336636089532e-05
3.160580290145072127e+02 4.689486568476561377e-05
3.169584792396198054e+02 4.776866780028621393e-05
3.178589294647323413e+02 4.837007300571771539e-05
3.187593796898449341e+02 4.859508570093914120e-05
3.196598299149574700e+02 4.853448405988927190e-05
3.205602801400700059e+02 4.830654732630783955e-05
3.214607303651825987e+02 4.790495295669007481e-05
3.223611805902951346e+02 4.737230341129381730e-05
3.232616308154076705e+02 4.703085056127273561e-05
3.241620810405202633e+02 4.716802805915692635e-05
3.250625312656327992e+02 4.777264349755181013e-05
3.259629814907453351e+02 4.876377361845473171e-05
3.268634317158579279e+02 5.008671590281715862e-05
3.277638819409704638e+02 5.168420749590441895e-05
3.286643321660829997e+02 5.357442727377230435e-05
3.295647823911955925e+02 5.562492960515366588e-05
3.304652326163081284e+02 5.727979277846463894e-05
3.313656828414207212e+02 5.797509728884813352e-05
3.322661330665332571e+02 5.764839211106769661e-05
3.331665832916457930e+02 5.649650143347188189e-05
3.340670335167583858e+02 5.477001299113972501e-05
3.349674837418709217e+02 5.297207277110901755e-05
3.358679339669834576e+02 5.173719202954149516e-05
3.367683841920960504e+02 5.122753651329850559e-05
3.376688344172085863e+02 5.105943283985456185e-05
3.385692846423211222e+02 5.093118374876676923e-05
3.394697348674337150e+02 5.093471351935764273e-05
3.403701850925462509e+02 5.108760129523778372e-05
3.412706353176587868e+02 5.106433998811540378e-05
3.421710855427713796e+02 5.061665060513854801e-05
3.430715357678839155e+02 4.995724461129698687e-05
3.439719859929965082e+02 4.948987483595077220e-05
3.448724362181090441e+02 4.958018775572873953e-05
3.457728864432215801e+02 5.039669226586181199e-05
3.466733366683341728e+02 5.156955201320454949e-05
3.475737868934467087e+02 5.244335171634443644e-05
3.484742371185592447e+02 5.275715919454950702e-05
3.493746873436718374e+02 5.278166460208205544e-05
3.502751375687843733e+02 5.295192386236519897e-05
3.511755877938969093e+02 5.358875565316288875e-05
3.520760380190095020e+02 5.451182378067587626e-05
3.529764882441220379e+02 5.498645345424383137e-05
3.538769384692345739e+02 5.464116273399121385e-05
3.547773886943471666e+02 5.387293872853393353e-05
3.556778389194597025e+02 5.306383289024936708e-05
3.565782891445722953e+02 5.228389013015953665e-05
3.574787393696848312e+02 5.171414920054808183e-05
3.583791895947973671e+02 5.139108409901890323e-05
3.592796398199099599e+02 5.115505509178442690e-05
3.601800900450224958e+02 5.090985591409534646e-05
3.610805402701350317e+02 5.052971911536704991e-05
3.619809904952476245e+02 5.011747794873735833e-05
3.628814407203601604e+02 4.993771194119677809e-05
3.637818909454726963e+02 4.997029258650861444e-05
3.646823411705852891e+02 4.996407277567791090e-05
3.655827913956978250e+02 4.965750200127696211e-05
3.664832416208103609e+02 4.897309733198011554e-05
3.673836918459229537e+02 4.807583581934916662e-05
3.682841420710354896e+02 4.711540149664114201e-05
3.691845922961480824e+02 4.610859855682843675e-05
3.700850425212606183e+02 4.513834099777598959e-05
3.709854927463731542e+02 4.437109140134111869e-05
3.718859429714857470e+02 4.391192060898495942e-05
3.727863931965982829e+02 4.368657952731022946e-05
3.736868434217108188e+02 4.343641673784353615e-05
3.745872936468234116e+02 4.300305198971976815e-05
3.754877438719359475e+02 4.250247303976004625e-05
3.763881940970484834e+02 4.211895128180029963e-05
3.772886443221610762e+02 4.186441740585859295e-05
3.781890945472736121e+02 4.158983146985056932e-05
3.790895447723861480e+02 4.128587524358995402e-05
3.799899949974987408e+02 4.111614198774276831e-05
3.808904452226112767e+02 4.118502316821731705e-05
3.817908954477238694e+02 4.158387124157212359e-05
3.826913456728364054e+02 4.233113906050049919e-05
3.835917958979489413e+02 4.320456312317832483e-05
3.844922461230615340e+02 4.396070729139535963e-05
3.853926963481740700e+02 4.454194768186827487e-05
3.862931465732866059e+02 4.503221233482687083e-05
3.871935967983991986e+02 4.551756986937727787e-05
3.880940470235117346e+02 4.612380796213316406e-05
3.889944972486242705e+02 4.703278184399624882e-05
3.898949474737368632e+02 4.813846936715247051e-05
3.907953976988493991e+02 4.902172248244546254e-05
3.916958479239619351e+02 4.936598879078685789e-05
3.925962981490745278e+02 4.925502694875089061e-05
3.934967483741870637e+02 4.898766570025114603e-05
3.943971985992996565e+02 4.867277899637362340e-05
3.952976488244121924e+02 4.820851590810711816e-05
3.961980990495247283e+02 4.756820578831402470e-05
3.970985492746373211e+02 4.699223799980778898e-05
3.979989994997498570e+02 4.680310054011816096e-05
3.988994497248623929e+02 4.707389275957678341e-05
3.997998999499749857e+02 4.748697059433530329e-05
4.007003501750875216e+02 4.762829636710158067e-05
4.016008004002000575e+02 4.741667457747291624e-05
4.025012506253126503e+02 4.721284216889251286e-05
4.034017008504251862e+02 4.738113264909254215e-05
4.043021510755377221e+02 4.785397464093937722e-05
4.052026013006503149e+02 4.818626281284448757e-05
4.061030515257628508e+02 4.797983224315225108e-05
4.070035017508754436e+02 4.724203216576707204e-05
4.079039519759879795e+02 4.624261300738406624e-05
4.088044022011005154e+02 4.509715060034135293e-05
4.097048524262131082e+02 4.378572649662712063e-05
4.106053026513256441e+02 4.256227518826319865e-05
4.115057528764381800e+02 4.182889749475547533e-05
4.124062031015507728e+02 4.163899321291522263e-05
4.133066533266633087e+02 4.168940312268205916e-05
4.142071035517758446e+02 4.172003132814393003e-05
4.151075537768884374e+02 4.174771101302509349e-05
4.160080040020009733e+02 4.192659497523444970e-05
4.169084542271135092e+02 4.228644026229870561e-05
4.178089044522261020e+02 4.277390749690840874e-05
4.187093546773386379e+02 4.338690876525167037e-05
4.196098049024512306e+02 4.401728664357136892e-05
4.205102551275637666e+02 4.435134230499833440e-05
4.214107053526763025e+02 4.416165686798618491e-05
4.223111555777888952e+02 4.356440446171411230e-05
4.232116058029014312e+02 4.292363267201936326e-05
4.241120560280139671e+02 4.249001349832870407e-05
4.250125062531265598e+02 4.226804312909876498e-05
4.259129564782390958e+02 4.221001581230125413e-05
4.268134067033516317e+02 4.231805523048147406e-05
4.277138569284642244e+02 4.262359550110515505e-05
4.286143071535767604e+02 4.312142932614176542e-05
4.295147573786892963e+02 4.364365429876406973e-05
4.304152076038018890e+02 4.390181166943441464e-05
4.313156578289144250e+02 4.383868077899186417e-05
4.322161080540270177e+02 4.368434778438784032e-05
4.331165582791395536e+02 4.358253039103574195e-05
4.340170085042520896e+02 4.351732045567886922e-05
4.349174587293646823e+02 4.350784932870403493e-05
4.358179089544772182e+02 4.362552724703450092e-05
4.367183591795897541e+02 4.395848480368003131e-05
4.376188094047023469e+02 4.448430143397195664e-05
4.385192596298148828e+02 4.493928244715671860e-05
4.394197098549274187e+02 4.510462796941664050e-05
4.403201600800400115e+02 4.507086882120582327e-05
4.412206103051525474e+02 4.500646790827773891e-05
4.421210605302650833e+02 4.503511393525979814e-05
4.430215107553776761e+02 4.527890672069782819e-05
4.439219609804902120e+02 4.573982372127890713e-05
4.448224112056028048e+02 4.620144628909032591e-05
4.457228614307153407e+02 4.636680675243189743e-05
4.466233116558278766e+02 4.602986071048192061e-05
4.475237618809404694e+02 4.514867450450663929e-05
4.484242121060530053e+02 4.398238015870451064e-05
4.493246623311655412e+02 4.301881476782239741e-05
4.502251125562781340e+02 4.257469328181262357e-05
4.511255627813906699e+02 4.264907391418934881e-05
4.520260130065032058e+02 4.310868197052687895e-05
4.529264632316157986e+02 4.378426843742892137e-05
4.538269134567283345e+02 4.450642206234052528e-05
4.547273636818408704e+02 4.516832725456755950e-05
4.556278139069534632e+02 4.574983733628811423e-05
4.565282641320659991e+02 4.624049981397753675e-05
4.574287143571785919e+02 4.657157987612660691e-05
4.583291645822911278e+02 4.664535202545164704e-05
4.592296148074036637e+02 4.645687161401477268e-05
4.601300650325162565e+02 4.619830589097632690e-05
4.610305152576287924e+02 4.606285760340989824e-05
4.619309654827413283e+02 4.608238440929769139e-05
4.628314157078539210e+02 4.616965009499527631e-05
4.637318659329664570e+02 4.608401411380824757e-05
4.646323161580789929e+02 4.569576653161493097e-05
4.655327663831915856e+02 4.523626996740120907e-05
4.664332166083041216e+02 4.495665461847640407e-05
4.673336668334167143e+02 4.482337522766349634e-05
4.682341170585292502e+02 4.478062455098403779e-05
4.691345672836417862e+02 4.497294074189930635e-05
4.700350175087543789e+02 4.552732931566965665e-05
4.709354677338669148e+02 4.633109116498646966e-05
4.718359179589794508e+02 4.719766105507391664e-05
4.727363681840920435e+02 4.811361283942158958e-05
4.736368184092045794e+02 4.916829455474685964e-05
4.745372686343171154e+02 5.038466863583672498e-05
4.754377188594297081e+02 5.177498428357199506e-05
4.763381690845422440e+02 5.322602228667397281e-05
4.772386193096547800e+02 5.444886816755598394e-05
4.781390695347673727e+02 5.520467644409550960e-05
4.790395197598799086e+02 5.541546711693196459e-05
4.799399699849925014e+02 5.510951129709015355e-05
4.808404202101050373e+02 5.427872380330856661e-05
4.817408704352175732e+02 5.303198456771027972e-05
4.826413206603301660e+02 5.173155529110877942e-05
4.835417708854427019e+02 5.072764682653610295e-05
4.844422211105552378e+02 5.009328333455161770e-05
4.853426713356678306e+02 4.962581554668785383e-05
4.862431215607803665e+02 4.910805290891526382e-05
4.871435717858929024e+02 4.861942564814126198e-05
4.880440220110054952e+02 4.840117027245323438e-05
4.889444722361180311e+02 4.854365481522697690e-05
4.898449224612305670e+02 4.901285311980249458e-05
4.907453726863431598e+02 4.971884293036538078e-05
4.916458229114556957e+02 5.048163174318876732e-05
4.925462731365682885e+02 5.112930379225985995e-05
4.934467233616808244e+02 5.151183297691512732e-05
4.943471735867933603e+02 5.149593871572689588e-05
4.952476238119059531e+02 5.114529361832028271e-05
4.961480740370184890e+02 5.073365578493377234e-05
4.970485242621310249e+02 5.047142581207372336e-05
4.979489744872436177e+02 5.034830930958152133e-05
4.988494247123561536e+02 5.027766207607324616e-05
4.997498749374686895e+02 5.032369066084297591e-05
5.006503251625812823e+02 5.061385252151828258e-05
5.015507753876938182e+02 5.123298103581093037e-05
5.024512256128063541e+02 5.228663818073592522e-05
5.033516758379189469e+02 5.369821411449189028e-05
5.042521260630314828e+02 5.506696684069639554e-05
5.051525762881440755e+02 5.603192468383260240e-05
5.060530265132566115e+02 5.658261694264413551e-05
5.069534767383691474e+02 5.677739705736309188e-05
5.078539269634817401e+02 5.666469137200020267e-05
5.087543771885942760e+02 5.641046412098580829e-05
5.096548274137068120e+02 5.620541587972845626e-05
5.105552776388194047e+02 5.621369372003381552e-05
5.114557278639319406e+02 5.638302905622718348e-05
5.123561780890445334e+02 5.650645101332535066e-05
5.132566283141570693e+02 5.664373583170791577e-05
5.141570785392696052e+02 5.705725506799147386e-05
5.150575287643821412e+02 5.781446387628760071e-05
5.159579789894946771e+02 5.873889230471570407e-05
5.168584292146073267e+02 5.969479763129217318e-05
5.177588794397198626e+02 6.064043777572779357e-05
5.186593296648323985e+02 6.141504245359423637e-05
5.195597798899449344e+02 6.189478440517679945e-05
5.204602301150574704e+02 6.230742257191108197e-05
5.213606803401700063e+02 6.300708890016648621e-05
5.222611305652826559e+02 6.399806134324872422e-05
5.231615807903951918e+02 6.495634635366211976e-05
5.240620310155077277e+02 6.559386631074860829e-05
5.249624812406202636e+02 6.584706865226103557e-05
5.258629314657327996e+02 6.600747373813295764e-05
5.267633816908454492e+02 6.636914293326824958e-05
5.276638319159579851e+02 6.675321474681331145e-05
5.285642821410705210e+02 6.687615233950338592e-05
5.294647323661830569e+02 6.683121358090620019e-05
5.303651825912955928e+02 6.699997728106020858e-05
5.312656328164081287e+02 6.766955794039828797e-05
5.321660830415207784e+02 6.866509094029740073e-05
5.330665332666333143e+02 6.955743612263030385e-05
5.339669834917458502e+02 6.999522610224426429e-05
5.348674337168583861e+02 6.983761945157083734e-05
5.357678839419709220e+02 6.932401202013621796e-05
5.366683341670835716e+02 6.896204763357410882e-05
5.375687843921961075e+02 6.899514103417469450e-05
5.384692346173086435e+02 6.920342715364116097e-05
5.393696848424211794e+02 6.947644071198979382e-05
5.402701350675337153e+02 7.000445261852801429e-05
5.411705852926462512e+02 7.101138160864896548e-05
5.420710355177589008e+02 7.262766250005804885e-05
5.429714857428714367e+02 7.458699244395849645e-05
5.438719359679839727e+02 7.624591969684134754e-05
5.447723861930965086e+02 7.717780654026827093e-05
5.456728364182090445e+02 7.737161188566759695e-05
5.465732866433215804e+02 7.696294237415230441e-05
5.474737368684342300e+02 7.622650422278345178e-05
5.483741870935467659e+02 7.553998871232403144e-05
5.492746373186593019e+02 7.510333475795893140e-05
5.501750875437718378e+02 7.479734744636038792e-05
5.510755377688843737e+02 7.445318512125018422e-05
5.519759879939970233e+02 7.421310910403971584e-05
5.528764382191095592e+02 7.429306721676759472e-05
5.537768884442220951e+02 7.465697320615261316e-05
5.546773386693346310e+02 7.510043088321751597e-05
5.555777888944471670e+02 7.535587936079233932e-05
5.564782391195597029e+02 7.511452952260740210e-05
5.573786893446723525e+02 7.426647181291692521e-05
5.582791395697848884e+02 7.318532824629029492e-05
5.591795897948974243e+02 7.236558550757563990e-05
5.600800400200099602e+02 7.194625480892566014e-05
5.609804902451224962e+02 7.190727649064231292e-05
5.618809404702351458e+02 7.216886245547939288e-05
5.627813906953476817e+02 7.231496963157037433e-05
5.636818409204602176e+02 7.185254765176232077e-05
5.645822911455727535e+02 7.085495862066006176e-05
5.654827413706852894e+02 6.992123041575217597e-05
5.663831915957978254e+02 6.952812853788667641e-05
5.672836418209104750e+02 6.959850983991919097e-05
5.681840920460230109e+02 6.973418561053692979e-05
5.690845422711355468e+02 6.959436923160847513e-05
5.699849924962480827e+02 6.907904673977618699e-05
5.708854427213606186e+02 6.844002008436127302e-05
5.717858929464731546e+02 6.793419213371223715e-05
5.726863431715858042e+02 6.744138801460126400e-05
5.735867933966983401e+02 6.690246907583256982e-05
5.744872436218108760e+02 6.658094769172217869e-05
5.753876938469234119e+02 6.663556700413675901e-05
5.762881440720359478e+02 6.695273586839289143e-05
5.771885942971485974e+02 6.748371591655065568e-05
5.780890445222611334e+02 6.832287335272773016e-05
5.789894947473736693e+02 6.952112767399332648e-05
5.798899449724862052e+02 7.081688316898222227e-05
5.807903951975987411e+02 7.155823241730552959e-05
5.816908454227112770e+02 7.122041589842104808e-05
5.825912956478239266e+02 6.998519168006807334e-05
5.834917458729364625e+02 6.849707091189077141e-05
5.843921960980489985e+02 6.740775169097301656e-05
5.852926463231615344e+02 6.720947438185656390e-05
5.861930965482740703e+02 6.792862433225946588e-05
5.870935467733867199e+02 6.909594296931248546e-05
5.879939969984992558e+02 7.023478249047921003e-05
5.888944472236117917e+02 7.110218521953979025e-05
5.897948974487243277e+02 7.139109422902052281e-05
5.906953476738368636e+02 7.070981009645609290e-05
5.915957978989493995e+02 6.911017641572296630e-05
5.924962481240620491e+02 6.716990460258204373e-05
5.933966983491745850e+02 6.537518805961356656e-05
5.942971485742871209e+02 6.392609405127856281e-05
5.951975987993996569e+02 6.295424874224011039e-05
5.960980490245121928e+02 6.260096785790787678e-05
5.969984992496247287e+02 6.285020216715721101e-05
5.978989494747373783e+02 6.344599844576292991e-05
5.987993996998499142e+02 6.401296278214933029e-05
5.996998499249624501e+02 6.422896518966962544e-05
6.006003001500749860e+02 6.402216718302292337e-05
6.015007503751875220e+02 6.355896590654512644e-05
6.024012006003001716e+02 6.305074843167586128e-05
6.033016508254127075e+02 6.242949373661933288e-05
6.042021010505252434e+02 6.154730171532766094e-05
6.051025512756377793e+02 6.067352012917920156e-05
6.060030015007503152e+02 6.020513245437452576e-05
6.069034517258628512e+02 6.017572150875791681e-05
6.078039019509755008e+02 6.034879917533766784e-05
6.087043521760880367e+02 6.058556337199806315e-05
6.096048024012005726e+02 6.092560691114749479e-05
6.105052526263131085e+02 6.123471187246222664e-05
6.114057028514256444e+02 6.119591866225660337e-05
6.123061530765382940e+02 6.064566506773311027e-05
6.132066033016508300e+02 5.978606878736205705e-05
6.141070535267633659e+02 5.916195149781565556e-05
6.150075037518759018e+02 5.911084452706991430e-05
6.159079539769884377e+02 5.937224268119953112e-05
6.168084042021009736e+02 5.939908018324354739e-05
6.177088544272136232e+02 5.899037154555101506e-05
6.186093046523261592e+02 5.829770423934661506e-05
6.195097548774386951e+02 5.755049595403399499e-05
6.204102051025512310e+02 5.696204281315477626e-05
6.213106553276637669e+02 5.649370360844204744e-05
6.222111055527763028e+02 5.595712982299492398e-05
6.231115557778889524e+02 5.535643476612662724e-05
6.240120060030014884e+02 5.488923471469887833e-05
6.249124562281140243e+02 5.465817452311793283e-05
6.258129064532265602e+02 5.462920128830796334e-05
6.267133566783390961e+02 5.470417168938931896e-05
6.276138069034517457e+02 5.476395151362326811e-05
6.285142571285642816e+02 5.488360576169934262e-05
6.294147073536768175e+02 5.530959591984028372e-05
6.303151575787893535e+02 5.607193900790994023e-05
6.312156078039018894e+02 5.694593007529088346e-05
6.321160580290144253e+02 5.773144841129283837e-05
6.330165082541270749e+02 5.832444075812753858e-05
6.339169584792396108e+02 5.863394281222968757e-05
6.348174087043521467e+02 5.858627061559294080e-05
6.357178589294646827e+02 5.825310732865994961e-05
6.366183091545772186e+02 5.775876852053097801e-05
6.375187593796898682e+02 5.719012648724949345e-05
6.384192096048024041e+02 5.659612233733370910e-05
6.393196598299149400e+02 5.606280953169101670e-05
6.402201100550274759e+02 5.574786090042508556e-05
6.411205602801400119e+02 5.569173770260865469e-05
6.420210105052525478e+02 5.584965352345709117e-05
6.429214607303651974e+02 5.613872310886994563e-05
6.438219109554777333e+02 5.637759457697802428e-05
6.447223611805902692e+02 5.640077186865515507e-05
6.456228114057028051e+02 5.615902924660075567e-05
6.465232616308153411e+02 5.567610722772672513e-05
6.474237118559278770e+02 5.509025764641527309e-05
6.483241620810405266e+02 5.466208096672002910e-05
6.492246123061530625e+02 5.452214122393961055e-05
6.501250625312655984e+02 5.456678532460510893e-05
6.510255127563781343e+02 5.465016673644585809e-05
6.519259629814906702e+02 5.478046837984578001e-05
6.528264132066033198e+02 5.516385248053451429e-05
6.537268634317158558e+02 5.592543557144457825e-05
6.546273136568283917e+02 5.690004283540607387e-05
6.555277638819409276e+02 5.763098618662046668e-05
6.564282141070534635e+02 5.760613359144886749e-05
6.573286643321659994e+02 5.678982988084729089e-05
6.582291145572786490e+02 5.555859241949809350e-05
6.591295647823911850e+02 5.419567493799875879e-05
6.600300150075037209e+02 5.280835390894602656e-05
6.609304652326162568e+02 5.152142366730747106e-05
6.618309154577287927e+02 5.050097423617900849e-05
6.627313656828414423e+02 4.995050755185386567e-05
6.636318159079539782e+02 5.001733917725989238e-05
6.645322661330665142e+02 5.061929194572972133e-05
6.654327163581790501e+02 5.151190424972080492e-05
6.663331665832915860e+02 5.245390538438389336e-05
6.672336168084041219e+02 5.326756062337824311e-05
6.681340670335167715e+02 5.386374000479250571e-05
6.690345172586293074e+02 5.421441474554290166e-05
6.699349674837418434e+02 5.428697753142334916e-05
6.708354177088543793e+02 5.410118485211532711e-05
6.717358679339669152e+02 5.385808367154729592e-05
6.726363181590794511e+02 5.379423414972575899e-05
6.735367683841921007e+02 5.396878496971509897e-05
6.744372186093046366e+02 5.425539603999577569e-05
6.753376688344171725e+02 5.444354021636261051e-05
6.762381190595297085e+02 5.452737596802931409e-05
6.771385692846422444e+02 5.478509427654437366e-05
6.780390195097548940e+02 5.534951340066683638e-05
6.789394697348674299e+02 5.605461392389323783e-05
6.798399199599799658e+02 5.661863051311180617e-05
6.807403701850925017e+02 5.687206161718741333e-05
6.816408204102050377e+02 5.687455603307541572e-05
6.825412706353175736e+02 5.690451313193611442e-05
6.834417208604302232e+02 5.723185323805893656e-05
6.843421710855427591e+02 5.787207719866279050e-05
6.852426213106552950e+02 5.859942848500980858e-05
6.861430715357678309e+02 5.928231753405001749e-05
6.870435217608803669e+02 6.007271896034656962e-05
6.879439719859930165e+02 6.111296319745531432e-05
6.888444222111055524e+02 6.218740976763087078e-05
6.897448724362180883e+02 6.281745191575142126e-05
6.906453226613306242e+02 6.271006705402147532e-05
6.915457728864431601e+02 6.198330890854771404e-05
6.924462231115556961e+02 6.107683243891406076e-05
6.933466733366683457e+02 6.036810708774908432e-05
6.942471235617808816e+02 5.984726948669680409e-05
6.951475737868934175e+02 5.933768719103525442e-05
6.960480240120059534e+02 5.878314764446063189e-05
6.969484742371184893e+02 5.820972474470570060e-05
6.978489244622311389e+02 5.761604613541596140e-05
6.987493746873436749e+02 5.710970238284002556e-05
6.996498249124562108e+02 5.688908798495992479e-05
7.005502751375687467e+02 5.688628800560449682e-05
7.014507253626812826e+02 5.690225239956028227e-05
7.023511755877938185e+02 5.690419588631337114e-05
7.032516258129064681e+02 5.688565995933681500e-05
7.041520760380190040e+02 5.671152880556473220e-05
7.050525262631315400e+02 5.617752319128038014e-05
7.059529764882440759e+02 5.519137933472322005e-05
7.068534267133566118e+02 5.396471925877123575e-05
7.077538769384691477e+02 5.300980671325100332e-05
7.086543271635817973e+02 5.272929886217733188e-05
7.095547773886943332e+02 5.317080534733426554e-05
7.104552276138068692e+02 5.399407309292756935e-05
7.113556778389194051e+02 5.473000242840925944e-05
7.122561280640319410e+02 5.506525602247892875e-05
7.131565782891445906e+02 5.489927897708765772e-05
7.140570285142571265e+02 5.448820948442044220e-05
7.149574787393696624e+02 5.421525421605196538e-05
7.158579289644821984e+02 5.427464266587625437e-05
7.167583791895947343e+02 5.464378845183704802e-05
7.176588294147072702e+02 5.508040152008651506e-05
7.185592796398199198e+02 5.530134801288775186e-05
7.194597298649324557e+02 5.520470664835744595e-05
7.203601800900449916e+02 5.486604300157119578e-05
7.212606303151575275e+02 5.444577234413523238e-05
7.221610805402700635e+02 5.413634027172241792e-05
7.230615307653827131e+02 5.400697207483173205e-05
7.239619809904952490e+02 5.389069186098893749e-05
7.248624312156077849e+02 5.356365198694367711e-05
7.257628814407203208e+02 5.311053520302107999e-05
7.266633316658328567e+02 5.286403861049714478e-05
7.275637818909453927e+02 5.290864921346628651e-05
7.284642321160580423e+02 5.306257661928164097e-05
7.293646823411705782e+02 5.326225772212458552e-05
7.302651325662831141e+02 5.352248617518002324e-05
7.311655827913956500e+02 5.379629969422032533e-05
7.320660330165081859e+02 5.414574489117052566e-05
7.329664832416207219e+02 5.477358942206639059e-05
7.338669334667333715e+02 5.571136335882676026e-05
7.347673836918459074e+02 5.676676312775601988e-05
7.356678339169584433e+02 5.770550453180900842e-05
7.365682841420709792e+02 5.822042715202926434e-05
7.374687343671835151e+02 5.822115166498842648e-05
7.383691845922961647e+02 5.793288276435240076e-05
7.392696348174087007e+02 5.762487003160403500e-05
7.401700850425212366e+02 5.754340431504790057e-05
7.410705352676337725e+02 5.775831149228796192e-05
7.419709854927463084e+02 5.808409177710179580e-05
7.428714357178588443e+02 5.854363803774809475e-05
7.437718859429714939e+02 5.946175175262101485e-05
7.446723361680840299e+02 6.098944991760024117e-05
7.455727863931965658e+02 6.309709437713991505e-05
7.464732366183091017e+02 6.563787371033619861e-05
7.473736868434216376e+02 6.819133090364371756e-05
7.482741370685342872e+02 7.009033753250808912e-05
7.491745872936468231e+02 7.078070799196093906e-05
7.500750375187593590e+02 7.007060901552254035e-05
7.509754877438718950e+02 6.821157045144718911e-05
7.518759379689844309e+02 6.583311735419518688e-05
7.527763881940969668e+02 6.370991025507573757e-05
7.536768384192096164e+02 6.236330147118383121e-05
7.545772886443221523e+02 6.187325307372500312e-05
7.554777388694346882e+02 6.216387418351552758e-05
7.563781890945472242e+02 6.313944612329155416e-05
7.572786393196597601e+02 6.457895499101587704e-05
7.581790895447722960e+02 6.603478653607590550e-05
7.590795397698849456e+02 6.702839867614126309e-05
7.599799899949974815e+02 6.750179144623281318e-05
7.608804402201100174e+02 6.762080226978453405e-05
7.617808904452225534e+02 6.752054562874755062e-05
7.626813406703350893e+02 6.735353266400702246e-05
7.635817908954477389e+02 6.722511325910641977e-05
7.644822411205602748e+02 6.716828538113584174e-05
7.653826913456728107e+02 6.722667593643305616e-05
7.662831415707853466e+02 6.746962023422793718e-05
7.671835917958978825e+02 6.781338619781254946e-05
7.680840420210104185e+02 6.800637305981520287e-05
7.689844922461230681e+02 6.790123981607106701e-05
7.698849424712356040e+02 6.747979484572266947e-05
7.707853926963481399e+02 6.685836574461473196e-05
7.716858429214606758e+02 6.628857343482764356e-05
7.725862931465732117e+02 6.590464294099249002e-05
7.734867433716858613e+02 6.572050273265407768e-05
7.743871935967983973e+02 6.576129888432243899e-05
7.752876438219109332e+02 6.605198434446132340e-05
7.761880940470234691e+02 6.653266441791782539e-05
7.770885442721360050e+02 6.708727275293386227e-05
7.779889944972485409e+02 6.757140854005605404e-05
7.788894447223611905e+02 6.789090020367959989e-05
7.797898949474737265e+02 6.798491290186341575e-05
7.806903451725862624e+02 6.762602471898840470e-05
7.815907953976987983e+02 6.674553042816361683e-05
7.824912456228113342e+02 6.568648593910207537e-05
7.833916958479238701e+02 6.474889148157081224e-05
7.842921460730365197e+02 6.404937728309443765e-05
7.851925962981490557e+02 6.353728981052776073e-05
7.860930465232615916e+02 6.298185177375736042e-05
7.869934967483741275e+02 6.241602547133629647e-05
7.878939469734866634e+02 6.232731777471981524e-05
7.887943971985993130e+02 6.316684861675752433e-05
7.896948474237118489e+02 6.483251541946083321e-05
7.905952976488243849e+02 6.668114144880646485e-05
7.914957478739369208e+02 6.800810722879834023e-05
7.923961980990494567e+02 6.845741489236101198e-05
7.932966483241619926e+02 6.799224027397996124e-05
7.941970985492746422e+02 6.690271973130807132e-05
7.950975487743871781e+02 6.588287411012396769e-05
7.959979989994997140e+02 6.551296109351632802e-05
7.968984492246122500e+02 6.570028091032131486e-05
7.977988994497247859e+02 6.607426106840051791e-05
7.986993496748374355e+02 6.649169607158287101e-05
7.995997998999499714e+02 6.694864445917345552e-05
8.005002501250625073e+02 6.731364361781623962e-05
8.014007003501750432e+02 6.733682645238984804e-05
8.023011505752875792e+02 6.685181441963389227e-05
8.032016008004001151e+02 6.609896318011998821e-05
8.041020510255127647e+02 6.548542298840821633e-05
8.050025012506253006e+02 6.507546618137872009e-05
8.059029514757378365e+02 6.478099808295729198e-05
8.068034017008503724e+02 6.466786946317353284e-05
8.077038519259629084e+02 6.493459118346102974e-05
8.086043021510754443e+02 6.564874814342745041e-05
8.095047523761880939e+02 6.661908096437769251e-05
8.104052026013006298e+02 6.763600422287939843e-05
8.113056528264131657e+02 6.864513798368950144e-05
8.122061030515257016e+02 6.962266764142920755e-05
8.131065532766382375e+02 7.058563681479495026e-05
8.140070035017508872e+02 7.170579120422663924e-05
8.149074537268634231e+02 7.308956423168375908e-05
8.158079039519759590e+02 7.444447163295428319e-05
8.167083541770884949e+02 7.536946077514673271e-05
8.176088044022010308e+02 7.582133819093519480e-05
8.185092546273135667e+02 7.588130983115895284e-05
8.194097048524262163e+02 7.556653218968640456e-05
8.203101550775387523e+02 7.485754462954289929e-05
8.212106053026512882e+02 7.370126200225707986e-05
8.221110555277638241e+02 7.216806587331045921e-05
8.230115057528763600e+02 7.060393455857567012e-05
8.239119559779890096e+02 6.937417892473272669e-05
8.248124062031015455e+02 6.863713354744702707e-05
8.257128564282140815e+02 6.820946185958235504e-05
8.266133066533266174e+02 6.775060510572256144e-05
8.275137568784391533e+02 6.720742673036512354e-05
8.284142071035516892e+02 6.678945122238314782e-05
8.293146573286643388e+02 6.657257335747334152e-05
8.302151075537768747e+02 6.638873405620377669e-05
8.311155577788894107e+02 6.618673626921178321e-05
8.320160080040019466e+02 6.615197358262196238e-05
8.329164582291144825e+02 6.627292018302028092e-05
8.338169084542270184e+02 6.634674763074144581e-05
8.347173586793396680e+02 6.648008298607101837e-05
8.356178089044522039e+02 6.686262924756392393e-05
8.365182591295647399e+02 6.745312215969608840e-05
8.374187093546772758e+02 6.816438234341987081e-05
8.383191595797898117e+02 6.899821522180824940e-05
8.392196098049024613e+02 6.997168151996680169e-05
8.401200600300149972e+02 7.094609334341992932e-05
8.410205102551275331e+02 7.164633862988462921e-05
8.419209604802400690e+02 7.203145042150571869e-05
8.428214107053526050e+02 7.213945514659889883e-05
8.437218609304651409e+02 7.178778741603098780e-05
8.446223111555777905e+02 7.096508070755113860e-05
8.455227613806903264e+02 6.998377907215559419e-05
8.464232116058028623e+02 6.898416662194771390e-05
8.473236618309153982e+02 6.789502112030328692e-05
8.482241120560279342e+02 6.674893048649471760e-05
8.491245622811405838e+02 6.588484712896638886e-05
8.500250125062531197e+02 6.573415573121721943e-05
8.509254627313656556e+02 6.638422832421261150e-05
8.518259129564781915e+02 6.751509047251892822e-05
8.527263631815907274e+02 6.888618704519999792e-05
8.536268134067032634e+02 7.064717916286244613e-05
8.545272636318159130e+02 7.289050411984533012e-05
8.554277138569284489e+02 7.529462579548056793e-05
8.563281640820409848e+02 7.739668463303676135e-05
8.572286143071535207e+02 7.888356914365770938e-05
8.581290645322660566e+02 7.967276757328594283e-05
8.590295147573785925e+02 7.993063750143331796e-05
8.599299649824912422e+02 7.980851546470255726e-05
8.608304152076037781e+02 7.933876455040568348e-05
8.617308654327163140e+02 7.876687003247737529e-05
8.626313156578288499e+02 7.832253347638773954e-05
8.635317658829413858e+02 7.779008553305771334e-05
8.644322161080540354e+02 7.701627346307073302e-05
8.653326663331665713e+02 7.627051335582639457e-05
8.662331165582791073e+02 7.595163300215221922e-05
8.671335667833916432e+02 7.623721905873497332e-05
8.680340170085041791e+02 7.696416587336800971e-05
8.689344672336167150e+02 7.772721427982968903e-05
8.698349174587293646e+02 7.826729907758123758e-05
8.707353676838419005e+02 7.860316441476822389e-05
8.716358179089544365e+02 7.894600972459507062e-05
8.725362681340669724e+02 7.942960114302742070e-05
8.734367183591795083e+02 8.007180130690783038e-05
8.743371685842921579e+02 8.107534771089954808e-05
8.752376188094046938e+02 8.257239382074514752e-05
8.761380690345172297e+02 8.414235910602492713e-05
8.770385192596297657e+02 8.507699594310153197e-05
8.779389694847423016e+02 8.512039354224077206e-05
8.788394197098548375e+02 8.477891167161551297e-05
8.797398699349674871e+02 8.482402590921845524e-05
8.806403201600800230e+02 8.570122853739840871e-05
8.815407703851925589e+02 8.729037755585134211e-05
8.824412206103050949e+02 8.887738605845835042e-05
8.833416708354176308e+02 8.992609284454473472e-05
8.842421210605301667e+02 9.071890892260500825e-05
8.851425712856428163e+02 9.176514647822120799e-05
8.860430215107553522e+02 9.306489211497905977e-05
8.869434717358678881e+02 9.403404418392580645e-05
8.878439219609804240e+02 9.416651601450085594e-05
8.887443721860929600e+02 9.373903540819486795e-05
8.896448224112056096e+02 9.345176233634241904e-05
8.905452726363181455e+02 9.381726916003022844e-05
8.914457228614306814e+02 9.457785808163820065e-05
8.923461730865432173e+02 9.501510325409378980e-05
8.932466233116557532e+02 9.489314956408450696e-05
8.941470735367682892e+02 9.443297967853559469e-05
8.950475237618809388e+02 9.408598907472414546e-05
8.959479739869934747e+02 9.435566689929200245e-05
8.968484242121060106e+02 9.531593701126048429e-05
8.977488744372185465e+02 9.645610482974944046e-05
8.986493246623310824e+02 9.742021429847346967e-05
8.995497748874437320e+02 9.843728396481942486e-05
9.004502251125562680e+02 9.977453618197415627e-05
9.013506753376688039e+02 1.013910897973175907e-04
9.022511255627813398e+02 1.030826635219184666e-04
9.031515757878938757e+02 1.047844089403271358e-04
9.040520260130064116e+02 1.062743759910040166e-04
9.049524762381190612e+02 1.071509285715328868e-04
9.058529264632315972e+02 1.073046351408989281e-04
9.067533766883441331e+02 1.068052207826356817e-04
9.076538269134566690e+02 1.056144810735572200e-04
9.085542771385692049e+02 1.039057668516077425e-04
9.094547273636817408e+02 1.024505223747679635e-04
9.103551775887943904e+02 1.020164501568449940e-04
9.112556278139069263e+02 1.030028085690367587e-04
9.121560780390194623e+02 1.053904977974285686e-04
9.130565282641319982e+02 1.084585956560607008e-04
9.139569784892445341e+02 1.112161949020526545e-04
9.148574287143571837e+02 1.133467417426617125e-04
9.157578789394697196e+02 1.149495738770160442e-04
9.166583291645822555e+02 1.158104998999785263e-04
9.175587793896947915e+02 1.155493735723947264e-04
9.184592296148073274e+02 1.142076108516812351e-04
9.193596798399198633e+02 1.124362403589342996e-04
9.202601300650325129e+02 1.110270724975197937e-04
9.211605802901450488e+02 1.103892732790715485e-04
9.220610305152575847e+02 1.107174085623821043e-04
9.229614807403701207e+02 1.120780424384887244e-04
9.238619309654826566e+02 1.139614312873983072e-04
9.247623811905953062e+02 1.155551310704323675e-04
9.256628314157078421e+02 1.164473850875997389e-04
9.265632816408203780e+02 1.167636146802590374e-04
9.274637318659329139e+02 1.167881518782237364e-04
9.283641820910454499e+02 1.166530135220208200e-04
9.292646323161579858e+02 1.164547330621297635e-04
9.301650825412706354e+02 1.164410208820551644e-04
9.310655327663831713e+02 1.165871536993675104e-04
9.319659829914957072e+02 1.166900362437976588e-04
9.328664332166082431e+02 1.169409941653301122e-04
9.337668834417207790e+02 1.176542109602913319e-04
9.346673336668334287e+02 1.188616457328561284e-04
9.355677838919459646e+02 1.206421771830990452e-04
9.364682341170585005e+02 1.230260751301301555e-04
9.373686843421710364e+02 1.258177307277334408e-04
9.382691345672835723e+02 1.290263609175273853e-04
9.391695847923961082e+02 1.328604797787927836e-04
9.400700350175087578e+02 1.369470316249089652e-04
9.409704852426212938e+02 1.402095814601936861e-04
9.418709354677338297e+02 1.418303482992450929e-04
9.427713856928463656e+02 1.420893940255705276e-04
9.436718359179589015e+02 1.418058487448014388e-04
9.445722861430714374e+02 1.413747951024213673e-04
9.454727363681840870e+02 1.408854756932484539e-04
9.463731865932966230e+02 1.405804895535010216e-04
9.472736368184091589e+02 1.405810112262780194e-04
9.481740870435216948e+02 1.406658010475146658e-04
9.490745372686342307e+02 1.407180181503312985e-04
9.499749874937468803e+02 1.409921760348037531e-04
9.508754377188594162e+02 1.420253668761717997e-04
9.517758879439719522e+02 1.442842602543652891e-04
9.526763381690844881e+02 1.474806675193347739e-04
9.535767883941970240e+02 1.506568943360968673e-04
9.544772386193095599e+02 1.530420217263670055e-04
9.553776888444222095e+02 1.542716405516558666e-04
9.562781390695347454e+02 1.543619946906470098e-04
9.571785892946472813e+02 1.539810267282893427e-04
9.580790395197598173e+02 1.541161612403536287e-04
9.589794897448723532e+02 1.554508448023210997e-04
9.598799399699850028e+02 1.579078921404178739e-04
9.607803901950975387e+02 1.606533290054067348e-04
9.616808404202100746e+02 1.632534696699386055e-04
9.625812906453226105e+02 1.657704325569577344e-04
9.634817408704351465e+02 1.680252172148429869e-04
9.643821910955476824e+02 1.699019197904706475e-04
9.652826413206603320e+02 1.714346810265682676e-04
9.661830915457728679e+02 1.723454782009637353e-04
9.670835417708854038e+02 1.722810583844732672e-04
9.679839919959979397e+02 1.714250683991632384e-04
9.688844422211104757e+02 1.705309420924329368e-04
9.697848924462230116e+02 1.704836257691930829e-04
9.706853426713356612e+02 1.717990304085481427e-04
9.715857928964481971e+02 1.739693450132699616e-04
9.724862431215607330e+02 1.758469151532700964e-04
9.733866933466732689e+02 1.766450278471057116e-04
9.742871435717858049e+02 1.763913491723028868e-04
9.751875937968984545e+02 1.751865662224690035e-04
9.760880440220109904e+02 1.730508080330179696e-04
9.769884942471235263e+02 1.710564964487272847e-04
9.778889444722360622e+02 1.708494456185561511e-04
9.787893946973485981e+02 1.729011596998583080e-04
9.796898449224611340e+02 1.763672571494651878e-04
9.805902951475737837e+02 1.802941667845099009e-04
9.814907453726863196e+02 1.840645367482427808e-04
9.823911955977988555e+02 1.873621097604558777e-04
9.832916458229113914e+02 1.901210986571903456e-04
9.841920960480239273e+02 1.921210009817757357e-04
9.850925462731365769e+02 1.932089420029377551e-04
9.859929964982491128e+02 1.935074023339919576e-04
9.868934467233616488e+02 1.931830800928912868e-04
9.877938969484741847e+02 1.926565793954664529e-04
9.886943471735867206e+02 1.925481984500024030e-04
9.895947973986992565e+02 1.933453600009895084e-04
9.904952476238119061e+02 1.951970429568946144e-04
9.913956978489244420e+02 1.976429769681038718e-04
9.922961480740369780e+02 2.001075006075978154e-04
9.931965982991495139e+02 2.022388324537922161e-04
9.940970485242620498e+02 2.039625839714910062e-04
9.949974987493745857e+02 2.062942276697359966e-04
9.958979489744872353e+02 2.104256471849753213e-04
9.967983991995997712e+02 2.159773172579229313e-04
9.976988494247123072e+02 2.212058949405392176e-04
9.985992996498248431e+02 2.243552924998238707e-04
9.994997498749373790e+02 2.251287652062552969e-04
1.000400200100050029e+03 2.246571741736552762e-04
1.001300650325162565e+03 2.239714493638526611e-04
1.002201100550275100e+03 2.234954870550916932e-04
1.003101550775387636e+03 2.231204476683988159e-04
1.004002001000500172e+03 2.222925193300916992e-04
1.004902451225612708e+03 2.208544266227269561e-04
1.005802901450725358e+03 2.193660293174736875e-04
1.006703351675837894e+03 2.183427029983373360e-04
1.007603801900950430e+03 2.179591532269626577e-04
1.008504252126062966e+03 2.185601288975808629e-04
1.009404702351175501e+03 2.209552099808360242e-04
1.010305152576288151e+03 2.250021924598681632e-04
1.011205602801400687e+03 2.292003135820425358e-04
1.012106053026513223e+03 2.325087882294226002e-04
1.013006503251625759e+03 2.353663015427950563e-04
1.013906953476738295e+03 2.382076767816057106e-04
1.014807403701850831e+03 2.406812797517153589e-04
1.015707853926963480e+03 2.427959993439709064e-04
1.016608304152076016e+03 2.453096371843601579e-04
1.017508754377188552e+03 2.483565996302026743e-04
1.018409204602301088e+03 2.510738161061802881e-04
1.019309654827413624e+03 2.531945473045132218e-04
1.020210105052526160e+03 2.550610590735364301e-04
1.021110555277638809e+03 2.569012560431781136e-04
1.022011005502751345e+03 2.586106567387683945e-04
1.022911455727863881e+03 2.601483171413622474e-04
1.023811905952976417e+03 2.615687845016764030e-04
1.024712356178089067e+03 2.629851871447762691e-04
1.025612806403201603e+03 2.650501168216041125e-04
1.026513256628314139e+03 2.683536528725018124e-04
1.027413706853426675e+03 2.728372501404484514e-04
1.028314157078539210e+03 2.785559728192264252e-04
1.029214607303651746e+03 2.856176579734248763e-04
1.030115057528764282e+03 2.932448114993660361e-04
1.031015507753876818e+03 2.998039182033696362e-04
1.031915957978989354e+03 3.043621252893514008e-04
1.032816408204101890e+03 3.078359055353809015e-04
1.033716858429214653e+03 3.112056061930043214e-04
1.034617308654327189e+03 3.139461541168878773e-04
1.035517758879439725e+03 3.144338038339555916e-04
1.036418209104552261e+03 3.115756764828294680e-04
1.037318659329664797e+03 3.073040922668622251e-04
1.038219109554777333e+03 3.049359111570038982e-04
1.039119559779889869e+03 3.056334933613364638e-04
1.040020010005002405e+03 3.080269554825615418e-04
1.040920460230114941e+03 3.105778392620164689e-04
1.041820910455227477e+03 3.125103246654841144e-04
1.042721360680340013e+03 3.138814815574806987e-04
1.043621810905452776e+03 3.155470298130969844e-04
1.044522261130565312e+03 3.178821140902611270e-04
1.045422711355677848e+03 3.202174965912514375e-04
1.046323161580790384e+03 3.220088204412246535e-04
1.047223611805902920e+03 3.239072868930770177e-04
1.048124062031015455e+03 3.267531018991256869e-04
1.049024512256127991e+03 3.302242838830164338e-04
1.049924962481240527e+03 3.335997216765715996e-04
1.050825412706353063e+03 3.370836447059049387e-04
1.051725862931465599e+03 3.409562322719856143e-04
1.052626313156578135e+03 3.445106367646769228e-04
1.053526763381690898e+03 3.472074353003360174e-04
1.054427213606803434e+03 3.498668188302380983e-04
1.055327663831915970e+03 3.535186623578359362e-04
1.056228114057028506e+03 3.579565566595023333e-04
1.057128564282141042e+03 3.619479757867669219e-04
1.058029014507253578e+03 3.636808960594933838e-04
1.058929464732366114e+03 3.624405162167109308e-04
1.059829914957478650e+03 3.599638518190075649e-04
1.060730365182591186e+03 3.577361252072077660e-04
1.061630815407703722e+03 3.553714175013533098e-04
1.062531265632816257e+03 3.520430561629546212e-04
1.063431715857929021e+03 3.481956011333544481e-04
1.064332166083041557e+03 3.455726041744869607e-04
1.065232616308154093e+03 3.452045890628846220e-04
1.066133066533266629e+03 3.474192629506688500e-04
1.067033516758379164e+03 3.526523994309478010e-04
1.067933966983491700e+03 3.599523399997256110e-04
1.068834417208604236e+03 3.663590504829891204e-04
1.069734867433716772e+03 3.687303639884466442e-04
1.070635317658829308e+03 3.667790779173067412e-04
1.071535767883941844e+03 3.628928050537619568e-04
1.072436218109054380e+03 3.595265305582541092e-04
1.073336668334167143e+03 3.579159637461156720e-04
1.074237118559279679e+03 3.581458809942383707e-04
1.075137568784392215e+03 3.599439811965252805e-04
1.076038019009504751e+03 3.630634171768346930e-04
1.076938469234617287e+03 3.669739050183977187e-04
1.077838919459729823e+03 3.712380026901735222e-04
1.078739369684842359e+03 3.760498392895344003e-04
1.079639819909954895e+03 3.820439694643717240e-04
1.080540270135067431e+03 3.900594080456714708e-04
1.081440720360179967e+03 4.002318916423484667e-04
1.082341170585292502e+03 4.109480119929037503e-04
1.083241620810405038e+03 4.200122337775301471e-04
1.084142071035517802e+03 4.262450215854976130e-04
1.085042521260630338e+03 4.293300038352092880e-04
1.085942971485742873e+03 4.292840342252120657e-04
1.086843421710855409e+03 4.268121888769182211e-04
1.087743871935967945e+03 4.250478897692296066e-04
1.088644322161080481e+03 4.270003888608989639e-04
1.089544772386193017e+03 4.316734967836056655e-04
1.090445222611305553e+03 4.354147568353307503e-04
1.091345672836418089e+03 4.360947243706195741e-04
1.092246123061530625e+03 4.355529787811660003e-04
1.093146573286643161e+03 4.374024745685927405e-04
1.094047023511755924e+03 4.421366864300146460e-04
1.094947473736868460e+03 4.454419468620173200e-04
1.095847923961980996e+03 4.446775267261184354e-04
1.096748374187093532e+03 4.439950701786984444e-04
1.097648824412206068e+03 4.467635949793177449e-04
1.098549274637318604e+03 4.498326331130960191e-04
1.099449724862431140e+03 4.488654748928387638e-04
1.100350175087543676e+03 4.443291227153344566e-04
1.101250625312656211e+03 4.402847326664327196e-04
1.102151075537768747e+03 4.400540933594552563e-04
1.103051525762881283e+03 4.437968978793042636e-04
1.103951975987994047e+03 4.499114423758368043e-04
1.104852426213106583e+03 4.577312043362461781e-04
1.105752876438219118e+03 4.674570826364303662e-04
1.106653326663331654e+03 4.787167993643468662e-04
1.107553776888444190e+03 4.898165087402450409e-04
1.108454227113556726e+03 4.992540984809735669e-04
1.109354677338669262e+03 5.081066681363775265e-04
1.110255127563781798e+03 5.186333717345656619e-04
1.111155577788894334e+03 5.306504896257486061e-04
1.112056028014006870e+03 5.410290716125557833e-04
1.112956478239119406e+03 5.476028724363314094e-04
1.113856928464232169e+03 5.504620446150079120e-04
1.114757378689344705e+03 5.501898453606959144e-04
1.115657828914457241e+03 5.474646556021041822e-04
1.116558279139569777e+03 5.429163895593587877e-04
1.117458729364682313e+03 5.376904335139958161e-04
1.118359179589794849e+03 5.327385946163867760e-04
1.119259629814907385e+03 5.270206092512107936e-04
1.120160080040019920e+03 5.194787889978106374e-04
1.121060530265132456e+03 5.112530654255851214e-04
1.121960980490244992e+03 5.047804561219510020e-04
1.122861430715357528e+03 5.020103812845606731e-04
1.123761880940470292e+03 5.024093815731995715e-04
1.124662331165582827e+03 5.054171734311569981e-04
1.125562781390695363e+03 5.122123364464381545e-04
1.126463231615807899e+03 5.235393558875060457e-04
1.127363681840920435e+03 5.374727463974544699e-04
1.128264132066032971e+03 5.494436535677659243e-04
1.129164582291145507e+03 5.556263595423063372e-04
1.130065032516258043e+03 5.570901107950619211e-04
1.130965482741370579e+03 5.592302222860710305e-04
1.131865932966483115e+03 5.663683094706379543e-04
1.132766383191595651e+03 5.789196707309589513e-04
1.133666833416708187e+03 5.947866147749919074e-04
1.134567283641820950e+03 6.117872274130753798e-04
1.135467733866933486e+03 6.287593440310972320e-04
1.136368184092046022e+03 6.460940197376249979e-04
1.137268634317158558e+03 6.633826213514911049e-04
1.138169084542271094e+03 6.783741562570304610e-04
1.139069534767383630e+03 6.911876641088217626e-04
1.139969984992496165e+03 7.053405269688271285e-04
1.140870435217608701e+03 7.227661147824188245e-04
1.141770885442721237e+03 7.443342366557164323e-04
1.142671335667833773e+03 7.712268055954270285e-04
1.143571785892946309e+03 8.034985755902546416e-04
1.144472236118059072e+03 8.429795519707043803e-04
1.145372686343171608e+03 8.934686572846777669e-04
1.146273136568284144e+03 9.546839156348400912e-04
1.147173586793396680e+03 1.023019076861880153e-03
1.148074037018509216e+03 1.100624620087913008e-03
1.148974487243621752e+03 1.189851340910739758e-03
1.149874937468734288e+03 1.281924570218945887e-03
1.150775387693846824e+03 1.367581951415129064e-03
1.151675837918959360e+03 1.453257449805387931e-03
1.152576288144071896e+03 1.552844305546511759e-03
1.153476738369184432e+03 1.675645132931013765e-03
1.154377188594297195e+03 1.816197070304829964e-03
1.155277638819409731e+03 1.948872669598847654e-03
1.156178089044522267e+03 2.048339581753859211e-03
1.157078539269634803e+03 2.110548517323521112e-03
1.157978989494747339e+03 2.157645004378035830e-03
1.158879439719859874e+03 2.217855221871232671e-03
1.159779889944972410e+03 2.293542356805473165e-03
1.160680340170084946e+03 2.365140571276155672e-03
1.161580790395197482e+03 2.414969767285537507e-03
1.162481240620310018e+03 2.434859765285706055e-03
1.163381690845422554e+03 2.420743366123519029e-03
1.164282141070535317e+03 2.371836636247586297e-03
1.165182591295647853e+03 2.298400161882219357e-03
1.166083041520760389e+03 2.214319066753115371e-03
1.166983491745872925e+03 2.126448025228006283e-03
1.167883941970985461e+03 2.035101734035614507e-03
1.168784392196097997e+03 1.946310663510074064e-03
1.169684842421210533e+03 1.868027578315103890e-03
1.170585292646323069e+03 1.797989097868515863e-03
1.171485742871435605e+03 1.733739207104470492e-03
1.172386193096548141e+03 1.675945078463464541e-03
1.173286643321660677e+03 1.621292126851829694e-03
1.174187093546773440e+03 1.568444527411821682e-03
1.175087543771885976e+03 1.522954275010500458e-03
1.175987993996998512e+03 1.489995253810996560e-03
1.176888444222111048e+03 1.467078048355216664e-03
1.177788894447223583e+03 1.445689091321266740e-03
1.178689344672336119e+03 1.421346602617600549e-03
1.179589794897448655e+03 1.396581324624319217e-03
1.180490245122561191e+03 1.371987775132881568e-03
1.181390695347673727e+03 1.343035924505015096e-03
1.182291145572786263e+03 1.307471053582940322e-03
1.183191595797898799e+03 1.272735400183777708e-03
1.184092046023011562e+03 1.252191655697790056e-03
1.184992496248124098e+03 1.253599106163008712e-03
1.185892946473236634e+03 1.271591394908257004e-03
1.186793396698349170e+03 1.294484797303288321e-03
1.187693846923461706e+03 1.315414412606331256e-03
1.188594297148574242e+03 1.329742894789154957e-03
1.189494747373686778e+03 1.332319791762806137e-03
1.190395197598799314e+03 1.326259311732397479e-03
1.191295647823911850e+03 1.321481757397468962e-03
1.192196098049024386e+03 1.321890458517070276e-03
1.193096548274136921e+03 1.321179599372477014e-03
1.193996998499249457e+03 1.312677084201980182e-03
1.194897448724362221e+03 1.297863829784659398e-03
1.195797898949474757e+03 1.279790733288392948e-03
1.196698349174587293e+03 1.257722962534419970e-03
1.197598799399699828e+03 1.230165482783066207e-03
1.198499249624812364e+03 1.201727150665508588e-03
1.199399699849924900e+03 1.179623550521689520e-03
1.200300150075037436e+03 1.164350223479915323e-03
1.201200600300149972e+03 1.152324073992274257e-03
1.202101050525262508e+03 1.141054181425048882e-03
1.203001500750375044e+03 1.131683457169497435e-03
1.203901950975487580e+03 1.125651846395991137e-03
1.204802401200600343e+03 1.119860800362644081e-03
1.205702851425712879e+03 1.111295841150125889e-03
1.206603301650825415e+03 1.098949945306421788e-03
1.207503751875937951e+03 1.081878627348273033e-03
1.208404202101050487e+03 1.061859428259955126e-03
1.209304652326163023e+03 1.042832145182234771e-03
1.210205102551275559e+03 1.027494162895234951e-03
1.211105552776388095e+03 1.015998122791224615e-03
1.212006003001500630e+03 1.006313610218651216e-03
1.212906453226613166e+03 9.954463328491593502e-04
1.213806903451725702e+03 9.843288366249180240e-04
1.214707353676838466e+03 9.778208935597059500e-04
1.215607803901951002e+03 9.774712306307399221e-04
1.216508254127063537e+03 9.790408209620804665e-04
1.217408704352176073e+03 9.777324288237757878e-04
1.218309154577288609e+03 9.724955189949356562e-04
1.219209604802401145e+03 9.632175733944811375e-04
1.220110055027513681e+03 9.495463240950207913e-04
1.221010505252626217e+03 9.340858685616852198e-04
1.221910955477738753e+03 9.216044476513690110e-04
1.222811405702851289e+03 9.149507559384627460e-04
1.223711855927963825e+03 9.122454162523664558e-04
1.224612306153076588e+03 9.099588828980711584e-04
1.225512756378189124e+03 9.052406326705529638e-04
1.226413206603301660e+03 8.968615726017457402e-04
1.227313656828414196e+03 8.862181029715771518e-04
1.228214107053526732e+03 8.742306033244964109e-04
1.229114557278639268e+03 8.608401473367501998e-04
1.230015007503751804e+03 8.514884605873205246e-04
1.230915457728864340e+03 8.551853358075647577e-04
1.231815907953976875e+03 8.715764027186565909e-04
1.232716358179089411e+03 8.895296449743078085e-04
1.233616808404201947e+03 9.005868616362434605e-04
1.234517258629314711e+03 9.076383266943724003e-04
1.235417708854427246e+03 9.191137396398173232e-04
1.236318159079539782e+03 9.389103680326073677e-04
1.237218609304652318e+03 9.631919357851611262e-04
1.238119059529764854e+03 9.848035542047680387e-04
1.239019509754877390e+03 9.994587904720725075e-04
1.239919959979989926e+03 1.008126454466251555e-03
1.240820410205102462e+03 1.015544194773508038e-03
1.241720860430214998e+03 1.025302014042929000e-03
1.242621310655327534e+03 1.034645195756374921e-03
1.243521760880440070e+03 1.039369459020212305e-03
1.244422211105552606e+03 1.040428301821987901e-03
1.245322661330665369e+03 1.044489201503940061e-03
1.246223111555777905e+03 1.056261412219342607e-03
1.247123561780890441e+03 1.071132885231269828e-03
1.248024012006002977e+03 1.084192408233483357e-03
1.248924462231115513e+03 1.097105434704937973e-03
1.249824912456228049e+03 1.111212079179429817e-03
1.250725362681340584e+03 1.124888925212512826e-03
1.251625812906453120e+03 1.135745517244540238e-03
1.252526263131565656e+03 1.141856928853387555e-03
1.253426713356678192e+03 1.143049900519774566e-03
1.254327163581790728e+03 1.141513130601581232e-03
1.255227613806903491e+03 1.141755014010647617e-03
1.256128064032016027e+03 1.147728375281750106e-03
1.257028514257128563e+03 1.158461060084161557e-03
1.257928964482241099e+03 1.168237294264097385e-03
1.258829414707353635e+03 1.174478026633596871e-03
1.259729864932466171e+03 1.181138044457284405e-03
1.260630315157578707e+03 1.191901723576612674e-03
1.261530765382691243e+03 1.206039123918573649e-03
1.262431215607803779e+03 1.220666318897977495e-03
1.263331665832916315e+03 1.233602553417280845e-03
1.264232116058028851e+03 1.242820087195022202e-03
1.265132566283141614e+03 1.248795983723236360e-03
1.266033016508254150e+03 1.255919868714437714e-03
1.266933466733366686e+03 1.267849873086990872e-03
1.267833916958479222e+03 1.285212379192921623e-03
1.268734367183591758e+03 1.305821021235500316e-03
1.269634817408704293e+03 1.324472308591901530e-03
1.270535267633816829e+03 1.336045597046093669e-03
1.271435717858929365e+03 1.342562559835686975e-03
1.272336168084041901e+03 1.351108070687224907e-03
1.273236618309154437e+03 1.364866978401784673e-03
1.274137068534266973e+03 1.382715928306234472e-03
1.275037518759379736e+03 1.403199748943394221e-03
1.275937968984492272e+03 1.425683558646212261e-03
1.276838419209604808e+03 1.450543837666065953e-03
1.277738869434717344e+03 1.478918003294527701e-03
1.278639319659829880e+03 1.511452647695193854e-03
1.279539769884942416e+03 1.548140739998783320e-03
1.280440220110054952e+03 1.589073563129982623e-03
1.281340670335167488e+03 1.633480624216810057e-03
1.282241120560280024e+03 1.677099878507299063e-03
1.283141570785392560e+03 1.711719410229564295e-03
1.284042021010505096e+03 1.732560547554262741e-03
1.284942471235617859e+03 1.745104526962828551e-03
1.285842921460730395e+03 1.758156943815365790e-03
1.286743371685842931e+03 1.774641913018241719e-03
1.287643821910955467e+03 1.793618205608644772e-03
1.288544272136068003e+03 1.813800611499334203e-03
1.289444722361180538e+03 1.832223430698961967e-03
1.290345172586293074e+03 1.846486537829694456e-03
1.291245622811405610e+03 1.858748481330842932e-03
1.292146073036518146e+03 1.876485711790577219e-03
1.293046523261630682e+03 1.904576298717642908e-03
1.293946973486743218e+03 1.937570735790250997e-03
1.294847423711855754e+03 1.966480308867115962e-03
1.295747873936968517e+03 1.988880223409217069e-03
1.296648324162081053e+03 2.008084691489892080e-03
1.297548774387193589e+03 2.026318988569717015e-03
1.298449224612306125e+03 2.043598139750389415e-03
1.299349674837418661e+03 2.061030988414697899e-03
1.300250125062531197e+03 2.081336361765959674e-03
1.301150575287643733e+03 2.106818691838267549e-03
1.302051025512756269e+03 2.137917396420678431e-03
1.302951475737868805e+03 2.172543738109421110e-03
1.303851925962981340e+03 2.208737062150027426e-03
1.304752376188093876e+03 2.245697889964864014e-03
1.305652826413206640e+03 2.280929625899380184e-03
1.306553276638319176e+03 2.312481684583136184e-03
1.307453726863431712e+03 2.343539229163543128e-03
1.308354177088544247e+03 2.378256913832083388e-03
1.309254627313656783e+03 2.414107439717472475e-03
1.310155077538769319e+03 2.444400970227234276e-03
1.311055527763881855e+03 2.465272204491815965e-03
1.311955977988994391e+03 2.477933529990978927e-03
1.312856428214106927e+03 2.488331403455465961e-03
1.313756878439219463e+03 2.504374896934193767e-03
1.314657328664331999e+03 2.532425297489527410e-03
1.315557778889444762e+03 2.574176223323440104e-03
1.316458229114557298e+03 2.625556014738376995e-03
1.317358679339669834e+03 2.680659109975240886e-03
1.318259129564782370e+03 2.735956033148613086e-03
1.319159579789894906e+03 2.790823765721164862e-03
1.320060030015007442e+03 2.848104820587748966e-03
1.320960480240119978e+03 2.913766121388370201e-03
1.321860930465232514e+03 2.992005562317068181e-03
1.322761380690345050e+03 3.076558104872521328e-03
1.323661830915457585e+03 3.154274295235331722e-03
1.324562281140570121e+03 3.217713994631997941e-03
1.325462731365682885e+03 3.266257313120377124e-03
1.326363181590795421e+03 3.305671107984688075e-03
1.327263631815907956e+03 3.347487292042239902e-03
1.328164082041020492e+03 3.405714590958693229e-03
1.329064532266133028e+03 3.490014463487132405e-03
1.329964982491245564e+03 3.598956497101172235e-03
1.330865432716358100e+03 3.720121464782618920e-03
1.331765882941470636e+03 3.843265741221822858e-03
1.332666333166583172e+03 3.971646830832105055e-03
1.333566783391695708e+03 4.110279213897262418e-03
1.334467233616808244e+03 4.251698380149838627e-03
1.335367683841921007e+03 4.380226344707588947e-03
1.336268134067033543e+03 4.481209952510075041e-03
1.337168584292146079e+03 4.549177257812541883e-03
1.338069034517258615e+03 4.597169255436671723e-03
1.338969484742371151e+03 4.648174068178444369e-03
1.339869934967483687e+03 4.712152083202963450e-03
1.340770385192596223e+03 4.788274555474510488e-03
1.341670835417708759e+03 4.877081249728822815e-03
1.342571285642821294e+03 4.977755296252933150e-03
1.343471735867933830e+03 5.079833813617159501e-03
1.344372186093046366e+03 5.176964051877172741e-03
1.345272636318158902e+03 5.281329510576128657e-03
1.346173086543271666e+03 5.404057756281798776e-03
1.347073536768384201e+03 5.545091073217595437e-03
1.347973986993496737e+03 5.708476473295344411e-03
1.348874437218609273e+03 5.894350579169960712e-03
1.349774887443721809e+03 6.085306493071734879e-03
1.350675337668834345e+03 6.258644805001272078e-03
1.351575787893946881e+03 6.407368090655946383e-03
1.352476238119059417e+03 6.541997110777319525e-03
1.353376688344171953e+03 6.671989552998450548e-03
1.354277138569284489e+03 6.806748714780792332e-03
1.355177588794397025e+03 6.953901453966552897e-03
1.356078039019509788e+03 7.106898916400863561e-03
1.356978489244622324e+03 7.252561265766381375e-03
1.357878939469734860e+03 7.389510066614453712e-03
1.358779389694847396e+03 7.537689125493240994e-03
1.359679839919959932e+03 7.716128407077588701e-03
1.360580290145072468e+03 7.930111626160920094e-03
1.361480740370185003e+03 8.183293624077743814e-03
1.362381190595297539e+03 8.463645413257090550e-03
1.363281640820410075e+03 8.736664766746081445e-03
1.364182091045522611e+03 8.999834423514426612e-03
1.365082541270635147e+03 9.295784453844591760e-03
1.365982991495747910e+03 9.648347127617164926e-03
1.366883441720860446e+03 1.004180938551810232e-02
1.367783891945972982e+03 1.043350693811662643e-02
1.368684342171085518e+03 1.075365112293349447e-02
1.369584792396198054e+03 1.096044572824566091e-02
1.370485242621310590e+03 1.109893008123034354e-02
1.371385692846423126e+03 1.124356171551518617e-02
1.372286143071535662e+03 1.141843340425035408e-02
1.373186593296648198e+03 1.159938938063598442e-02
1.374087043521760734e+03 1.178097090128487831e-02
1.374987493746873270e+03 1.199106497383272373e-02
1.375887943971986033e+03 1.225329780426695145e-02
1.376788394197098569e+03 1.259103514751182956e-02
1.377688844422211105e+03 1.300899954527412819e-02
1.378589294647323641e+03 1.345761791961217271e-02
1.379489744872436177e+03 1.389324051987609297e-02
1.380390195097548713e+03 1.432308838159896888e-02
1.381290645322661248e+03 1.475309882378273742e-02
1.382191095547773784e+03 1.512789582368745563e-02
1.383091545772886320e+03 1.537886519106757520e-02
1.383991995997998856e+03 1.552711456918749212e-02
1.384892446223111392e+03 1.565589812362335950e-02
1.385792896448224155e+03 1.581211596782229264e-02
1.386693346673336691e+03 1.598931987696395815e-02
1.387593796898449227e+03 1.616745779902217101e-02
1.388494247123561763e+03 1.633159336171087148e-02
1.389394697348674299e+03 1.649432877408174916e-02
1.390295147573786835e+03 1.669034377583373044e-02
1.391195597798899371e+03 1.695038003756969835e-02
1.392096048024011907e+03 1.727070857380472862e-02
1.392996498249124443e+03 1.758130599061977217e-02
1.393896948474236979e+03 1.778815210645587341e-02
1.394797398699349515e+03 1.786899987578246737e-02
1.395697848924462278e+03 1.785321799291182329e-02
1.396598299149574814e+03 1.774191900095080723e-02
1.397498749374687350e+03 1.754667183514353745e-02
1.398399199599799886e+03 1.732763089709771567e-02
1.399299649824912422e+03 1.715648172084191861e-02
1.400200100050024957e+03 1.706243831822219087e-02
1.401100550275137493e+03 1.700367912530397624e-02
1.402001000500250029e+03 1.693679005394739881e-02
1.402901450725362565e+03 1.686844775850798728e-02
1.403801900950475101e+03 1.681895488886676546e-02
1.404702351175587637e+03 1.679733609865656160e-02
1.405602801400700173e+03 1.680837886165038875e-02
1.406503251625812936e+03 1.683776637278582358e-02
1.407403701850925472e+03 1.681032974606207556e-02
1.408304152076038008e+03 1.665403704407984742e-02
1.409204602301150544e+03 1.641424443387801482e-02
1.410105052526263080e+03 1.617706689421972641e-02
1.411005502751375616e+03 1.597250885949347970e-02
1.411905952976488152e+03 1.579396108364500284e-02
1.412806403201600688e+03 1.561347465746860258e-02
1.413706853426713224e+03 1.541234284139369332e-02
1.414607303651825760e+03 1.519713783754575616e-02
1.415507753876938295e+03 1.498497344670814135e-02
1.416408204102051059e+03 1.478214085647825554e-02
1.417308654327163595e+03 1.456985754238683366e-02
1.418209104552276131e+03 1.431934938544597233e-02
1.419109554777388666e+03 1.401997258422040850e-02
1.420010005002501202e+03 1.369999451565171930e-02
1.420910455227613738e+03 1.339046033806698573e-02
1.421810905452726274e+03 1.307944306531352505e-02
1.422711355677838810e+03 1.275040678204541512e-02
1.423611805902951346e+03 1.242130932483564466e-02
1.424512256128063882e+03 1.211262452956718416e-02
1.425412706353176418e+03 1.181676347247285694e-02
1.426313156578289181e+03 1.151571444948533071e-02
1.427213606803401717e+03 1.120159807363938637e-02
1.428114057028514253e+03 1.087916810376628185e-02
1.429014507253626789e+03 1.056825372897061965e-02
1.429914957478739325e+03 1.029982813605944542e-02
1.430815407703851861e+03 1.008665307438488291e-02
1.431715857928964397e+03 9.891564648952837907e-03
1.432616308154076933e+03 9.664026570412004996e-03
1.433516758379189469e+03 9.393741868577634019e-03
1.434417208604302004e+03 9.118246036273513697e-03
1.435317658829414540e+03 8.869835079870751898e-03
1.436218109054527304e+03 8.629454288583542423e-03
1.437118559279639840e+03 8.359765488084515417e-03
1.438019009504752376e+03 8.058731217453535614e-03
1.438919459729864911e+03 7.763488596228794447e-03
1.439819909954977447e+03 7.511053322556051487e-03
1.440720360180089983e+03 7.309148605474518300e-03
1.441620810405202519e+03 7.144574393155962537e-03
1.442521260630315055e+03 6.998974195094772623e-03
1.443421710855427591e+03 6.857926714818131202e-03
1.444322161080540127e+03 6.719880215096668032e-03
1.445222611305652663e+03 6.586509663065899869e-03
1.446123061530765426e+03 6.454962120322860035e-03
1.447023511755877962e+03 6.328055349482443817e-03
1.447923961980990498e+03 6.219468339613271231e-03
1.448824412206103034e+03 6.129357761058645999e-03
1.449724862431215570e+03 6.032874854183855294e-03
1.450625312656328106e+03 5.910528266190517507e-03
1.451525762881440642e+03 5.760812134521607966e-03
1.452426213106553178e+03 5.586461475991089456e-03
1.453326663331665713e+03 5.402115645805259832e-03
1.454227113556778249e+03 5.242240661835980559e-03
1.455127563781890785e+03 5.131091041832960657e-03
1.456028014007003321e+03 5.052768091394573349e-03
1.456928464232116085e+03 4.975225563751770747e-03
1.457828914457228620e+03 4.881857396558024996e-03
1.458729364682341156e+03 4.771125662416803026e-03
1.459629814907453692e+03 4.653087689720582058e-03
1.460530265132566228e+03 4.544755042569250357e-03
1.461430715357678764e+03 4.461494578552950216e-03
1.462331165582791300e+03 4.404705848507623617e-03
1.463231615807903836e+03 4.344789676276529511e-03
1.464132066033016372e+03 4.243038988612566134e-03
1.465032516258128908e+03 4.103638286874621878e-03
1.465932966483241444e+03 3.965964035836259081e-03
1.466833416708354207e+03 3.860119495675711811e-03
1.467733866933466743e+03 3.790635851029800548e-03
1.468634317158579279e+03 3.745213168895232276e-03
1.469534767383691815e+03 3.709442767872026241e-03
1.470435217608804351e+03 3.673839485051782518e-03
1.471335667833916887e+03 3.634338910235606485e-03
1.472236118059029423e+03 3.585646010962052939e-03
1.473136568284141958e+03 3.518962531480022363e-03
1.474037018509254494e+03 3.432704031338686384e-03
1.474937468734367030e+03 3.338954478431538624e-03
1.475837918959479566e+03 3.252943550288576752e-03
1.476738369184592329e+03 3.178253717741750823e-03
1.477638819409704865e+03 3.108237587472079469e-03
1.478539269634817401e+03 3.029331296053704246e-03
1.479439719859929937e+03 2.923223886267935310e-03
1.480340170085042473e+03 2.787843628800415734e-03
1.481240620310155009e+03 2.646761093490776397e-03
1.482141070535267545e+03 2.524218469605951295e-03
1.483041520760380081e+03 2.427481816033343759e-03
1.483941970985492617e+03 2.352262673859328076e-03
1.484842421210605153e+03 2.292188370363448368e-03
1.485742871435717689e+03 2.242431981983453778e-03
1.486643321660830452e+03 2.203208471399767648e-03
1.487543771885942988e+03 2.176202362511428772e-03
1.488444222111055524e+03 2.159741690894259082e-03
1.489344672336168060e+03 2.150069047594850048e-03
1.490245122561280596e+03 2.141740286015996527e-03
1.491145572786393132e+03 2.127506643691799010e-03
1.492046023011505667e+03 2.104311187121185502e-03
1.492946473236618203e+03 2.077814517788091793e-03
1.493846923461730739e+03 2.051009269335626189e-03
1.494747373686843275e+03 2.017923344169747415e-03
1.495647823911955811e+03 1.973747707031226189e-03
1.496548274137068574e+03 1.923042208812617828e-03
1.497448724362181110e+03 1.871620387997192589e-03
1.498349174587293646e+03 1.818644086874161630e-03
1.499249624812406182e+03 1.765660889288834471e-03
1.500150075037518718e+03 1.718485687891096146e-03
1.501050525262631254e+03 1.679072056401753480e-03
1.501950975487743790e+03 1.644862202094017059e-03
1.502851425712856326e+03 1.612472170256212117e-03
1.503751875937968862e+03 1.581606551748581226e-03
1.504652326163081398e+03 1.559107877034703873e-03
1.505552776388193934e+03 1.554281438411463838e-03
1.506453226613306470e+03 1.568661328155108829e-03
1.507353676838419233e+03 1.595313563695617423e-03
1.508254127063531769e+03 1.626609226811074477e-03
1.509154577288644305e+03 1.655670938485454859e-03
1.510055027513756841e+03 1.672856933378513928e-03
1.510955477738869376e+03 1.671387598972067781e-03
1.511855927963981912e+03 1.655132579386509603e-03
1.512756378189094448e+03 1.633928882713464158e-03
1.513656828414206984e+03 1.612557876354592549e-03
1.514557278639319520e+03 1.593098316671069182e-03
1.515457728864432056e+03 1.577677236455102012e-03
1.516358179089544592e+03 1.562752469863331554e-03
1.517258629314657355e+03 1.542697830840976956e-03
1.518159079539769891e+03 1.519104860005714716e-03
1.519059529764882427e+03 1.500054222898498501e-03
1.519959979989994963e+03 1.489034249799835738e-03
1.520860430215107499e+03 1.481490062177774885e-03
1.521760880440220035e+03 1.473931104449500854e-03
1.522661330665332571e+03 1.462594463577120054e-03
1.523561780890445107e+03 1.443587442647664048e-03
1.524462231115557643e+03 1.421448212187906204e-03
1.525362681340670179e+03 1.403034794683609117e-03
1.526263131565782714e+03 1.388493078334503139e-03
1.527163581790895478e+03 1.372944747446911296e-03
1.528064032016008014e+03 1.351753802829208087e-03
1.528964482241120550e+03 1.323776746304312869e-03
1.529864932466233086e+03 1.294748943554594562e-03
1.530765382691345621e+03 1.273689031632702908e-03
1.531665832916458157e+03 1.264166306043129151e-03
1.532566283141570693e+03 1.262689797651412151e-03
1.533466733366683229e+03 1.263679305168816623e-03
1.534367183591795765e+03 1.264667497448201255e-03
1.535267633816908301e+03 1.263602426418055985e-03
1.536168084042020837e+03 1.258025149564911743e-03
1.537068534267133600e+03 1.247531834574914459e-03
1.537968984492246136e+03 1.232187089425537977e-03
1.538869434717358672e+03 1.213593155292058516e-03
1.539769884942471208e+03 1.193800939122817342e-03
1.540670335167583744e+03 1.171697635893546125e-03
1.541570785392696280e+03 1.144955972627414607e-03
1.542471235617808816e+03 1.115091393181845717e-03
1.543371685842921352e+03 1.087442012506535617e-03
1.544272136068033888e+03 1.067032728257109658e-03
1.545172586293146423e+03 1.056829829994581109e-03
1.546073036518258959e+03 1.054247035074085256e-03
1.546973486743371723e+03 1.050360346985997409e-03
1.547873936968484259e+03 1.036748195305745414e-03
1.548774387193596795e+03 1.009379780495264908e-03
1.549674837418709330e+03 9.703417853913847389e-04
1.550575287643821866e+03 9.261319693062653119e-04
1.551475737868934402e+03 8.853119120365367418e-04
1.552376188094046938e+03 8.561998990707186778e-04
1.553276638319159474e+03 8.406545427740094723e-04
1.554177088544272010e+03 8.332483244743209760e-04
1.555077538769384546e+03 8.278973947230502169e-04
1.555977988994497082e+03 8.200208339876677429e-04
1.556878439219609618e+03 8.052865669184284354e-04
1.557778889444722381e+03 7.816939052128194952e-04
1.558679339669834917e+03 7.514594550105582055e-04
1.559579789894947453e+03 7.179558894620789071e-04
1.560480240120059989e+03 6.818274281400225423e-04
1.561380690345172525e+03 6.440300185823162127e-04
1.562281140570285061e+03 6.074318044539352883e-04
1.563181590795397597e+03 5.756868787508653178e-04
1.564082041020510133e+03 5.516594002698314110e-04
1.564982491245622668e+03 5.364041563258655377e-04
1.565882941470735204e+03 5.282188869077385522e-04
1.566783391695847740e+03 5.207608450101375948e-04
1.567683841920960504e+03 5.056781848886711785e-04
1.568584292146073039e+03 4.824873908098084281e-04
1.569484742371185575e+03 4.574017571814408857e-04
1.570385192596298111e+03 4.317072758327950596e-04
1.571285642821410647e+03 4.014698575155631159e-04
1.572186093046523183e+03 3.655929249870537275e-04
1.573086543271635719e+03 3.276583436768518284e-04
1.573986993496748255e+03 2.922526603462646008e-04
1.574887443721860791e+03 2.627295620129851527e-04
1.575787893946973327e+03 2.383140103858269324e-04
1.576688344172085863e+03 2.156094897668984665e-04
1.577588794397198626e+03 1.939903321637857661e-04
1.578489244622311162e+03 1.754533645833812009e-04
1.579389694847423698e+03 1.611199361761474951e-04
1.580290145072536234e+03 1.505964342906323931e-04
1.581190595297648770e+03 1.427829857521563232e-04
1.582091045522761306e+03 1.364166211756111279e-04
1.582991495747873842e+03 1.306160185531373362e-04
1.583891945972986377e+03 1.251615990838767347e-04
1.584792396198098913e+03 1.199989965670915837e-04
1.585692846423211449e+03 1.151880131916148289e-04
1.586593296648323985e+03 1.108673587358926973e-04
1.587493746873436749e+03 1.070205790972182734e-04
1.588394197098549284e+03 1.038333200920277602e-04
1.589294647323661820e+03 1.016567465178229717e-04
1.590195097548774356e+03 1.005962299239929550e-04
1.591095547773886892e+03 1.003747118514789518e-04
1.591995997998999428e+03 1.004403461822159167e-04
1.592896448224111964e+03 1.002597507052273957e-04
1.593796898449224500e+03 9.951099511208676824e-05
1.594697348674337036e+03 9.835451259548755472e-05
1.595597798899449572e+03 9.712273608862394205e-05
1.596498249124562108e+03 9.593346474165471039e-05
1.597398699349674871e+03 9.539018531323369111e-05
1.598299149574787407e+03 9.615109602828387082e-05
1.599199599799899943e+03 9.765990971622572493e-05
1.600100050025012479e+03 9.808008226337961669e-05
1.601000500250125015e+03 9.627244966652123823e-05
1.601900950475237551e+03 9.292967240287891811e-05
1.602801400700350086e+03 8.938213971054897598e-05
1.603701850925462622e+03 8.676992723639318514e-05
1.604602301150575158e+03 8.531612690629650090e-05
1.605502751375687694e+03 8.438332064605290350e-05
1.606403201600800230e+03 8.340955326046006974e-05
1.607303651825912766e+03 8.204274110942180850e-05
1.608204102051025529e+03 7.974472041548415885e-05
1.609104552276138065e+03 7.636122519606883361e-05
1.610005002501250601e+03 7.242218212680608721e-05
1.610905452726363137e+03 6.875798527469659336e-05
1.611805902951475673e+03 6.590251835873743743e-05
1.612706353176588209e+03 6.396561979881282007e-05
1.613606803401700745e+03 6.290026256815837524e-05
1.614507253626813281e+03 6.266837641106479681e-05
1.615407703851925817e+03 6.320628441944522113e-05
1.616308154077038353e+03 6.419663915050345812e-05
1.617208604302150889e+03 6.483690481727134706e-05
1.618109054527263652e+03 6.421773095833746298e-05
1.619009504752376188e+03 6.227601408213836683e-05
1.619909954977488724e+03 5.984280262491866321e-05
1.620810405202601260e+03 5.764989838398446303e-05
1.621710855427713796e+03 5.599550280351715299e-05
1.622611305652826331e+03 5.499390993157454006e-05
1.623511755877938867e+03 5.466638935393236347e-05
1.624412206103051403e+03 5.494408641561980539e-05
1.625312656328163939e+03 5.550984757120238402e-05
1.626213106553276475e+03 5.557711986487355382e-05
1.627113556778389011e+03 5.443790923439978049e-05
1.628014007003501774e+03 5.234660056611015167e-05
1.628914457228614310e+03 5.004758867772947107e-05
1.629814907453726846e+03 4.801772401929906128e-05
1.630715357678839382e+03 4.639639401266055276e-05
1.631615807903951918e+03 4.514967145582994004e-05
1.632516258129064454e+03 4.420545698010539622e-05
1.633416708354176990e+03 4.350885332805113492e-05
1.634317158579289526e+03 4.302406866034964980e-05
1.635217608804402062e+03 4.269822939648312902e-05
1.636118059029514598e+03 4.239106167178522679e-05
1.637018509254627133e+03 4.188540219924962284e-05
1.637918959479739897e+03 4.112014773259739487e-05
1.638819409704852433e+03 4.026675852619466525e-05
1.639719859929964969e+03 3.948192152647052604e-05
1.640620310155077505e+03 3.880883943249338998e-05
1.641520760380190040e+03 3.823602530131697466e-05
1.642421210605302576e+03 3.774332069294759445e-05
1.643321660830415112e+03 3.731592673714286093e-05
1.644222111055527648e+03 3.694629239021564478e-05
1.645122561280640184e+03 3.663366517012512974e-05
1.646023011505752720e+03 3.638414835742929016e-05
1.646923461730865256e+03 3.621199003125484241e-05
1.647823911955978019e+03 3.614228219932867067e-05
1.648724362181090555e+03 3.621434027441839282e-05
1.649624812406203091e+03 3.648089129106534928e-05
1.650525262631315627e+03 3.698353967273363384e-05
1.651425712856428163e+03 3.765514648875003558e-05
1.652326163081540699e+03 3.814160612107956910e-05
1.653226613306653235e+03 3.789795175363987510e-05
1.654127063531765771e+03 3.686102435441733906e-05
1.655027513756878307e+03 3.554703320865200498e-05
1.655927963981990843e+03 3.436462031316946071e-05
1.656828414207103378e+03 3.341497726289822522e-05
1.657728864432216142e+03 3.266340438423867559e-05
1.658629314657328678e+03 3.205431393493841745e-05
1.659529764882441214e+03 3.154352159817118222e-05
1.660430215107553749e+03 3.110075439037723752e-05
1.661330665332666285e+03 3.070604474664535431e-05
1.662231115557778821e+03 3.034622594566923530e-05
1.663131565782891357e+03 3.001248964344601115e-05
1.664032016008003893e+03 2.969882366923921771e-05
1.664932466233116429e+03 2.940103372413345275e-05
1.665832916458228965e+03 2.911612891490930285e-05
1.666733366683341501e+03 2.884193076934566150e-05
1.667633816908454037e+03 2.857682016554612017e-05
1.668534267133566800e+03 2.831957047416453459e-05
1.669434717358679336e+03 2.806923548399809342e-05
1.670335167583791872e+03 2.782507275782059361e-05
1.671235617808904408e+03 2.758649031178142365e-05
1.672136068034016944e+03 2.735300891590823101e-05
1.673036518259129480e+03 2.712423503125036852e-05
1.673936968484242016e+03 2.689984110403226641e-05
1.674837418709354552e+03 2.667955102416522364e-05
1.675737868934467087e+03 2.646312925969143161e-05
1.676638319159579623e+03 2.625037264211131869e-05
1.677538769384692159e+03 2.604110408697805391e-05
1.678439219609804923e+03 2.583516774371543873e-05
1.679339669834917459e+03 2.563242521244198940e-05
1.680240120060029994e+03 2.543275256557382631e-05
1.681140570285142530e+03 2.523603798229384442e-05
1.682041020510255066e+03 2.504217985401377414e-05
1.682941470735367602e+03 2.485108525492902155e-05
1.683841920960480138e+03 2.466266869790056167e-05
1.684742371185592674e+03 2.447685111505759997e-05
1.685642821410705210e+03 2.429355901670467063e-05
1.686543271635817746e+03 2.411272379269675944e-05
1.687443721860930282e+03 2.393428112841992914e-05
1.688344172086043045e+03 2.375817051355252879e-05
1.689244622311155581e+03 2.358433482640702431e-05
1.690145072536268117e+03 2.341271998019688980e-05
1.691045522761380653e+03 2.324327462033739326e-05
1.691945972986493189e+03 2.307594986402553046e-05
1.692846423211605725e+03 2.291069907503729826e-05
1.693746873436718261e+03 2.274747766800374070e-05
1.694647323661830796e+03 2.258624293748515851e-05
1.695547773886943332e+03 2.242695390800592822e-05
1.696448224112055868e+03 2.226957120188356233e-05
1.697348674337168404e+03 2.211405692223607482e-05
1.698249124562281168e+03 2.196037454898624054e-05
1.699149574787393703e+03 2.180848884604697397e-05
1.700050025012506239e+03 2.165836577816045787e-05
1.700950475237618775e+03 2.150997243610510012e-05
1.701850925462731311e+03 2.136327696918805812e-05
1.702751375687843847e+03 2.121824852409875370e-05
1.703651825912956383e+03 2.107485718933874123e-05
1.704552276138068919e+03 2.093307394455887815e-05
1.705452726363181455e+03 2.079287061422609419e-05
1.706353176588293991e+03 2.065421982512676588e-05
1.707253626813406527e+03 2.051709496727679988e-05
1.708154077038519290e+03 2.038147015786918675e-05
1.709054527263631826e+03 2.024732020793827388e-05
1.709954977488744362e+03 2.011462059145601578e-05
1.710855427713856898e+03 1.998334741662089782e-05
1.711755877938969434e+03 1.985347739911865790e-05
1.712656328164081970e+03 1.972498783716914979e-05
1.713556778389194506e+03 1.959785658819214062e-05
1.714457228614307041e+03 1.947206204694281888e-05
1.715357678839419577e+03 1.934758312498894510e-05
1.716258129064532113e+03 1.922439923141041666e-05
1.717158579289644649e+03 1.910249025462146307e-05
1.718059029514757185e+03 1.898183654521897072e-05
1.718959479739869948e+03 1.886241889977780418e-05
1.719859929964982484e+03 1.874421854551618259e-05
1.720760380190095020e+03 1.862721712576564950e-05
1.721660830415207556e+03 1.851139668618541844e-05
1.722561280640320092e+03 1.839673966166534286e-05
1.723461730865432628e+03 1.828322886387081161e-05
1.724362181090545164e+03 1.817084746938135698e-05
1.725262631315657700e+03 1.805957900838616310e-05
1.726163081540770236e+03 1.794940735389531248e-05
1.727063531765882772e+03 1.784031671143795103e-05
1.727963981990995308e+03 1.773229160921072908e-05
1.728864432216108071e+03 1.762531688865332996e-05
1.729764882441220607e+03 1.751937769542232767e-05
1.730665332666333143e+03 1.741445947073908074e-05
1.731565782891445679e+03 1.731054794309233979e-05
1.732466233116558215e+03 1.720762912027261414e-05
1.733366683341670750e+03 1.710568928171993729e-05
1.734267133566783286e+03 1.700471497117069937e-05
1.735167583791895822e+03 1.690469298958158467e-05
1.736068034017008358e+03 1.680561038832217117e-05
1.736968484242120894e+03 1.670745446261770968e-05
1.737868934467233430e+03 1.661021274523113558e-05
1.738769384692346193e+03 1.651387300037226153e-05
1.739669834917458729e+03 1.641842321782201842e-05
1.740570285142571265e+03 1.632385160726217279e-05
1.741470735367683801e+03 1.623014659280072255e-05
1.742371185592796337e+03 1.613729680768234223e-05
1.743271635817908873e+03 1.604529108917753864e-05
1.744172086043021409e+03 1.595411847364064050e-05
1.745072536268133945e+03 1.586376819172911746e-05
1.745972986493246481e+03 1.577422966377876995e-05
1.746873436718359017e+03 1.568549249532645877e-05
1.747773886943471553e+03 1.559754647277279154e-05
1.748674337168584316e+03 1.551038155918329909e-05
1.749574787393696852e+03 1.542398789021730371e-05
1.750475237618809388e+03 1.533835577018173159e-05
1.751375687843921924e+03 1.525347566820560368e-05
1.752276138069034459e+03 1.516933821452786129e-05
1.753176588294146995e+03 1.508593419689618692e-05
1.754077038519259531e+03 1.500325455707149911e-05
1.754977488744372067e+03 1.492129038743396096e-05
1.755877938969484603e+03 1.484003292768766446e-05
1.756778389194597139e+03 1.475947356165863759e-05
1.757678839419709675e+03 1.467960381418424628e-05
1.758579289644822438e+03 1.460041534808937149e-05
1.759479739869934974e+03 1.452189996124739800e-05
1.760380190095047510e+03 1.444404958372177126e-05
1.761280640320160046e+03 1.436685627498634872e-05
1.762181090545272582e+03 1.429031222122075242e-05
1.763081540770385118e+03 1.421440973267882063e-05
1.763981990995497654e+03 1.413914124112751559e-05
1.764882441220610190e+03 1.406449929735366682e-05
1.765782891445722726e+03 1.399047656873564457e-05
1.766683341670835262e+03 1.391706583688025641e-05
1.767583791895947797e+03 1.384425999531846871e-05
1.768484242121060333e+03 1.377205204726298175e-05
1.769384692346173097e+03 1.370043510342095347e-05
1.770285142571285633e+03 1.362940237986370992e-05
1.771185592796398169e+03 1.355894719594954436e-05
1.772086043021510704e+03 1.348906297229848349e-05
1.772986493246623240e+03 1.341974322881765036e-05
1.773886943471735776e+03 1.335098158277524696e-05
1.774787393696848312e+03 1.328277174692190125e-05
1.775687843921960848e+03 1.321510752765782675e-05
1.776588294147073384e+03 1.314798282324419557e-05
1.777488744372185920e+03 1.308139162205811505e-05
1.778389194597298456e+03 1.301532800088851772e-05
1.779289644822411219e+03 1.294978612327322047e-05
1.780190095047523755e+03 1.288476023787553851e-05
1.781090545272636291e+03 1.282024467689806028e-05
1.781990995497748827e+03 1.275623385453434918e-05
1.782891445722861363e+03 1.269272226545652728e-05
1.783791895947973899e+03 1.262970448333732645e-05
1.784692346173086435e+03 1.256717515940653762e-05
1.785592796398198971e+03 1.250512902104030443e-05
1.786493246623311506e+03 1.244356087038212992e-05
1.787393696848424042e+03 1.238246558299581122e-05
1.788294147073536578e+03 1.232183810654744446e-05
1.789194597298649342e+03 1.226167345951842591e-05
1.790095047523761878e+03 1.220196672994557859e-05
1.790995497748874413e+03 1.214271307419021862e-05
1.791895947973986949e+03 1.208390771573329143e-05
1.792796398199099485e+03 1.202554594399828402e-05
1.793696848424212021e+03 1.196762311319818440e-05
1.794597298649324557e+03 1.191013464120858217e-05
1.795497748874437093e+03 1.185307600846470627e-05
1.796398199099549629e+03 1.179644275688152066e-05
1.797298649324662165e+03 1.174023048879838224e-05
1.798199099549774701e+03 1.168443486594432574e-05
1.799099549774887464e+03 1.162905160842636925e-05
1.800000000000000000e+03 1.157407649373909896e-05
