0.000000000000000000e+00 7.309488878526501600e-04
9.004502251125562351e-01 9.655191735943622700e-04
1.800900450225112470e+00 1.228353078918043495e-03
2.701350675337668594e+00 1.430547802546616948e-03
3.601800900450224940e+00 1.497829366675045145e-03
4.502251125562780842e+00 1.480200314673662870e-03
5.402701350675337189e+00 1.453128156251521199e-03
6.303151575787893535e+00 1.385927006064572361e-03
7.203601800900449881e+00 1.216067695359829975e-03
8.104052026013006227e+00 9.803477546999773279e-04
9.004502251125561685e+00 7.563158593851544275e-04
9.904952476238118919e+00 5.777018015979008131e-04
1.080540270135067438e+01 4.452431547422838797e-04
1.170585292646323161e+01 3.495478529719125223e-04
1.260630315157578707e+01 2.804289798245958006e-04
1.350675337668834430e+01 2.298364872142747567e-04
1.440720360180089976e+01 1.920827496009378757e-04
1.530765382691345522e+01 1.633136744959272368e-04
1.620810405202601245e+01 1.408693933825136933e-04
1.710855427713856969e+01 1.228221701048442702e-04
1.800900450225112337e+01 1.078666744424772763e-04
1.890945472736368060e+01 9.530459964495723165e-05
1.980990495247623784e+01 8.486303018339159726e-05
2.071035517758879507e+01 7.628878859394589362e-05
2.161080540270134875e+01 6.911978773135857681e-05
2.251125562781390599e+01 6.277713742151867554e-05
2.341170585292646322e+01 5.696241687204336946e-05
2.431215607803901690e+01 5.177969128087208360e-05
2.521260630315157414e+01 4.734542806023282356e-05
2.611305652826413137e+01 4.360805030272028849e-05
2.701350675337668861e+01 4.044467174340285367e-05
2.791395697848924229e+01 3.773982869825218334e-05
2.881440720360179952e+01 3.535790094231631612e-05
2.971485742871435676e+01 3.315006221067201092e-05
3.061530765382691044e+01 3.106688531043064097e-05
3.151575787893946767e+01 2.915199061219639389e-05
3.241620810405202491e+01 2.743520755199943905e-05
3.331665832916458214e+01 2.589844080706610964e-05
3.421710855427713938e+01 2.451443576972423596e-05
3.511755877938969661e+01 2.328145453368104151e-05
3.601800900450224674e+01 2.220423132072850514e-05
3.691845922961480397e+01 2.126512815890567535e-05
3.781890945472736121e+01 2.045230371773980077e-05
3.871935967983991844e+01 1.976615519008190897e-05
3.961980990495247568e+01 1.915911922589153674e-05
4.052026013006503291e+01 1.852234040770755905e-05
4.142071035517759015e+01 1.781956763320290954e-05
4.232116058029014027e+01 1.714564479180846347e-05
4.322161080540269751e+01 1.662319250793872126e-05
4.412206103051525474e+01 1.630196602880985493e-05
4.502251125562781198e+01 1.611269147680007165e-05
4.592296148074036921e+01 1.591363546660996123e-05
4.682341170585292645e+01 1.564515521948204308e-05
4.772386193096548368e+01 1.535618086529385519e-05
4.862431215607803381e+01 1.509148283025559476e-05
4.952476238119059104e+01 1.484505258240495344e-05
5.042521260630314828e+01 1.458000971976479744e-05
5.132566283141570551e+01 1.428163223457529506e-05
5.222611305652826275e+01 1.395378545937910569e-05
5.312656328164081998e+01 1.359696861136877714e-05
5.402701350675337721e+01 1.324954984836256687e-05
5.492746373186592734e+01 1.298196764296433315e-05
5.582791395697848458e+01 1.281701834550542902e-05
5.672836418209104181e+01 1.267800221384772993e-05
5.762881440720359905e+01 1.247187938450567246e-05
5.852926463231615628e+01 1.216960171054392727e-05
5.942971485742871351e+01 1.178400728508497797e-05
6.033016508254127075e+01 1.137132599297296570e-05
6.123061530765382088e+01 1.102665723135506032e-05
6.213106553276637811e+01 1.082340889989781404e-05
6.303151575787893535e+01 1.073427955141373146e-05
6.393196598299149258e+01 1.065003755602105890e-05
6.483241620810404982e+01 1.049999399918796274e-05
6.573286643321659994e+01 1.029549382277930311e-05
6.663331665832916428e+01 1.007985828040485984e-05
6.753376688344171441e+01 9.914954285442025857e-06
6.843421710855427875e+01 9.869606629502507094e-06
6.933466733366682888e+01 9.971686527818228433e-06
7.023511755877939322e+01 1.017242687181219360e-05
7.113556778389194335e+01 1.035758035359981530e-05
7.203601800900449348e+01 1.040729579304403191e-05
7.293646823411705782e+01 1.029620249917262664e-05
7.383691845922960795e+01 1.013715055964479030e-05
7.473736868434217229e+01 1.005085684286742582e-05
7.563781890945472242e+01 1.005583002189836133e-05
7.653826913456728676e+01 1.011290882936615194e-05
7.743871935967983688e+01 1.020508583186417846e-05
7.833916958479238701e+01 1.035368382046065870e-05
7.923961980990495135e+01 1.057886640896784924e-05
8.014007003501750148e+01 1.085643161474493207e-05
8.104052026013006582e+01 1.115849173974832542e-05
8.194097048524261595e+01 1.152434762712366766e-05
8.284142071035518029e+01 1.199731617587169708e-05
8.374187093546773042e+01 1.247751472979633711e-05
8.464232116058028055e+01 1.277113147198651971e-05
8.554277138569284489e+01 1.279855095417483217e-05
8.644322161080539502e+01 1.264323393741310739e-05
8.734367183591795936e+01 1.238578183448469515e-05
8.824412206103050949e+01 1.211304763173659551e-05
8.914457228614307382e+01 1.192293866952363513e-05
9.004502251125562395e+01 1.184903849847241830e-05
9.094547273636817408e+01 1.191635653533759889e-05
9.184592296148073842e+01 1.210099168190538383e-05
9.274637318659328855e+01 1.229423739867647131e-05
9.364682341170585289e+01 1.244001357740249219e-05
9.454727363681840302e+01 1.250707568500535734e-05
9.544772386193096736e+01 1.245773016917857130e-05
9.634817408704351749e+01 1.232794323666478691e-05
9.724862431215606762e+01 1.215898741746576770e-05
9.814907453726863196e+01 1.194652545164109297e-05
9.904952476238118209e+01 1.169990242704459121e-05
9.994997498749374643e+01 1.149624383046433341e-05
1.008504252126062966e+02 1.142938287124739166e-05
1.017508754377188609e+02 1.149641934917280949e-05
1.026513256628314110e+02 1.157617074018053784e-05
1.035517758879439612e+02 1.154577393982764783e-05
1.044522261130565255e+02 1.143113043260454772e-05
1.053526763381690756e+02 1.136847896162709734e-05
1.062531265632816400e+02 1.146169643319909506e-05
1.071535767883941901e+02 1.173879770345063591e-05
1.080540270135067544e+02 1.216376233781066090e-05
1.089544772386193046e+02 1.262711790399252104e-05
1.098549274637318547e+02 1.296244133004379285e-05
1.107553776888444190e+02 1.308406546611697069e-05
1.116558279139569692e+02 1.303372533217022506e-05
1.125562781390695335e+02 1.289823037192554165e-05
1.134567283641820836e+02 1.274364667714583797e-05
1.143571785892946480e+02 1.258046529719998690e-05
1.152576288144071981e+02 1.243764040195930087e-05
1.161580790395197482e+02 1.238013822633972355e-05
1.170585292646323126e+02 1.238368599872877777e-05
1.179589794897448627e+02 1.233750423775206621e-05
1.188594297148574270e+02 1.217844580248044224e-05
1.197598799399699772e+02 1.201188536341586235e-05
1.206603301650825415e+02 1.198734886240933544e-05
1.215607803901950916e+02 1.208734536838964671e-05
1.224612306153076418e+02 1.219500471399753775e-05
1.233616808404202061e+02 1.228731638223120908e-05
1.242621310655327562e+02 1.242271975259519836e-05
1.251625812906453206e+02 1.261388649415117249e-05
1.260630315157578707e+02 1.281959369344910866e-05
1.269634817408704350e+02 1.294223106429496522e-05
1.278639319659829852e+02 1.288348496045558604e-05
1.287643821910955353e+02 1.268021853751727112e-05
1.296648324162080996e+02 1.246124525995473676e-05
1.305652826413206640e+02 1.228990465529048858e-05
1.314657328664331999e+02 1.214544657208061442e-05
1.323661830915457642e+02 1.202168655974181671e-05
1.332666333166583286e+02 1.194073724679544662e-05
1.341670835417708929e+02 1.192824621478101067e-05
1.350675337668834288e+02 1.205745590234037139e-05
1.359679839919959932e+02 1.241698617447016248e-05
1.368684342171085575e+02 1.300925659683230368e-05
1.377688844422210934e+02 1.368835060836393244e-05
1.386693346673336578e+02 1.419665487926605757e-05
1.395697848924462221e+02 1.440030565476148641e-05
1.404702351175587864e+02 1.438926640851818653e-05
1.413706853426713224e+02 1.429435810818126756e-05
1.422711355677838867e+02 1.415222254081434830e-05
1.431715857928964510e+02 1.397642763875168352e-05
1.440720360180089870e+02 1.386967274877653459e-05
1.449724862431215513e+02 1.389666460272921447e-05
1.458729364682341156e+02 1.398088207648187539e-05
1.467733866933466800e+02 1.407334595725589390e-05
1.476738369184592159e+02 1.424606537897954728e-05
1.485742871435717802e+02 1.454956804770771236e-05
1.494747373686843446e+02 1.497883795199236324e-05
1.503751875937968805e+02 1.552725941342694317e-05
1.512756378189094448e+02 1.616364582887332520e-05
1.521760880440220092e+02 1.684328605688575038e-05
1.530765382691345735e+02 1.755874464406749738e-05
1.539769884942471094e+02 1.828052013449937263e-05
1.548774387193596738e+02 1.886040545984828516e-05
1.557778889444722381e+02 1.917502740044771671e-05
1.566783391695847740e+02 1.927752460704428001e-05
1.575787893946973384e+02 1.931612188449949172e-05
1.584792396198099027e+02 1.940593104527690423e-05
1.593796898449224670e+02 1.951702596990974827e-05
1.602801400700350030e+02 1.950748095147603425e-05
1.611805902951475673e+02 1.925046309860738820e-05
1.620810405202601316e+02 1.876163135076476453e-05
1.629814907453726676e+02 1.820914196567884814e-05
1.638819409704852319e+02 1.777931005284841341e-05
1.647823911955977962e+02 1.756212721775626310e-05
1.656828414207103606e+02 1.750748674401828391e-05
1.665832916458228965e+02 1.753763948733396159e-05
1.674837418709354608e+02 1.763920702022536252e-05
1.683841920960480252e+02 1.783874388665472274e-05
1.692846423211605611e+02 1.811484746657709435e-05
1.701850925462731254e+02 1.833446666598126317e-05
1.710855427713856898e+02 1.841973103467453780e-05
1.719859929964982541e+02 1.847313281726929563e-05
1.728864432216107900e+02 1.857418332221454438e-05
1.737868934467233544e+02 1.866757516157384428e-05
1.746873436718359187e+02 1.866594248273731256e-05
1.755877938969484546e+02 1.856608862666082803e-05
1.764882441220610190e+02 1.840142838434669499e-05
1.773886943471735833e+02 1.819522617851252499e-05
1.782891445722861476e+02 1.800936985497466982e-05
1.791895947973986836e+02 1.790271067170074357e-05
1.800900450225112479e+02 1.784494671160266030e-05
1.809904952476238122e+02 1.767437004097410343e-05
1.818909454727363482e+02 1.726046752141388018e-05
1.827913956978489125e+02 1.671694356247236426e-05
1.836918459229614768e+02 1.623179105572258562e-05
1.845922961480740412e+02 1.583481851107317381e-05
1.854927463731865771e+02 1.552639234034066635e-05
1.863931965982991414e+02 1.541519634112679192e-05
1.872936468234117058e+02 1.557377297872380225e-05
1.881940970485242417e+02 1.594409070169260486e-05
1.890945472736368060e+02 1.641612123186547188e-05
1.899949974987493704e+02 1.691054489150313971e-05
1.908954477238619347e+02 1.740797005834793365e-05
1.917958979489744706e+02 1.790842753282283307e-05
1.926963481740870350e+02 1.841692934766668826e-05
1.935967983991995993e+02 1.898171829321420792e-05
1.944972486243121352e+02 1.968378029141127863e-05
1.953976988494246996e+02 2.045833882445782605e-05
1.962981490745372639e+02 2.110956327957782446e-05
1.971985992996498283e+02 2.157018142127723389e-05
1.980990495247623642e+02 2.190139159348106343e-05
1.989994997498749285e+02 2.207423994191115023e-05
1.998999499749874929e+02 2.203075764053454610e-05
2.008004002001000288e+02 2.185210147127473207e-05
2.017008504252125931e+02 2.172056826528206494e-05
2.026013006503251574e+02 2.182688904793839810e-05
2.035017508754377218e+02 2.219824568819991084e-05
2.044022011005502577e+02 2.269898913067599838e-05
2.053026513256628220e+02 2.318616895169575768e-05
2.062031015507753864e+02 2.353935350129009871e-05
2.071035517758879223e+02 2.373208730054133055e-05
2.080040020010004866e+02 2.388062982962262787e-05
2.089044522261130510e+02 2.408756112662239579e-05
2.098049024512256153e+02 2.432828890585474980e-05
2.107053526763381512e+02 2.442378150817697577e-05
2.116058029014507156e+02 2.420518916156420600e-05
2.125062531265632799e+02 2.381880163331570190e-05
2.134067033516758158e+02 2.356965126021551277e-05
2.143071535767883802e+02 2.349105301216228270e-05
2.152076038019009445e+02 2.337869478428208401e-05
2.161080540270135089e+02 2.313372632747636074e-05
2.170085042521260448e+02 2.289118836805322294e-05
2.179089544772386091e+02 2.284550529905885683e-05
2.188094047023511735e+02 2.301542311724760786e-05
2.197098549274637094e+02 2.323241398891427639e-05
2.206103051525762737e+02 2.331024189094400059e-05
2.215107553776888381e+02 2.326083181662624060e-05
2.224112056028014024e+02 2.325794523751762628e-05
2.233116558279139383e+02 2.344521831992248036e-05
2.242121060530265027e+02 2.393781779121061942e-05
2.251125562781390670e+02 2.475258395387672537e-05
2.260130065032516029e+02 2.569636312139613073e-05
2.269134567283641672e+02 2.649332164690713931e-05
2.278139069534767316e+02 2.703289617848819452e-05
2.287143571785892959e+02 2.737329740015926509e-05
2.296148074037018318e+02 2.751729019840260849e-05
2.305152576288143962e+02 2.743326193755860455e-05
2.314157078539269605e+02 2.716250763620504946e-05
2.323161580790394964e+02 2.682481880551244619e-05
2.332166083041520608e+02 2.655095164137404531e-05
2.341170585292646251e+02 2.642640235429091750e-05
2.350175087543771895e+02 2.641975074890079279e-05
2.359179589794897254e+02 2.649268578191149939e-05
2.368184092046022897e+02 2.665456784224699456e-05
2.377188594297148541e+02 2.684681167064089600e-05
2.386193096548273900e+02 2.693012520363123006e-05
2.395197598799399543e+02 2.685298943954474100e-05
2.404202101050525187e+02 2.669743373272347916e-05
2.413206603301650830e+02 2.649293094125759073e-05
2.422211105552776189e+02 2.614399202360208571e-05
2.431215607803901833e+02 2.561497453813862556e-05
2.440220110055027476e+02 2.508601208028681364e-05
2.449224612306152835e+02 2.473851471504784518e-05
2.458229114557278479e+02 2.455498047638680635e-05
2.467233616808404122e+02 2.450303239495265568e-05
2.476238119059529765e+02 2.464302246210251868e-05
2.485242621310655124e+02 2.495279304647894775e-05
2.494247123561780768e+02 2.523398899769636436e-05
2.503251625812906411e+02 2.529526803211908686e-05
2.512256128064031770e+02 2.520116686508642339e-05
2.521260630315157414e+02 2.519511813021409508e-05
2.530265132566283057e+02 2.539517961853454041e-05
2.539269634817408701e+02 2.563166968776134328e-05
2.548274137068534060e+02 2.567885063561486426e-05
2.557278639319659703e+02 2.557279309879517624e-05
2.566283141570785347e+02 2.549829741724271871e-05
2.575287643821910706e+02 2.558744019578465005e-05
2.584292146073036633e+02 2.584418909771848678e-05
2.593296648324161993e+02 2.620896519538222380e-05
2.602301150575287352e+02 2.670385224144096716e-05
2.611305652826413279e+02 2.735750984519493473e-05
2.620310155077538639e+02 2.815439919449898838e-05
2.629314657328663998e+02 2.902883368655741821e-05
2.638319159579789925e+02 2.974455479251320129e-05
2.647323661830915285e+02 3.009712899089201011e-05
2.656328164082040644e+02 3.012970804335804694e-05
2.665332666333166571e+02 3.002366151686612332e-05
2.674337168584291931e+02 3.001167326426732587e-05
2.683341670835417858e+02 3.022565254598938726e-05
2.692346173086543217e+02 3.071766508863111179e-05
2.701350675337668577e+02 3.148863815021001001e-05
2.710355177588794504e+02 3.233410244025123389e-05
2.719359679839919863e+02 3.298300104950390062e-05
2.728364182091045222e+02 3.348691402190534722e-05
2.737368684342171150e+02 3.411100479672438433e-05
2.746373186593296509e+02 3.486384167755800765e-05
2.755377688844421868e+02 3.540796832341759913e-05
2.764382191095547796e+02 3.538693998786308280e-05
2.773386693346673155e+02 3.479248088622895099e-05
2.782391195597798514e+02 3.400437203847479041e-05
2.791395697848924442e+02 3.345505597040577053e-05
2.800400200100049801e+02 3.330166146586471929e-05
2.809404702351175729e+02 3.346579617898633868e-05
2.818409204602301088e+02 3.377530999901398828e-05
2.827413706853426447e+02 3.407383313425393868e-05
2.836418209104552375e+02 3.436791631732894424e-05
2.845422711355677734e+02 3.481716119714565398e-05
2.854427213606803093e+02 3.545991640272152970e-05
2.863431715857929021e+02 3.614163041997877794e-05
2.872436218109054380e+02 3.676254588783790117e-05
2.881440720360179739e+02 3.731305872910284583e-05
2.890445222611305667e+02 3.773335083822243935e-05
2.899449724862431026e+02 3.811275336052326708e-05
2.908454227113556385e+02 3.858335002657196954e-05
2.917458729364682313e+02 3.909807417029801351e-05
2.926463231615807672e+02 3.951854203214780675e-05
2.935467733866933600e+02 3.970386366105383623e-05
2.944472236118058959e+02 3.964856034845989729e-05
2.953476738369184318e+02 3.952816977543573298e-05
2.962481240620310246e+02 3.950437565703281069e-05
2.971485742871435605e+02 3.963650872372722467e-05
2.980490245122560964e+02 3.999718341492442621e-05
2.989494747373686891e+02 4.051572437131762918e-05
2.998499249624812251e+02 4.093156698625729291e-05
3.007503751875937610e+02 4.115423589570838897e-05
3.016508254127063537e+02 4.135600729705875847e-05
3.025512756378188897e+02 4.171734466604153720e-05
3.034517258629314256e+02 4.228323147754461936e-05
3.043521760880440183e+02 4.303697064271479650e-05
3.052526263131565543e+02 4.390297986929057313e-05
3.061530765382691470e+02 4.476948770746712862e-05
3.070535267633816829e+02 4.555236929835866476e-05
3.079539769884942189e+02 4.618786854297602843e-05
3.088544272136068116e+02 4.666602405407894972e-05
3.097548774387193475e+02 4.707943023069403508e-05
3.106553276638318835e+02 4.752914452021384878e-05
3.115557778889444762e+02 4.786354898548233041e-05
3.124562281140570121e+02 4.790808846076279943e-05
3.133566783391695481e+02 4.772941913325649322e-05
3.142571285642821408e+02 4.751474603327973488e-05
3.151575787893946767e+02 4.746580286272341362e-05
3.160580290145072127e+02 4.780126086118460771e-05
3.169584792396198054e+02 4.860378352885964099e-05
3.178589294647323413e+02 4.969642794908410823e-05
3.187593796898449341e+02 5.068848830963554487e-05
3.196598299149574700e+02 5.133250717659912843e-05
3.205602801400700059e+02 5.178071335479147221e-05
3.214607303651825987e+02 5.225660465860349673e-05
3.223611805902951346e+02 5.269497769317508401e-05
3.232616308154076705e+02 5.292738048595497483e-05
3.241620810405202633e+02 5.287539851049983180e-05
3.250625312656327992e+02 5.246754807566017108e-05
3.259629814907453351e+02 5.186498847906789565e-05
3.268634317158579279e+02 5.156514242670120254e-05
3.277638819409704638e+02 5.189529465588048221e-05
3.286643321660829997e+02 5.265378565757169359e-05
3.295647823911955925e+02 5.342814538023431725e-05
3.304652326163081284e+02 5.402770710867063771e-05
3.313656828414207212e+02 5.456043272168747466e-05
3.322661330665332571e+02 5.517176286954184690e-05
3.331665832916457930e+02 5.572604601505708188e-05
3.340670335167583858e+02 5.596698363556253374e-05
3.349674837418709217e+02 5.571535829823013328e-05
3.358679339669834576e+02 5.500892657070955517e-05
3.367683841920960504e+02 5.428236968530415828e-05
3.376688344172085863e+02 5.402064362862828015e-05
3.385692846423211222e+02 5.438227445131078739e-05
3.394697348674337150e+02 5.525526506665432732e-05
3.403701850925462509e+02 5.638231859476957437e-05
3.412706353176587868e+02 5.748101976561272448e-05
3.421710855427713796e+02 5.836993718291053708e-05
3.430715357678839155e+02 5.891256881632036082e-05
3.439719859929965082e+02 5.895566484270512749e-05
3.448724362181090441e+02 5.848856431706713524e-05
3.457728864432215801e+02 5.768906736709663837e-05
3.466733366683341728e+02 5.667037845037657808e-05
3.475737868934467087e+02 5.549435574611676298e-05
3.484742371185592447e+02 5.424579769650718304e-05
3.493746873436718374e+02 5.298257891198982676e-05
3.502751375687843733e+02 5.183457964765686432e-05
3.511755877938969093e+02 5.105233170193135554e-05
3.520760380190095020e+02 5.083371592621817661e-05
3.529764882441220379e+02 5.102935171130207944e-05
3.538769384692345739e+02 5.117316672095014173e-05
3.547773886943471666e+02 5.096121466063253318e-05
3.556778389194597025e+02 5.044188559119145121e-05
3.565782891445722953e+02 4.970010095993012875e-05
3.574787393696848312e+02 4.878809451919189255e-05
3.583791895947973671e+02 4.789048212546051682e-05
3.592796398199099599e+02 4.727623010486505244e-05
3.601800900450224958e+02 4.710440839940295440e-05
3.610805402701350317e+02 4.724758237363554583e-05
3.619809904952476245e+02 4.739000997358519551e-05
3.628814407203601604e+02 4.718124624369144060e-05
3.637818909454726963e+02 4.633451770497330589e-05
3.646823411705852891e+02 4.503984123888124226e-05
3.655827913956978250e+02 4.392431637337140419e-05
3.664832416208103609e+02 4.338561274151117472e-05
3.673836918459229537e+02 4.339093793964777309e-05
3.682841420710354896e+02 4.360528444192474622e-05
3.691845922961480824e+02 4.362426955775029465e-05
3.700850425212606183e+02 4.329947730075270698e-05
3.709854927463731542e+02 4.277589276801557766e-05
3.718859429714857470e+02 4.232151178493781708e-05
3.727863931965982829e+02 4.211163564303408878e-05
3.736868434217108188e+02 4.217890714230104331e-05
3.745872936468234116e+02 4.254406019453147255e-05
3.754877438719359475e+02 4.307124220939129145e-05
3.763881940970484834e+02 4.345063479452743486e-05
3.772886443221610762e+02 4.353570392586698684e-05
3.781890945472736121e+02 4.347609302877285833e-05
3.790895447723861480e+02 4.352579575712943493e-05
3.799899949974987408e+02 4.370444416100054797e-05
3.808904452226112767e+02 4.380427537462620792e-05
3.817908954477238694e+02 4.372870021932129264e-05
3.826913456728364054e+02 4.352037970902293519e-05
3.835917958979489413e+02 4.329252056384871205e-05
3.844922461230615340e+02 4.319338985298099091e-05
3.853926963481740700e+02 4.321506795177650827e-05
3.862931465732866059e+02 4.317849163304803912e-05
3.871935967983991986e+02 4.295738938256570997e-05
3.880940470235117346e+02 4.260125076480672729e-05
3.889944972486242705e+02 4.229433077618094649e-05
3.898949474737368632e+02 4.218228056346277904e-05
3.907953976988493991e+02 4.218802638325924845e-05
3.916958479239619351e+02 4.208603874801188245e-05
3.925962981490745278e+02 4.186582834429130500e-05
3.934967483741870637e+02 4.164441325909895515e-05
3.943971985992996565e+02 4.136160662992166239e-05
3.952976488244121924e+02 4.094253690006838541e-05
3.961980990495247283e+02 4.051384437294110397e-05
3.970985492746373211e+02 4.025382859597218584e-05
3.979989994997498570e+02 4.022399842966122431e-05
3.988994497248623929e+02 4.043623685965431688e-05
3.997998999499749857e+02 4.093108076922090637e-05
4.007003501750875216e+02 4.169316504906689082e-05
4.016008004002000575e+02 4.252518367686218927e-05
4.025012506253126503e+02 4.323591797323669952e-05
4.034017008504251862e+02 4.384771728012277776e-05
4.043021510755377221e+02 4.430050882458570917e-05
4.052026013006503149e+02 4.438134610058647769e-05
4.061030515257628508e+02 4.412754576274643037e-05
4.070035017508754436e+02 4.386641471630376831e-05
4.079039519759879795e+02 4.371545748225263251e-05
4.088044022011005154e+02 4.353463994160593925e-05
4.097048524262131082e+02 4.329185707472278720e-05
4.106053026513256441e+02 4.302356661579704504e-05
4.115057528764381800e+02 4.284024072257446573e-05
4.124062031015507728e+02 4.277958295254899712e-05
4.133066533266633087e+02 4.264453288627215741e-05
4.142071035517758446e+02 4.235189944837772490e-05
4.151075537768884374e+02 4.203288359961697694e-05
4.160080040020009733e+02 4.172740524381493392e-05
4.169084542271135092e+02 4.139311351124868774e-05
4.178089044522261020e+02 4.113396476304336018e-05
4.187093546773386379e+02 4.102181273916712356e-05
4.196098049024512306e+02 4.095253915179005041e-05
4.205102551275637666e+02 4.085278686791846695e-05
4.214107053526763025e+02 4.074956824927184824e-05
4.223111555777888952e+02 4.071385732465903370e-05
4.232116058029014312e+02 4.081268493454944099e-05
4.241120560280139671e+02 4.101144038419987523e-05
4.250125062531265598e+02 4.125481709337908387e-05
4.259129564782390958e+02 4.155594209240669472e-05
4.268134067033516317e+02 4.191992265159521770e-05
4.277138569284642244e+02 4.233812986138627265e-05
4.286143071535767604e+02 4.285637100282897402e-05
4.295147573786892963e+02 4.342202946642867857e-05
4.304152076038018890e+02 4.387135209604481193e-05
4.313156578289144250e+02 4.422228007214938931e-05
4.322161080540270177e+02 4.460468244598887516e-05
4.331165582791395536e+02 4.500082280786899458e-05
4.340170085042520896e+02 4.530861547913098613e-05
4.349174587293646823e+02 4.542173406595323670e-05
4.358179089544772182e+02 4.527131428088102422e-05
4.367183591795897541e+02 4.482940149386551180e-05
4.376188094047023469e+02 4.404419905770155623e-05
4.385192596298148828e+02 4.299684278891210406e-05
4.394197098549274187e+02 4.192685602224368116e-05
4.403201600800400115e+02 4.100322002442484767e-05
4.412206103051525474e+02 4.034608929486046961e-05
4.421210605302650833e+02 4.004057639462377846e-05
4.430215107553776761e+02 4.001424408654414894e-05
4.439219609804902120e+02 4.012393557928541885e-05
4.448224112056028048e+02 4.031644412752485510e-05
4.457228614307153407e+02 4.060557011358692265e-05
4.466233116558278766e+02 4.101619570094254742e-05
4.475237618809404694e+02 4.150858880738886254e-05
4.484242121060530053e+02 4.192860387237667979e-05
4.493246623311655412e+02 4.219160015543998960e-05
4.502251125562781340e+02 4.241884437084022125e-05
4.511255627813906699e+02 4.277465964952875378e-05
4.520260130065032058e+02 4.321286573189111547e-05
4.529264632316157986e+02 4.346627022289093872e-05
4.538269134567283345e+02 4.342704823976965101e-05
4.547273636818408704e+02 4.336381951301551820e-05
4.556278139069534632e+02 4.356735738359034376e-05
4.565282641320659991e+02 4.403610479781509601e-05
4.574287143571785919e+02 4.455487899460523884e-05
4.583291645822911278e+02 4.500484107567848254e-05
4.592296148074036637e+02 4.546941851701204282e-05
4.601300650325162565e+02 4.596505239668095886e-05
4.610305152576287924e+02 4.641411752975740370e-05
4.619309654827413283e+02 4.683447563104356932e-05
4.628314157078539210e+02 4.731865540628601595e-05
4.637318659329664570e+02 4.784361986224570890e-05
4.646323161580789929e+02 4.828953354714870058e-05
4.655327663831915856e+02 4.861819354379522226e-05
4.664332166083041216e+02 4.891397720974433467e-05
4.673336668334167143e+02 4.927672622014134880e-05
4.682341170585292502e+02 4.959334322758404044e-05
4.691345672836417862e+02 4.963380543877746561e-05
4.700350175087543789e+02 4.939617712145310348e-05
4.709354677338669148e+02 4.909091028730381981e-05
4.718359179589794508e+02 4.889958180147287788e-05
4.727363681840920435e+02 4.880033650673165966e-05
4.736368184092045794e+02 4.872356115510694755e-05
4.745372686343171154e+02 4.870875597249825972e-05
4.754377188594297081e+02 4.873038544962315645e-05
4.763381690845422440e+02 4.861715294469834788e-05
4.772386193096547800e+02 4.817931517331981630e-05
4.781390695347673727e+02 4.748630774163328219e-05
4.790395197598799086e+02 4.684924305638248006e-05
4.799399699849925014e+02 4.653868418606311124e-05
4.808404202101050373e+02 4.658059520268941303e-05
4.817408704352175732e+02 4.674830887141850016e-05
4.826413206603301660e+02 4.681978747822252985e-05
4.835417708854427019e+02 4.689205762906036875e-05
4.844422211105552378e+02 4.725055284765149806e-05
4.853426713356678306e+02 4.792048261606277716e-05
4.862431215607803665e+02 4.867835705276552481e-05
4.871435717858929024e+02 4.941873167606081711e-05
4.880440220110054952e+02 5.001836879479763277e-05
4.889444722361180311e+02 5.033258984652067166e-05
4.898449224612305670e+02 5.043961146548610992e-05
4.907453726863431598e+02 5.054134424479552747e-05
4.916458229114556957e+02 5.073170254724888455e-05
4.925462731365682885e+02 5.098588734279665318e-05
4.934467233616808244e+02 5.137358207792333434e-05
4.943471735867933603e+02 5.192576561659255959e-05
4.952476238119059531e+02 5.253244897726188782e-05
4.961480740370184890e+02 5.310581377609117107e-05
4.970485242621310249e+02 5.363687926035910753e-05
4.979489744872436177e+02 5.417982246621141267e-05
4.988494247123561536e+02 5.477468606178596209e-05
4.997498749374686895e+02 5.541909472466119912e-05
5.006503251625812823e+02 5.610740127022154886e-05
5.015507753876938182e+02 5.686123788432198529e-05
5.024512256128063541e+02 5.781386568945243848e-05
5.033516758379189469e+02 5.896675018079306619e-05
5.042521260630314828e+02 5.997226000183488240e-05
5.051525762881440755e+02 6.041578885979162733e-05
5.060530265132566115e+02 6.026418589814229568e-05
5.069534767383691474e+02 5.989567945927167815e-05
5.078539269634817401e+02 5.966503886193307954e-05
5.087543771885942760e+02 5.985189736368305604e-05
5.096548274137068120e+02 6.053156102453849190e-05
5.105552776388194047e+02 6.129910239839059932e-05
5.114557278639319406e+02 6.165360029706254755e-05
5.123561780890445334e+02 6.143787046528508585e-05
5.132566283141570693e+02 6.077259492482634212e-05
5.141570785392696052e+02 5.987746675354423110e-05
5.150575287643821412e+02 5.892100551122172851e-05
5.159579789894946771e+02 5.803256926711072779e-05
5.168584292146073267e+02 5.753196807346273032e-05
5.177588794397198626e+02 5.767625505919013272e-05
5.186593296648323985e+02 5.832254448687750243e-05
5.195597798899449344e+02 5.919267642030356344e-05
5.204602301150574704e+02 6.019426821342895826e-05
5.213606803401700063e+02 6.126721231079318127e-05
5.222611305652826559e+02 6.215481217901364672e-05
5.231615807903951918e+02 6.257065568421203629e-05
5.240620310155077277e+02 6.244381839221563410e-05
5.249624812406202636e+02 6.187614923543389468e-05
5.258629314657327996e+02 6.117370793542942686e-05
5.267633816908454492e+02 6.079903361158969945e-05
5.276638319159579851e+02 6.105033712061136777e-05
5.285642821410705210e+02 6.189645022822322503e-05
5.294647323661830569e+02 6.313254598951784351e-05
5.303651825912955928e+02 6.454147926234792454e-05
5.312656328164081287e+02 6.586937308066380414e-05
5.321660830415207784e+02 6.679016262301814947e-05
5.330665332666333143e+02 6.704846391806504107e-05
5.339669834917458502e+02 6.677443612971370468e-05
5.348674337168583861e+02 6.652054074517894694e-05
5.357678839419709220e+02 6.676691985329125155e-05
5.366683341670835716e+02 6.752258598522388087e-05
5.375687843921961075e+02 6.846328715188247053e-05
5.384692346173086435e+02 6.926410177554020455e-05
5.393696848424211794e+02 6.993212986353987805e-05
5.402701350675337153e+02 7.079734524375322965e-05
5.411705852926462512e+02 7.202973394303361114e-05
5.420710355177589008e+02 7.336259243679607936e-05
5.429714857428714367e+02 7.443709689358036380e-05
5.438719359679839727e+02 7.509114441795941954e-05
5.447723861930965086e+02 7.523495772286338177e-05
5.456728364182090445e+02 7.497617367615640497e-05
5.465732866433215804e+02 7.471903949849267987e-05
5.474737368684342300e+02 7.465092849027389513e-05
5.483741870935467659e+02 7.450208738934233023e-05
5.492746373186593019e+02 7.404967752324834250e-05
5.501750875437718378e+02 7.352576204590318472e-05
5.510755377688843737e+02 7.331008624974122336e-05
5.519759879939970233e+02 7.342951892832613628e-05
5.528764382191095592e+02 7.372686623535593857e-05
5.537768884442220951e+02 7.418601859872531342e-05
5.546773386693346310e+02 7.474113911216770281e-05
5.555777888944471670e+02 7.505263936473774748e-05
5.564782391195597029e+02 7.486773225552784681e-05
5.573786893446723525e+02 7.443378574160971323e-05
5.582791395697848884e+02 7.424353906903362050e-05
5.591795897948974243e+02 7.457130727644621876e-05
5.600800400200099602e+02 7.524321648691294792e-05
5.609804902451224962e+02 7.587148708683450892e-05
5.618809404702351458e+02 7.622758869138920217e-05
5.627813906953476817e+02 7.618592210028293300e-05
5.636818409204602176e+02 7.553297881495761525e-05
5.645822911455727535e+02 7.425471593367081113e-05
5.654827413706852894e+02 7.267223083960923943e-05
5.663831915957978254e+02 7.113149093007134201e-05
5.672836418209104750e+02 6.987900835849895117e-05
5.681840920460230109e+02 6.903885845557444713e-05
5.690845422711355468e+02 6.865524046360616591e-05
5.699849924962480827e+02 6.858240014116784170e-05
5.708854427213606186e+02 6.841358460654943247e-05
5.717858929464731546e+02 6.789828246942972937e-05
5.726863431715858042e+02 6.727912284585310947e-05
5.735867933966983401e+02 6.682745177755619061e-05
5.744872436218108760e+02 6.648638269767099781e-05
5.753876938469234119e+02 6.603590320416307259e-05
5.762881440720359478e+02 6.527544919871690679e-05
5.771885942971485974e+02 6.427699320735001534e-05
5.780890445222611334e+02 6.333366006851092877e-05
5.789894947473736693e+02 6.266638349096692736e-05
5.798899449724862052e+02 6.233199123514056869e-05
5.807903951975987411e+02 6.224727880266524218e-05
5.816908454227112770e+02 6.227182581150064429e-05
5.825912956478239266e+02 6.231832673883655721e-05
5.834917458729364625e+02 6.231868295005618999e-05
5.843921960980489985e+02 6.216278215958115426e-05
5.852926463231615344e+02 6.184215015682438814e-05
5.861930965482740703e+02 6.144554916941350853e-05
5.870935467733867199e+02 6.111391556405855073e-05
5.879939969984992558e+02 6.102022970688963341e-05
5.888944472236117917e+02 6.120796235131309839e-05
5.897948974487243277e+02 6.161491687424412700e-05
5.906953476738368636e+02 6.230127030058867305e-05
5.915957978989493995e+02 6.342330829926264403e-05
5.924962481240620491e+02 6.490768120225819647e-05
5.933966983491745850e+02 6.638555433925109254e-05
5.942971485742871209e+02 6.749798067401658306e-05
5.951975987993996569e+02 6.807421143977400012e-05
5.960980490245121928e+02 6.808940830304120305e-05
5.969984992496247287e+02 6.758388588095563506e-05
5.978989494747373783e+02 6.672479372851843787e-05
5.987993996998499142e+02 6.580992709398520585e-05
5.996998499249624501e+02 6.504247368536193589e-05
6.006003001500749860e+02 6.435604737492430123e-05
6.015007503751875220e+02 6.362553820889397106e-05
6.024012006003001716e+02 6.296111517139466084e-05
6.033016508254127075e+02 6.256220931924031433e-05
6.042021010505252434e+02 6.235289856198739219e-05
6.051025512756377793e+02 6.204149568082926568e-05
6.060030015007503152e+02 6.162435047860133244e-05
6.069034517258628512e+02 6.142216701642405619e-05
6.078039019509755008e+02 6.162357219998299560e-05
6.087043521760880367e+02 6.218270173611418561e-05
6.096048024012005726e+02 6.287655549497952253e-05
6.105052526263131085e+02 6.341167248528840937e-05
6.114057028514256444e+02 6.371088026521445099e-05
6.123061530765382940e+02 6.400607583699165822e-05
6.132066033016508300e+02 6.430884418246582868e-05
6.141070535267633659e+02 6.429585189175729800e-05
6.150075037518759018e+02 6.394373637827757641e-05
6.159079539769884377e+02 6.358091174495349987e-05
6.168084042021009736e+02 6.326291474363217814e-05
6.177088544272136232e+02 6.265273048265613046e-05
6.186093046523261592e+02 6.154806753223266878e-05
6.195097548774386951e+02 6.015226171946928737e-05
6.204102051025512310e+02 5.879625839955150929e-05
6.213106553276637669e+02 5.773706207387570906e-05
6.222111055527763028e+02 5.719983326102788453e-05
6.231115557778889524e+02 5.719892411717436152e-05
6.240120060030014884e+02 5.735201452923015708e-05
6.249124562281140243e+02 5.730756464852977472e-05
6.258129064532265602e+02 5.715662734872707082e-05
6.267133566783390961e+02 5.712877098805002694e-05
6.276138069034517457e+02 5.726759485925567736e-05
6.285142571285642816e+02 5.748487160427397184e-05
6.294147073536768175e+02 5.766739162681937502e-05
6.303151575787893535e+02 5.773967514474153594e-05
6.312156078039018894e+02 5.767745297362216351e-05
6.321160580290144253e+02 5.752770842116943005e-05
6.330165082541270749e+02 5.741420244220645424e-05
6.339169584792396108e+02 5.737177487792348738e-05
6.348174087043521467e+02 5.726376968008347235e-05
6.357178589294646827e+02 5.716490603427098208e-05
6.366183091545772186e+02 5.738654346216628325e-05
6.375187593796898682e+02 5.801051178676330019e-05
6.384192096048024041e+02 5.881561785206752097e-05
6.393196598299149400e+02 5.949970066296943747e-05
6.402201100550274759e+02 5.991854269175219132e-05
6.411205602801400119e+02 6.018309740330246089e-05
6.420210105052525478e+02 6.043996688607099937e-05
6.429214607303651974e+02 6.082846907304527260e-05
6.438219109554777333e+02 6.143968216196183871e-05
6.447223611805902692e+02 6.197445094327183211e-05
6.456228114057028051e+02 6.193913669899441367e-05
6.465232616308153411e+02 6.127906601290956934e-05
6.474237118559278770e+02 6.033136916775490733e-05
6.483241620810405266e+02 5.935996188956911990e-05
6.492246123061530625e+02 5.836023081338567416e-05
6.501250625312655984e+02 5.726695534298452747e-05
6.510255127563781343e+02 5.630340445916823738e-05
6.519259629814906702e+02 5.586484726955841268e-05
6.528264132066033198e+02 5.616190552258442607e-05
6.537268634317158558e+02 5.703848971884541646e-05
6.546273136568283917e+02 5.797671396771429740e-05
6.555277638819409276e+02 5.858938272849915246e-05
6.564282141070534635e+02 5.891944561389635116e-05
6.573286643321659994e+02 5.913836203869976869e-05
6.582291145572786490e+02 5.924056019869679957e-05
6.591295647823911850e+02 5.913024126210228779e-05
6.600300150075037209e+02 5.886683674390014891e-05
6.609304652326162568e+02 5.857266889256255543e-05
6.618309154577287927e+02 5.822419683930337152e-05
6.627313656828414423e+02 5.763596052709355877e-05
6.636318159079539782e+02 5.674333756814838329e-05
6.645322661330665142e+02 5.578171371577169085e-05
6.654327163581790501e+02 5.518420973786576612e-05
6.663331665832915860e+02 5.517608742974167748e-05
6.672336168084041219e+02 5.550031327942844784e-05
6.681340670335167715e+02 5.582598300294780067e-05
6.690345172586293074e+02 5.610468408982976981e-05
6.699349674837418434e+02 5.633459187580319011e-05
6.708354177088543793e+02 5.644868364911131276e-05
6.717358679339669152e+02 5.650237294204414477e-05
6.726363181590794511e+02 5.660567053214740261e-05
6.735367683841921007e+02 5.679482349368695642e-05
6.744372186093046366e+02 5.707255852685857062e-05
6.753376688344171725e+02 5.741431785728579658e-05
6.762381190595297085e+02 5.779530234127656506e-05
6.771385692846422444e+02 5.816079509759666783e-05
6.780390195097548940e+02 5.838283585436129526e-05
6.789394697348674299e+02 5.835148163162227046e-05
6.798399199599799658e+02 5.801125276462343138e-05
6.807403701850925017e+02 5.742957125208117641e-05
6.816408204102050377e+02 5.679493259072134815e-05
6.825412706353175736e+02 5.612424167968429475e-05
6.834417208604302232e+02 5.525544630798003991e-05
6.843421710855427591e+02 5.431561110167975497e-05
6.852426213106552950e+02 5.378704381847204945e-05
6.861430715357678309e+02 5.399979846495847412e-05
6.870435217608803669e+02 5.475823276704005815e-05
6.879439719859930165e+02 5.555848572588681795e-05
6.888444222111055524e+02 5.600444067639048735e-05
6.897448724362180883e+02 5.600064124814542981e-05
6.906453226613306242e+02 5.571957891718698144e-05
6.915457728864431601e+02 5.539533790565094341e-05
6.924462231115556961e+02 5.513633404917070538e-05
6.933466733366683457e+02 5.495891762704426046e-05
6.942471235617808816e+02 5.492951988167564119e-05
6.951475737868934175e+02 5.507623347379433335e-05
6.960480240120059534e+02 5.520091397311362955e-05
6.969484742371184893e+02 5.491712825350313044e-05
6.978489244622311389e+02 5.408819301214256540e-05
6.987493746873436749e+02 5.305970982884716428e-05
6.996498249124562108e+02 5.231199561771114642e-05
7.005502751375687467e+02 5.209690891082898985e-05
7.014507253626812826e+02 5.242160414457902102e-05
7.023511755877938185e+02 5.313344323147099692e-05
7.032516258129064681e+02 5.404951444802712338e-05
7.041520760380190040e+02 5.517347519382305394e-05
7.050525262631315400e+02 5.655281777068061629e-05
7.059529764882440759e+02 5.795414604620452290e-05
7.068534267133566118e+02 5.909235869833204637e-05
7.077538769384691477e+02 5.998261552181586518e-05
7.086543271635817973e+02 6.064218575689598277e-05
7.095547773886943332e+02 6.080248831076811439e-05
7.104552276138068692e+02 6.025343528729597492e-05
7.113556778389194051e+02 5.921520121233348524e-05
7.122561280640319410e+02 5.833079580954528861e-05
7.131565782891445906e+02 5.819834075194827192e-05
7.140570285142571265e+02 5.878697340703793305e-05
7.149574787393696624e+02 5.952376897536835923e-05
7.158579289644821984e+02 5.986370084800960416e-05
7.167583791895947343e+02 5.975113413893781575e-05
7.176588294147072702e+02 5.946028617244471936e-05
7.185592796398199198e+02 5.899124690597136092e-05
7.194597298649324557e+02 5.815065626496875685e-05
7.203601800900449916e+02 5.707242702787769046e-05
7.212606303151575275e+02 5.618412066088677537e-05
7.221610805402700635e+02 5.585466196651522408e-05
7.230615307653827131e+02 5.607984866874337688e-05
7.239619809904952490e+02 5.642196373638000705e-05
7.248624312156077849e+02 5.650582613517281922e-05
7.257628814407203208e+02 5.638324892414552959e-05
7.266633316658328567e+02 5.635681449306456051e-05
7.275637818909453927e+02 5.675097688769573995e-05
7.284642321160580423e+02 5.757019429951216820e-05
7.293646823411705782e+02 5.842738681523757069e-05
7.302651325662831141e+02 5.900235728943735002e-05
7.311655827913956500e+02 5.928430146092395609e-05
7.320660330165081859e+02 5.927496336974620849e-05
7.329664832416207219e+02 5.889044796251525398e-05
7.338669334667333715e+02 5.819144066570634366e-05
7.347673836918459074e+02 5.735312354157984357e-05
7.356678339169584433e+02 5.651922308786155072e-05
7.365682841420709792e+02 5.580635759801980659e-05
7.374687343671835151e+02 5.523741391694101885e-05
7.383691845922961647e+02 5.468740559492044935e-05
7.392696348174087007e+02 5.404637450229202205e-05
7.401700850425212366e+02 5.346633590728556778e-05
7.410705352676337725e+02 5.324157922621725644e-05
7.419709854927463084e+02 5.352222849416643182e-05
7.428714357178588443e+02 5.422198988493362638e-05
7.437718859429714939e+02 5.507920309564880455e-05
7.446723361680840299e+02 5.586328659653932386e-05
7.455727863931965658e+02 5.636829746837164425e-05
7.464732366183091017e+02 5.637916357862838190e-05
7.473736868434216376e+02 5.591875282600306332e-05
7.482741370685342872e+02 5.530264078118281442e-05
7.491745872936468231e+02 5.483612765669035511e-05
7.500750375187593590e+02 5.464220197460596125e-05
7.509754877438718950e+02 5.461019641935331695e-05
7.518759379689844309e+02 5.464966374866591845e-05
7.527763881940969668e+02 5.472683639534933932e-05
7.536768384192096164e+02 5.466439912339645963e-05
7.545772886443221523e+02 5.442033664399218026e-05
7.554777388694346882e+02 5.417913760654121047e-05
7.563781890945472242e+02 5.402523096736983499e-05
7.572786393196597601e+02 5.387577596631432412e-05
7.581790895447722960e+02 5.362393092208967723e-05
7.590795397698849456e+02 5.326085629187289985e-05
7.599799899949974815e+02 5.286748324950258239e-05
7.608804402201100174e+02 5.252123537858543843e-05
7.617808904452225534e+02 5.226431505509826812e-05
7.626813406703350893e+02 5.205362279500833203e-05
7.635817908954477389e+02 5.181566910436900212e-05
7.644822411205602748e+02 5.155012411206913214e-05
7.653826913456728107e+02 5.136712416213379229e-05
7.662831415707853466e+02 5.141574626003688088e-05
7.671835917958978825e+02 5.181670157023444279e-05
7.680840420210104185e+02 5.267895571499428542e-05
7.689844922461230681e+02 5.402934200362132617e-05
7.698849424712356040e+02 5.569273023175330841e-05
7.707853926963481399e+02 5.724901610551024980e-05
7.716858429214606758e+02 5.825781091293343581e-05
7.725862931465732117e+02 5.874197278516340878e-05
7.734867433716858613e+02 5.905496723971663883e-05
7.743871935967983973e+02 5.940142845810244171e-05
7.752876438219109332e+02 5.984173238169091593e-05
7.761880940470234691e+02 6.035013560539557494e-05
7.770885442721360050e+02 6.078266724874338127e-05
7.779889944972485409e+02 6.110884831685659219e-05
7.788894447223611905e+02 6.144063743566857455e-05
7.797898949474737265e+02 6.184587200392409388e-05
7.806903451725862624e+02 6.232838925353251366e-05
7.815907953976987983e+02 6.279856010351992431e-05
7.824912456228113342e+02 6.310073847087878276e-05
7.833916958479238701e+02 6.319435374198500944e-05
7.842921460730365197e+02 6.321334265480138971e-05
7.851925962981490557e+02 6.336295202201938550e-05
7.860930465232615916e+02 6.363803357301031443e-05
7.869934967483741275e+02 6.381598840678653689e-05
7.878939469734866634e+02 6.372501966149164991e-05
7.887943971985993130e+02 6.333445656038980945e-05
7.896948474237118489e+02 6.266233882844029828e-05
7.905952976488243849e+02 6.184661982586358512e-05
7.914957478739369208e+02 6.110452157015979966e-05
7.923961980990494567e+02 6.062267458295877791e-05
7.932966483241619926e+02 6.054763732615399776e-05
7.941970985492746422e+02 6.081484790257559570e-05
7.950975487743871781e+02 6.123184348812584605e-05
7.959979989994997140e+02 6.174325453750706047e-05
7.968984492246122500e+02 6.227029768320393175e-05
7.977988994497247859e+02 6.256653716143297970e-05
7.986993496748374355e+02 6.241253410080368905e-05
7.995997998999499714e+02 6.179848919279906910e-05
8.005002501250625073e+02 6.102583335324728237e-05
8.014007003501750432e+02 6.037720617185494661e-05
8.023011505752875792e+02 5.982781940034586227e-05
8.032016008004001151e+02 5.924952647010189687e-05
8.041020510255127647e+02 5.863044819934719657e-05
8.050025012506253006e+02 5.805127774586162586e-05
8.059029514757378365e+02 5.755891210770608878e-05
8.068034017008503724e+02 5.731461902665130256e-05
8.077038519259629084e+02 5.759324477766990350e-05
8.086043021510754443e+02 5.844204711016646282e-05
8.095047523761880939e+02 5.965344856289345990e-05
8.104052026013006298e+02 6.097357822931748895e-05
8.113056528264131657e+02 6.208993367736864992e-05
8.122061030515257016e+02 6.268657321774669534e-05
8.131065532766382375e+02 6.275947036312477855e-05
8.140070035017508872e+02 6.265190858364039260e-05
8.149074537268634231e+02 6.262991292300453948e-05
8.158079039519759590e+02 6.262605251165553931e-05
8.167083541770884949e+02 6.247521936259482127e-05
8.176088044022010308e+02 6.235080452342393897e-05
8.185092546273135667e+02 6.258291168875287100e-05
8.194097048524262163e+02 6.300153671071073453e-05
8.203101550775387523e+02 6.309263206647512591e-05
8.212106053026512882e+02 6.279458902717369791e-05
8.221110555277638241e+02 6.250297327908660276e-05
8.230115057528763600e+02 6.260602737014680174e-05
8.239119559779890096e+02 6.318360716362189156e-05
8.248124062031015455e+02 6.391711954922375610e-05
8.257128564282140815e+02 6.431344989996659817e-05
8.266133066533266174e+02 6.415152992600318754e-05
8.275137568784391533e+02 6.358490641227324772e-05
8.284142071035516892e+02 6.289779164000163013e-05
8.293146573286643388e+02 6.224745646018188332e-05
8.302151075537768747e+02 6.161415667995988278e-05
8.311155577788894107e+02 6.099249747086810331e-05
8.320160080040019466e+02 6.049040295004958715e-05
8.329164582291144825e+02 6.007966702210959601e-05
8.338169084542270184e+02 5.960991968678125788e-05
8.347173586793396680e+02 5.925927570157621632e-05
8.356178089044522039e+02 5.937814486159720471e-05
8.365182591295647399e+02 6.000362700700462006e-05
8.374187093546772758e+02 6.091233715129073406e-05
8.383191595797898117e+02 6.201778421276053831e-05
8.392196098049024613e+02 6.327463869030732488e-05
8.401200600300149972e+02 6.428063524709247867e-05
8.410205102551275331e+02 6.466707523788999728e-05
8.419209604802400690e+02 6.466198675921196171e-05
8.428214107053526050e+02 6.462628399284127509e-05
8.437218609304651409e+02 6.439137159335393400e-05
8.446223111555777905e+02 6.355600452219918345e-05
8.455227613806903264e+02 6.233137003397466313e-05
8.464232116058028623e+02 6.143368395179917398e-05
8.473236618309153982e+02 6.129915097028058543e-05
8.482241120560279342e+02 6.196488605436005579e-05
8.491245622811405838e+02 6.322755093027885144e-05
8.500250125062531197e+02 6.478242731975076901e-05
8.509254627313656556e+02 6.628596989479397452e-05
8.518259129564781915e+02 6.729788054171373824e-05
8.527263631815907274e+02 6.738318762615081033e-05
8.536268134067032634e+02 6.658062061774927911e-05
8.545272636318159130e+02 6.553801998175302283e-05
8.554277138569284489e+02 6.497871309399668002e-05
8.563281640820409848e+02 6.527803303422938512e-05
8.572286143071535207e+02 6.642055394157902613e-05
8.581290645322660566e+02 6.806623304968935069e-05
8.590295147573785925e+02 6.975495467447346361e-05
8.599299649824912422e+02 7.107830782680266233e-05
8.608304152076037781e+02 7.193797942818544520e-05
8.617308654327163140e+02 7.272462459069222623e-05
8.626313156578288499e+02 7.377822540087532991e-05
8.635317658829413858e+02 7.482422725052162373e-05
8.644322161080540354e+02 7.545722918865472792e-05
8.653326663331665713e+02 7.576204798089673244e-05
8.662331165582791073e+02 7.613963471106594287e-05
8.671335667833916432e+02 7.686837571111451934e-05
8.680340170085041791e+02 7.778429528601985108e-05
8.689344672336167150e+02 7.833417952680745452e-05
8.698349174587293646e+02 7.825047136992049066e-05
8.707353676838419005e+02 7.806797297753096515e-05
8.716358179089544365e+02 7.838746339178085960e-05
8.725362681340669724e+02 7.896144349397943372e-05
8.734367183591795083e+02 7.908832264357426437e-05
8.743371685842921579e+02 7.867311875195089673e-05
8.752376188094046938e+02 7.847440707915544016e-05
8.761380690345172297e+02 7.916141874249801587e-05
8.770385192596297657e+02 8.066397881540135430e-05
8.779389694847423016e+02 8.259811913649943720e-05
8.788394197098548375e+02 8.458850819153468164e-05
8.797398699349674871e+02 8.637297887965667302e-05
8.806403201600800230e+02 8.784409443707402710e-05
8.815407703851925589e+02 8.891660890775220961e-05
8.824412206103050949e+02 8.962250212629840277e-05
8.833416708354176308e+02 9.012006177207893193e-05
8.842421210605301667e+02 9.046550096318068312e-05
8.851425712856428163e+02 9.069053175521207529e-05
8.860430215107553522e+02 9.075684663309274410e-05
8.869434717358678881e+02 9.054326222751920281e-05
8.878439219609804240e+02 9.039810431829091431e-05
8.887443721860929600e+02 9.083285568172621335e-05
8.896448224112056096e+02 9.190392873847294520e-05
8.905452726363181455e+02 9.330673209852448022e-05
8.914457228614306814e+02 9.443555131055338852e-05
8.923461730865432173e+02 9.483273869699092166e-05
8.932466233116557532e+02 9.471031078703040810e-05
8.941470735367682892e+02 9.438556446628821673e-05
8.950475237618809388e+02 9.365957720211389663e-05
8.959479739869934747e+02 9.250613945516940220e-05
8.968484242121060106e+02 9.161129206228488015e-05
8.977488744372185465e+02 9.146524699997917818e-05
8.986493246623310824e+02 9.169122237222927319e-05
8.995497748874437320e+02 9.162547513636217107e-05
9.004502251125562680e+02 9.104309791817137619e-05
9.013506753376688039e+02 9.039751868234556357e-05
9.022511255627813398e+02 9.017451817911934474e-05
9.031515757878938757e+02 9.023371252967851718e-05
9.040520260130064116e+02 9.048347269205732455e-05
9.049524762381190612e+02 9.122315582327696082e-05
9.058529264632315972e+02 9.247070678500859909e-05
9.067533766883441331e+02 9.406894219083139822e-05
9.076538269134566690e+02 9.588821756071187839e-05
9.085542771385692049e+02 9.748231136703729605e-05
9.094547273636817408e+02 9.866210598838229425e-05
9.103551775887943904e+02 9.990770844647972062e-05
9.112556278139069263e+02 1.014688447844821800e-04
9.121560780390194623e+02 1.029717812173335130e-04
9.130565282641319982e+02 1.040792605744156595e-04
9.139569784892445341e+02 1.051804256842821684e-04
9.148574287143571837e+02 1.069776222934220764e-04
9.157578789394697196e+02 1.095696529970277008e-04
9.166583291645822555e+02 1.122746623620492310e-04
9.175587793896947915e+02 1.144334621754377799e-04
9.184592296148073274e+02 1.160202316926038407e-04
9.193596798399198633e+02 1.172508601853360636e-04
9.202601300650325129e+02 1.183065246937855462e-04
9.211605802901450488e+02 1.193272487219310764e-04
9.220610305152575847e+02 1.201074382799809321e-04
9.229614807403701207e+02 1.200884986614805089e-04
9.238619309654826566e+02 1.193450105699904023e-04
9.247623811905953062e+02 1.188325445094057752e-04
9.256628314157078421e+02 1.190089676324607398e-04
9.265632816408203780e+02 1.195709519779662738e-04
9.274637318659329139e+02 1.203296123597844951e-04
9.283641820910454499e+02 1.213090310153199783e-04
9.292646323161579858e+02 1.223889548125263471e-04
9.301650825412706354e+02 1.235093388713530698e-04
9.310655327663831713e+02 1.247052847470189524e-04
9.319659829914957072e+02 1.260618029572722172e-04
9.328664332166082431e+02 1.277279334309099914e-04
9.337668834417207790e+02 1.297007707615142186e-04
9.346673336668334287e+02 1.318842645956662862e-04
9.355677838919459646e+02 1.342086082894658895e-04
9.364682341170585005e+02 1.363368114645807823e-04
9.373686843421710364e+02 1.377987864636186059e-04
9.382691345672835723e+02 1.385510940532235923e-04
9.391695847923961082e+02 1.388294011523258029e-04
9.400700350175087578e+02 1.386044603088704369e-04
9.409704852426212938e+02 1.374370753913756703e-04
9.418709354677338297e+02 1.353342268686512275e-04
9.427713856928463656e+02 1.331002838777605552e-04
9.436718359179589015e+02 1.314368275514512412e-04
9.445722861430714374e+02 1.305663923987524714e-04
9.454727363681840870e+02 1.305757824227011892e-04
9.463731865932966230e+02 1.313099064551432856e-04
9.472736368184091589e+02 1.325177964415364925e-04
9.481740870435216948e+02 1.342680445833421680e-04
9.490745372686342307e+02 1.366400170206595057e-04
9.499749874937468803e+02 1.392845688397308698e-04
9.508754377188594162e+02 1.416189818385838633e-04
9.517758879439719522e+02 1.434945639560272280e-04
9.526763381690844881e+02 1.451571084446180379e-04
9.535767883941970240e+02 1.466913958991776805e-04
9.544772386193095599e+02 1.476191856815006222e-04
9.553776888444222095e+02 1.473765720039927078e-04
9.562781390695347454e+02 1.465365312838073746e-04
9.571785892946472813e+02 1.464273611046798757e-04
9.580790395197598173e+02 1.477634107252565141e-04
9.589794897448723532e+02 1.503916921122669566e-04
9.598799399699850028e+02 1.538218083840112908e-04
9.607803901950975387e+02 1.576123848464099564e-04
9.616808404202100746e+02 1.608976507445656701e-04
9.625812906453226105e+02 1.622214287064476380e-04
9.634817408704351465e+02 1.609572082937442156e-04
9.643821910955476824e+02 1.579553452747521635e-04
9.652826413206603320e+02 1.544250522673129545e-04
9.661830915457728679e+02 1.513254728509420279e-04
9.670835417708854038e+02 1.496567706122400811e-04
9.679839919959979397e+02 1.500711135162988933e-04
9.688844422211104757e+02 1.525661241443803523e-04
9.697848924462230116e+02 1.568029430701112551e-04
9.706853426713356612e+02 1.618911988394908241e-04
9.715857928964481971e+02 1.664774505057402959e-04
9.724862431215607330e+02 1.699085995359488543e-04
9.733866933466732689e+02 1.726791203445411811e-04
9.742871435717858049e+02 1.755577263760643724e-04
9.751875937968984545e+02 1.788805450878725117e-04
9.760880440220109904e+02 1.825425439854621191e-04
9.769884942471235263e+02 1.864764133415178953e-04
9.778889444722360622e+02 1.905964921842417297e-04
9.787893946973485981e+02 1.947940493506725883e-04
9.796898449224611340e+02 1.989560650755986342e-04
9.805902951475737837e+02 2.022923361129047278e-04
9.814907453726863196e+02 2.037254972146668511e-04
9.823911955977988555e+02 2.035439706487568044e-04
9.832916458229113914e+02 2.032538360850275733e-04
9.841920960480239273e+02 2.039457254182238896e-04
9.850925462731365769e+02 2.055013873248377808e-04
9.859929964982491128e+02 2.071539619990881776e-04
9.868934467233616488e+02 2.081796268540547616e-04
9.877938969484741847e+02 2.083344515577624154e-04
9.886943471735867206e+02 2.079994814461433945e-04
9.895947973986992565e+02 2.080713345111576454e-04
9.904952476238119061e+02 2.089784781533203951e-04
9.913956978489244420e+02 2.105505395652899577e-04
9.922961480740369780e+02 2.130160787005272503e-04
9.931965982991495139e+02 2.162605670792723132e-04
9.940970485242620498e+02 2.192598484198602954e-04
9.949974987493745857e+02 2.214858461554466247e-04
9.958979489744872353e+02 2.234353069113609541e-04
9.967983991995997712e+02 2.255358013431057378e-04
9.976988494247123072e+02 2.277724083349962688e-04
9.985992996498248431e+02 2.303668017782865005e-04
9.994997498749373790e+02 2.335793877730051743e-04
1.000400200100050029e+03 2.370833524044241032e-04
1.001300650325162565e+03 2.406500127098834335e-04
1.002201100550275100e+03 2.440363429429367364e-04
1.003101550775387636e+03 2.465574927018692711e-04
1.004002001000500172e+03 2.480954734939488991e-04
1.004902451225612708e+03 2.488678040631823020e-04
1.005802901450725358e+03 2.488144925716039273e-04
1.006703351675837894e+03 2.483023344056866223e-04
1.007603801900950430e+03 2.480207962905213144e-04
1.008504252126062966e+03 2.480468617428209033e-04
1.009404702351175501e+03 2.478232294380511747e-04
1.010305152576288151e+03 2.469224301065053211e-04
1.011205602801400687e+03 2.454806214016409327e-04
1.012106053026513223e+03 2.441433951003627967e-04
1.013006503251625759e+03 2.435449303774129941e-04
1.013906953476738295e+03 2.440289352719397038e-04
1.014807403701850831e+03 2.453899621167108906e-04
1.015707853926963480e+03 2.468695563869821520e-04
1.016608304152076016e+03 2.479405049030231328e-04
1.017508754377188552e+03 2.486642946441445351e-04
1.018409204602301088e+03 2.493570627217919712e-04
1.019309654827413624e+03 2.507829246972476047e-04
1.020210105052526160e+03 2.538017228391357743e-04
1.021110555277638809e+03 2.583101711054909804e-04
1.022011005502751345e+03 2.636025300875996708e-04
1.022911455727863881e+03 2.692931194746462525e-04
1.023811905952976417e+03 2.754387587613793304e-04
1.024712356178089067e+03 2.823489278581671718e-04
1.025612806403201603e+03 2.896993398803935564e-04
1.026513256628314139e+03 2.962348068643526041e-04
1.027413706853426675e+03 3.014145415478259086e-04
1.028314157078539210e+03 3.056756410719290384e-04
1.029214607303651746e+03 3.091641855471268267e-04
1.030115057528764282e+03 3.116084321857094772e-04
1.031015507753876818e+03 3.128970541556190315e-04
1.031915957978989354e+03 3.132324414900852522e-04
1.032816408204101890e+03 3.126202496098207670e-04
1.033716858429214653e+03 3.107549929642232692e-04
1.034617308654327189e+03 3.078078690273068781e-04
1.035517758879439725e+03 3.050671764240001495e-04
1.036418209104552261e+03 3.038730500316456245e-04
1.037318659329664797e+03 3.041070308725248809e-04
1.038219109554777333e+03 3.047014410744060525e-04
1.039119559779889869e+03 3.050634979109050548e-04
1.040020010005002405e+03 3.060973361426126260e-04
1.040920460230114941e+03 3.088286355098001984e-04
1.041820910455227477e+03 3.127161378316144951e-04
1.042721360680340013e+03 3.165932368321715457e-04
1.043621810905452776e+03 3.201185092425502419e-04
1.044522261130565312e+03 3.233270036465631840e-04
1.045422711355677848e+03 3.259976946157172291e-04
1.046323161580790384e+03 3.278873518667666941e-04
1.047223611805902920e+03 3.300465658043962459e-04
1.048124062031015455e+03 3.339128853499607271e-04
1.049024512256127991e+03 3.388588735920977906e-04
1.049924962481240527e+03 3.423580105768090319e-04
1.050825412706353063e+03 3.421655593390291556e-04
1.051725862931465599e+03 3.387907359768287433e-04
1.052626313156578135e+03 3.355222681955411239e-04
1.053526763381690898e+03 3.347068724741823005e-04
1.054427213606803434e+03 3.358242014326207753e-04
1.055327663831915970e+03 3.372743105824337236e-04
1.056228114057028506e+03 3.385863955316785771e-04
1.057128564282141042e+03 3.405458331278130892e-04
1.058029014507253578e+03 3.442316009065606941e-04
1.058929464732366114e+03 3.500093535931585805e-04
1.059829914957478650e+03 3.570637935324912559e-04
1.060730365182591186e+03 3.641441080975536424e-04
1.061630815407703722e+03 3.699462473403346404e-04
1.062531265632816257e+03 3.731189950710805752e-04
1.063431715857929021e+03 3.734088558770161641e-04
1.064332166083041557e+03 3.722676851453199463e-04
1.065232616308154093e+03 3.717463913645136604e-04
1.066133066533266629e+03 3.727681739049068521e-04
1.067033516758379164e+03 3.750327351594863164e-04
1.067933966983491700e+03 3.778624278262741583e-04
1.068834417208604236e+03 3.802647007417019184e-04
1.069734867433716772e+03 3.819915309392003561e-04
1.070635317658829308e+03 3.839206018062124451e-04
1.071535767883941844e+03 3.874734608381038376e-04
1.072436218109054380e+03 3.938979972480239461e-04
1.073336668334167143e+03 4.021630013454517228e-04
1.074237118559279679e+03 4.088550829774075662e-04
1.075137568784392215e+03 4.112978762187988278e-04
1.076038019009504751e+03 4.103677643489762796e-04
1.076938469234617287e+03 4.096563598795358897e-04
1.077838919459729823e+03 4.122983768931206779e-04
1.078739369684842359e+03 4.188931294899756971e-04
1.079639819909954895e+03 4.273796857533676400e-04
1.080540270135067431e+03 4.352769955838760394e-04
1.081440720360179967e+03 4.423699993954637575e-04
1.082341170585292502e+03 4.496023653846935395e-04
1.083241620810405038e+03 4.567300798123169383e-04
1.084142071035517802e+03 4.615122653761762430e-04
1.085042521260630338e+03 4.617749277130621605e-04
1.085942971485742873e+03 4.574568233639945167e-04
1.086843421710855409e+03 4.499548159830481881e-04
1.087743871935967945e+03 4.417767872312230331e-04
1.088644322161080481e+03 4.356433074177321020e-04
1.089544772386193017e+03 4.327204402473912130e-04
1.090445222611305553e+03 4.338632362505729138e-04
1.091345672836418089e+03 4.393394753702172732e-04
1.092246123061530625e+03 4.469741765874450179e-04
1.093146573286643161e+03 4.540526537594086784e-04
1.094047023511755924e+03 4.608036703207872391e-04
1.094947473736868460e+03 4.687853074003104931e-04
1.095847923961980996e+03 4.765937991272830459e-04
1.096748374187093532e+03 4.802785721325623534e-04
1.097648824412206068e+03 4.775872340556227766e-04
1.098549274637318604e+03 4.705507188811432792e-04
1.099449724862431140e+03 4.635194080790488698e-04
1.100350175087543676e+03 4.599692549087844697e-04
1.101250625312656211e+03 4.606360219798084888e-04
1.102151075537768747e+03 4.633842176972881007e-04
1.103051525762881283e+03 4.655823387433172798e-04
1.103951975987994047e+03 4.665605121206000826e-04
1.104852426213106583e+03 4.665966106318068947e-04
1.105752876438219118e+03 4.656819939679304396e-04
1.106653326663331654e+03 4.635497681934406112e-04
1.107553776888444190e+03 4.598281388246252058e-04
1.108454227113556726e+03 4.550131775301993514e-04
1.109354677338669262e+03 4.512743587063262419e-04
1.110255127563781798e+03 4.504160300404577840e-04
1.111155577788894334e+03 4.512510818936788567e-04
1.112056028014006870e+03 4.514486450768069310e-04
1.112956478239119406e+03 4.502105980967390604e-04
1.113856928464232169e+03 4.490637842579539140e-04
1.114757378689344705e+03 4.510345066845735892e-04
1.115657828914457241e+03 4.579970182693858679e-04
1.116558279139569777e+03 4.690270616267179504e-04
1.117458729364682313e+03 4.807815854010410138e-04
1.118359179589794849e+03 4.889781908278585535e-04
1.119259629814907385e+03 4.911953105737083955e-04
1.120160080040019920e+03 4.901147169024281996e-04
1.121060530265132456e+03 4.909233602010505074e-04
1.121960980490244992e+03 4.962680590554476110e-04
1.122861430715357528e+03 5.048016692321921585e-04
1.123761880940470292e+03 5.137797856278005686e-04
1.124662331165582827e+03 5.226357586730321931e-04
1.125562781390695363e+03 5.326950863136015787e-04
1.126463231615807899e+03 5.450396423396610453e-04
1.127363681840920435e+03 5.593469045593026318e-04
1.128264132066032971e+03 5.736810155372184692e-04
1.129164582291145507e+03 5.854590522205014485e-04
1.130065032516258043e+03 5.924962558543293411e-04
1.130965482741370579e+03 5.946501945172968625e-04
1.131865932966483115e+03 5.944557794567195729e-04
1.132766383191595651e+03 5.954424569458971993e-04
1.133666833416708187e+03 5.999500773870197800e-04
1.134567283641820950e+03 6.082668894019980068e-04
1.135467733866933486e+03 6.189475158057429613e-04
1.136368184092046022e+03 6.295601359245651518e-04
1.137268634317158558e+03 6.380962217191383807e-04
1.138169084542271094e+03 6.457167074362820357e-04
1.139069534767383630e+03 6.587224036581262789e-04
1.139969984992496165e+03 6.850710869084055896e-04
1.140870435217608701e+03 7.285977752805579497e-04
1.141770885442721237e+03 7.855297248308387758e-04
1.142671335667833773e+03 8.455245936078002343e-04
1.143571785892946309e+03 9.010078848358202839e-04
1.144472236118059072e+03 9.565769126972215085e-04
1.145372686343171608e+03 1.019238546684949698e-03
1.146273136568284144e+03 1.083657233194017938e-03
1.147173586793396680e+03 1.137971892938063976e-03
1.148074037018509216e+03 1.182695358534974813e-03
1.148974487243621752e+03 1.234033475950939082e-03
1.149874937468734288e+03 1.308764938375278977e-03
1.150775387693846824e+03 1.410538564749561378e-03
1.151675837918959360e+03 1.527028755830376738e-03
1.152576288144071896e+03 1.640990183858933010e-03
1.153476738369184432e+03 1.742158312816091117e-03
1.154377188594297195e+03 1.826347262795043622e-03
1.155277638819409731e+03 1.898049614647996305e-03
1.156178089044522267e+03 1.968049092406365906e-03
1.157078539269634803e+03 2.044617107299785685e-03
1.157978989494747339e+03 2.129414516949739572e-03
1.158879439719859874e+03 2.214879577276667767e-03
1.159779889944972410e+03 2.292252627709026516e-03
1.160680340170084946e+03 2.360178175908051682e-03
1.161580790395197482e+03 2.419312317088940893e-03
1.162481240620310018e+03 2.470169757551135461e-03
1.163381690845422554e+03 2.515181883462569174e-03
1.164282141070535317e+03 2.552408028458652035e-03
1.165182591295647853e+03 2.570227101388137484e-03
1.166083041520760389e+03 2.554647013697767047e-03
1.166983491745872925e+03 2.501442651570454263e-03
1.167883941970985461e+03 2.424287258610513876e-03
1.168784392196097997e+03 2.339105871688745234e-03
1.169684842421210533e+03 2.246708202650338389e-03
1.170585292646323069e+03 2.140323724854270322e-03
1.171485742871435605e+03 2.019047859041081701e-03
1.172386193096548141e+03 1.894314845225263718e-03
1.173286643321660677e+03 1.779883923649430493e-03
1.174187093546773440e+03 1.681668155057028944e-03
1.175087543771885976e+03 1.600576238474025288e-03
1.175987993996998512e+03 1.537495038230118124e-03
1.176888444222111048e+03 1.490408654189298359e-03
1.177788894447223583e+03 1.455125142126670063e-03
1.178689344672336119e+03 1.427814349563133554e-03
1.179589794897448655e+03 1.402835853872399716e-03
1.180490245122561191e+03 1.373529351957097867e-03
1.181390695347673727e+03 1.337474689416650675e-03
1.182291145572786263e+03 1.301511324757809174e-03
1.183191595797898799e+03 1.275516313733614585e-03
1.184092046023011562e+03 1.262435239794214336e-03
1.184992496248124098e+03 1.258354484460705216e-03
1.185892946473236634e+03 1.255190435681918272e-03
1.186793396698349170e+03 1.246374038311981155e-03
1.187693846923461706e+03 1.232770775939823031e-03
1.188594297148574242e+03 1.220446845160895509e-03
1.189494747373686778e+03 1.211514376695766717e-03
1.190395197598799314e+03 1.200303613721320512e-03
1.191295647823911850e+03 1.183495683433896401e-03
1.192196098049024386e+03 1.165814320620809242e-03
1.193096548274136921e+03 1.151208449103598846e-03
1.193996998499249457e+03 1.138091156995754867e-03
1.194897448724362221e+03 1.126377379821613201e-03
1.195797898949474757e+03 1.119248602482308388e-03
1.196698349174587293e+03 1.115965131518371727e-03
1.197598799399699828e+03 1.113372061430673542e-03
1.198499249624812364e+03 1.109786842199140915e-03
1.199399699849924900e+03 1.103985373633579407e-03
1.200300150075037436e+03 1.094528896399459862e-03
1.201200600300149972e+03 1.080210031435074446e-03
1.202101050525262508e+03 1.060988534003527717e-03
1.203001500750375044e+03 1.037397304271720465e-03
1.203901950975487580e+03 1.012394137738621084e-03
1.204802401200600343e+03 9.939750435422802649e-04
1.205702851425712879e+03 9.878289629000056634e-04
1.206603301650825415e+03 9.896460277473988383e-04
1.207503751875937951e+03 9.918946059434747588e-04
1.208404202101050487e+03 9.922063790864692808e-04
1.209304652326163023e+03 9.937308635551715588e-04
1.210205102551275559e+03 1.001197082609022165e-03
1.211105552776388095e+03 1.014925423522876130e-03
1.212006003001500630e+03 1.028945382634298888e-03
1.212906453226613166e+03 1.034819541444908630e-03
1.213806903451725702e+03 1.030033682840309330e-03
1.214707353676838466e+03 1.020498286279984635e-03
1.215607803901951002e+03 1.011982293791980573e-03
1.216508254127063537e+03 1.006978140846818970e-03
1.217408704352176073e+03 1.006777336643883275e-03
1.218309154577288609e+03 1.010450655861335053e-03
1.219209604802401145e+03 1.013501262005822622e-03
1.220110055027513681e+03 1.010933192077650977e-03
1.221010505252626217e+03 9.992012184064369418e-04
1.221910955477738753e+03 9.770849881668771265e-04
1.222811405702851289e+03 9.508354193517314264e-04
1.223711855927963825e+03 9.303943616800815783e-04
1.224612306153076588e+03 9.211777362082663534e-04
1.225512756378189124e+03 9.226094476047747668e-04
1.226413206603301660e+03 9.318486749465971879e-04
1.227313656828414196e+03 9.470630994256136253e-04
1.228214107053526732e+03 9.655257544471099922e-04
1.229114557278639268e+03 9.815364715257412793e-04
1.230015007503751804e+03 9.909766435526145938e-04
1.230915457728864340e+03 9.954726983668648384e-04
1.231815907953976875e+03 9.998966103900136081e-04
1.232716358179089411e+03 1.008436297512328716e-03
1.233616808404201947e+03 1.018828324182667524e-03
1.234517258629314711e+03 1.023298901228661970e-03
1.235417708854427246e+03 1.018412412028048622e-03
1.236318159079539782e+03 1.007932920473481519e-03
1.237218609304652318e+03 9.948307675332228924e-04
1.238119059529764854e+03 9.795822523807839154e-04
1.239019509754877390e+03 9.673679669449033883e-04
1.239919959979989926e+03 9.644840580304602558e-04
1.240820410205102462e+03 9.710927585136684389e-04
1.241720860430214998e+03 9.839239049654550495e-04
1.242621310655327534e+03 9.999685760980396663e-04
1.243521760880440070e+03 1.015735550617294196e-03
1.244422211105552606e+03 1.028998310804982814e-03
1.245322661330665369e+03 1.041948635375142046e-03
1.246223111555777905e+03 1.055959772187897803e-03
1.247123561780890441e+03 1.068133588991411823e-03
1.248024012006002977e+03 1.076090949823673955e-03
1.248924462231115513e+03 1.081208071846755060e-03
1.249824912456228049e+03 1.085791139463119885e-03
1.250725362681340584e+03 1.089481642042793713e-03
1.251625812906453120e+03 1.091247160553409593e-03
1.252526263131565656e+03 1.092606257296895251e-03
1.253426713356678192e+03 1.096405121485210512e-03
1.254327163581790728e+03 1.105001521890031828e-03
1.255227613806903491e+03 1.120349618114445996e-03
1.256128064032016027e+03 1.140991854358343891e-03
1.257028514257128563e+03 1.160939334402545523e-03
1.257928964482241099e+03 1.177788769928395053e-03
1.258829414707353635e+03 1.193892969064562319e-03
1.259729864932466171e+03 1.207823859892653189e-03
1.260630315157578707e+03 1.214400107395535201e-03
1.261530765382691243e+03 1.211732502950108514e-03
1.262431215607803779e+03 1.205279952573402825e-03
1.263331665832916315e+03 1.203799242802961085e-03
1.264232116058028851e+03 1.212007435503060669e-03
1.265132566283141614e+03 1.226642885622837228e-03
1.266033016508254150e+03 1.239123373895713830e-03
1.266933466733366686e+03 1.245774476007643732e-03
1.267833916958479222e+03 1.251713523273364527e-03
1.268734367183591758e+03 1.261905094622150407e-03
1.269634817408704293e+03 1.274948551695854939e-03
1.270535267633816829e+03 1.286104446307864300e-03
1.271435717858929365e+03 1.294290366496270205e-03
1.272336168084041901e+03 1.302521474571861036e-03
1.273236618309154437e+03 1.313639744712409921e-03
1.274137068534266973e+03 1.330754074398541762e-03
1.275037518759379736e+03 1.355284101552114810e-03
1.275937968984492272e+03 1.384566907875897776e-03
1.276838419209604808e+03 1.415789153444084025e-03
1.277738869434717344e+03 1.449424299849378121e-03
1.278639319659829880e+03 1.486981543331039298e-03
1.279539769884942416e+03 1.527724885181516029e-03
1.280440220110054952e+03 1.567756903179733921e-03
1.281340670335167488e+03 1.602132018778495070e-03
1.282241120560280024e+03 1.629391210012581109e-03
1.283141570785392560e+03 1.652918246843538197e-03
1.284042021010505096e+03 1.676563906098387131e-03
1.284942471235617859e+03 1.702479016292143864e-03
1.285842921460730395e+03 1.730774949242864895e-03
1.286743371685842931e+03 1.760150983028799460e-03
1.287643821910955467e+03 1.790088000705720430e-03
1.288544272136068003e+03 1.819285799783451184e-03
1.289444722361180538e+03 1.844558416942333572e-03
1.290345172586293074e+03 1.865183014178845890e-03
1.291245622811405610e+03 1.883148718044397232e-03
1.292146073036518146e+03 1.898175857495150833e-03
1.293046523261630682e+03 1.907696857125619570e-03
1.293946973486743218e+03 1.913795668256157694e-03
1.294847423711855754e+03 1.924935816932733714e-03
1.295747873936968517e+03 1.948904371617366004e-03
1.296648324162081053e+03 1.985878805416033295e-03
1.297548774387193589e+03 2.028175760017983560e-03
1.298449224612306125e+03 2.066778487090417497e-03
1.299349674837418661e+03 2.099777818844683185e-03
1.300250125062531197e+03 2.132449923553067592e-03
1.301150575287643733e+03 2.168366969285555161e-03
1.302051025512756269e+03 2.203202385899016760e-03
1.302951475737868805e+03 2.231966501568624899e-03
1.303851925962981340e+03 2.256356861736980544e-03
1.304752376188093876e+03 2.280119522861875480e-03
1.305652826413206640e+03 2.301290994858320831e-03
1.306553276638319176e+03 2.315095406891496278e-03
1.307453726863431712e+03 2.326306647947187431e-03
1.308354177088544247e+03 2.345456033343369402e-03
1.309254627313656783e+03 2.375143277431704478e-03
1.310155077538769319e+03 2.410254123367134779e-03
1.311055527763881855e+03 2.446021182078338997e-03
1.311955977988994391e+03 2.483571701409417049e-03
1.312856428214106927e+03 2.526354617027813144e-03
1.313756878439219463e+03 2.574060844332206992e-03
1.314657328664331999e+03 2.622998161244275827e-03
1.315557778889444762e+03 2.669814455300259255e-03
1.316458229114557298e+03 2.714521921318376312e-03
1.317358679339669834e+03 2.759467984105085005e-03
1.318259129564782370e+03 2.808951480037813822e-03
1.319159579789894906e+03 2.866730488374033114e-03
1.320060030015007442e+03 2.929347098234706074e-03
1.320960480240119978e+03 2.985639709315084534e-03
1.321860930465232514e+03 3.027017983127979969e-03
1.322761380690345050e+03 3.058212467205671976e-03
1.323661830915457585e+03 3.089176772444341898e-03
1.324562281140570121e+03 3.125944824456694179e-03
1.325462731365682885e+03 3.172415523511979470e-03
1.326363181590795421e+03 3.232133026420798156e-03
1.327263631815907956e+03 3.308786819659498453e-03
1.328164082041020492e+03 3.401447159542378158e-03
1.329064532266133028e+03 3.506793053687977477e-03
1.329964982491245564e+03 3.622088610921748823e-03
1.330865432716358100e+03 3.738318186477642812e-03
1.331765882941470636e+03 3.843667832572950516e-03
1.332666333166583172e+03 3.931930057754677056e-03
1.333566783391695708e+03 4.003877193679713196e-03
1.334467233616808244e+03 4.068757048431584367e-03
1.335367683841921007e+03 4.137636391488107648e-03
1.336268134067033543e+03 4.215652224063457312e-03
1.337168584292146079e+03 4.300201899840297784e-03
1.338069034517258615e+03 4.386727775642230119e-03
1.338969484742371151e+03 4.476917510674399865e-03
1.339869934967483687e+03 4.576907880496376181e-03
1.340770385192596223e+03 4.686350084309847883e-03
1.341670835417708759e+03 4.796125300108445948e-03
1.342571285642821294e+03 4.906280527372968922e-03
1.343471735867933830e+03 5.028874118757485634e-03
1.344372186093046366e+03 5.170281933764479462e-03
1.345272636318158902e+03 5.326512214870669261e-03
1.346173086543271666e+03 5.485213878871612707e-03
1.347073536768384201e+03 5.630213965416033806e-03
1.347973986993496737e+03 5.758950257209738410e-03
1.348874437218609273e+03 5.886434090957940249e-03
1.349774887443721809e+03 6.017082773533861083e-03
1.350675337668834345e+03 6.140604656142746066e-03
1.351575787893946881e+03 6.262851787623679653e-03
1.352476238119059417e+03 6.399184063448310443e-03
1.353376688344171953e+03 6.555274394718601377e-03
1.354277138569284489e+03 6.723512065202989774e-03
1.355177588794397025e+03 6.896275343877329711e-03
1.356078039019509788e+03 7.079757676673879147e-03
1.356978489244622324e+03 7.279208211308399283e-03
1.357878939469734860e+03 7.482343418884328939e-03
1.358779389694847396e+03 7.665948434423436146e-03
1.359679839919959932e+03 7.822785936648070371e-03
1.360580290145072468e+03 7.967800041127355570e-03
1.361480740370185003e+03 8.108572691578589189e-03
1.362381190595297539e+03 8.251309802478302632e-03
1.363281640820410075e+03 8.411128351890314117e-03
1.364182091045522611e+03 8.591810952098041104e-03
1.365082541270635147e+03 8.801129158035343042e-03
1.365982991495747910e+03 9.066940366389998965e-03
1.366883441720860446e+03 9.411428337960778615e-03
1.367783891945972982e+03 9.845639606616753137e-03
1.368684342171085518e+03 1.037097772284328520e-02
1.369584792396198054e+03 1.093828893433785969e-02
1.370485242621310590e+03 1.145441321860700412e-02
1.371385692846423126e+03 1.185018107043555105e-02
1.372286143071535662e+03 1.211166291184278751e-02
1.373186593296648198e+03 1.226695320897091233e-02
1.374087043521760734e+03 1.235633930435271234e-02
1.374987493746873270e+03 1.241208117853894767e-02
1.375887943971986033e+03 1.245976521533290714e-02
1.376788394197098569e+03 1.252730570377397386e-02
1.377688844422211105e+03 1.265281268020903432e-02
1.378589294647323641e+03 1.285027871640597071e-02
1.379489744872436177e+03 1.307507312281141858e-02
1.380390195097548713e+03 1.325115100117380679e-02
1.381290645322661248e+03 1.335586196812640382e-02
1.382191095547773784e+03 1.346190144727530194e-02
1.383091545772886320e+03 1.366165245636441483e-02
1.383991995997998856e+03 1.399252877058022697e-02
1.384892446223111392e+03 1.442235607129305035e-02
1.385792896448224155e+03 1.488534952564780391e-02
1.386693346673336691e+03 1.535054057952254039e-02
1.387593796898449227e+03 1.579638683167358670e-02
1.388494247123561763e+03 1.616169490626290228e-02
1.389394697348674299e+03 1.641826364360172638e-02
1.390295147573786835e+03 1.661700168570508576e-02
1.391195597798899371e+03 1.683697787018046885e-02
1.392096048024011907e+03 1.711481806620757107e-02
1.392996498249124443e+03 1.740023800370906273e-02
1.393896948474236979e+03 1.760934862823446828e-02
1.394797398699349515e+03 1.773565407065990501e-02
1.395697848924462278e+03 1.782596551144880609e-02
1.396598299149574814e+03 1.789167551722655944e-02
1.397498749374687350e+03 1.790131337203403061e-02
1.398399199599799886e+03 1.783066860904215789e-02
1.399299649824912422e+03 1.770808478497587490e-02
1.400200100050024957e+03 1.758214076390248251e-02
1.401100550275137493e+03 1.746876164986062643e-02
1.402001000500250029e+03 1.735306900502967334e-02
1.402901450725362565e+03 1.720259659909258165e-02
1.403801900950475101e+03 1.701280973499217156e-02
1.404702351175587637e+03 1.682724827573491011e-02
1.405602801400700173e+03 1.666840967745401511e-02
1.406503251625812936e+03 1.650859003426750557e-02
1.407403701850925472e+03 1.633141451538839065e-02
1.408304152076038008e+03 1.612377173483815762e-02
1.409204602301150544e+03 1.587043993792240995e-02
1.410105052526263080e+03 1.559097108243816601e-02
1.411005502751375616e+03 1.533321983822244321e-02
1.411905952976488152e+03 1.512117056760907581e-02
1.412806403201600688e+03 1.493321385584392078e-02
1.413706853426713224e+03 1.475118735166226075e-02
1.414607303651825760e+03 1.457428349726095501e-02
1.415507753876938295e+03 1.439092514346123654e-02
1.416408204102051059e+03 1.416484986893997398e-02
1.417308654327163595e+03 1.389007781513173015e-02
1.418209104552276131e+03 1.360081724504472178e-02
1.419109554777388666e+03 1.330666540630117897e-02
1.420010005002501202e+03 1.301490364492362967e-02
1.420910455227613738e+03 1.276674796378420365e-02
1.421810905452726274e+03 1.255930204666601442e-02
1.422711355677838810e+03 1.231785019655039053e-02
1.423611805902951346e+03 1.200601096995619968e-02
1.424512256128063882e+03 1.167624294565685131e-02
1.425412706353176418e+03 1.138495254090997680e-02
1.426313156578289181e+03 1.112948846689768012e-02
1.427213606803401717e+03 1.086612206952343451e-02
1.428114057028514253e+03 1.056581416484105203e-02
1.429014507253626789e+03 1.025296819881213115e-02
1.429914957478739325e+03 9.975893696805120114e-03
1.430815407703851861e+03 9.758800467627422662e-03
1.431715857928964397e+03 9.609991712653588938e-03
1.432616308154076933e+03 9.513516754676435566e-03
1.433516758379189469e+03 9.432403714441553455e-03
1.434417208604302004e+03 9.353603371355389412e-03
1.435317658829414540e+03 9.281752218454621464e-03
1.436218109054527304e+03 9.204701574076774861e-03
1.437118559279639840e+03 9.100042591578582155e-03
1.438019009504752376e+03 8.958538316133093926e-03
1.438919459729864911e+03 8.795861260535556975e-03
1.439819909954977447e+03 8.635663362788993311e-03
1.440720360180089983e+03 8.490967455771188457e-03
1.441620810405202519e+03 8.355301037426004010e-03
1.442521260630315055e+03 8.212613128365303314e-03
1.443421710855427591e+03 8.055695641263823162e-03
1.444322161080540127e+03 7.893005995662441196e-03
1.445222611305652663e+03 7.726890068731972518e-03
1.446123061530765426e+03 7.531281033988726677e-03
1.447023511755877962e+03 7.297585646363214350e-03
1.447923961980990498e+03 7.063768448463039924e-03
1.448824412206103034e+03 6.863423721082756446e-03
1.449724862431215570e+03 6.693941168365555132e-03
1.450625312656328106e+03 6.547748536897730204e-03
1.451525762881440642e+03 6.427465935890259649e-03
1.452426213106553178e+03 6.332099727777898597e-03
1.453326663331665713e+03 6.246593736277191063e-03
1.454227113556778249e+03 6.136321871177300574e-03
1.455127563781890785e+03 5.971144556320698120e-03
1.456028014007003321e+03 5.749367017822180383e-03
1.456928464232116085e+03 5.494292490869247605e-03
1.457828914457228620e+03 5.241450345292424789e-03
1.458729364682341156e+03 5.018422416492245887e-03
1.459629814907453692e+03 4.825989133099456950e-03
1.460530265132566228e+03 4.647755822293530084e-03
1.461430715357678764e+03 4.479444470309738163e-03
1.462331165582791300e+03 4.326142024541449436e-03
1.463231615807903836e+03 4.194643298995904060e-03
1.464132066033016372e+03 4.092093630673759516e-03
1.465032516258128908e+03 4.012633529883335819e-03
1.465932966483241444e+03 3.940552518218573899e-03
1.466833416708354207e+03 3.865067649181680443e-03
1.467733866933466743e+03 3.781538879211215638e-03
1.468634317158579279e+03 3.690945868443972714e-03
1.469534767383691815e+03 3.597461898063110137e-03
1.470435217608804351e+03 3.505838944168681876e-03
1.471335667833916887e+03 3.417438747960702995e-03
1.472236118059029423e+03 3.331616667121395804e-03
1.473136568284141958e+03 3.254004405861440387e-03
1.474037018509254494e+03 3.191029770160004522e-03
1.474937468734367030e+03 3.136385616714208995e-03
1.475837918959479566e+03 3.076157555931757596e-03
1.476738369184592329e+03 3.002491226703220793e-03
1.477638819409704865e+03 2.921305847997901408e-03
1.478539269634817401e+03 2.844907848954737924e-03
1.479439719859929937e+03 2.780644220726121059e-03
1.480340170085042473e+03 2.726937640701484512e-03
1.481240620310155009e+03 2.677936586987160819e-03
1.482141070535267545e+03 2.629358222781542822e-03
1.483041520760380081e+03 2.578868043990471207e-03
1.483941970985492617e+03 2.527384947761820554e-03
1.484842421210605153e+03 2.476734833097053983e-03
1.485742871435717689e+03 2.428269732507128999e-03
1.486643321660830452e+03 2.382875126302116345e-03
1.487543771885942988e+03 2.340463055920798899e-03
1.488444222111055524e+03 2.299681053968667677e-03
1.489344672336168060e+03 2.260917561229731833e-03
1.490245122561280596e+03 2.230178878408636822e-03
1.491145572786393132e+03 2.210214162222905090e-03
1.492046023011505667e+03 2.196760733165537254e-03
1.492946473236618203e+03 2.182070960618444095e-03
1.493846923461730739e+03 2.159918204003856597e-03
1.494747373686843275e+03 2.129977074943299742e-03
1.495647823911955811e+03 2.094955299420960156e-03
1.496548274137068574e+03 2.059670114064366449e-03
1.497448724362181110e+03 2.030945613617652062e-03
1.498349174587293646e+03 2.010877110722561652e-03
1.499249624812406182e+03 1.995409465140510815e-03
1.500150075037518718e+03 1.978887511494852470e-03
1.501050525262631254e+03 1.958073822402839250e-03
1.501950975487743790e+03 1.934026395534987289e-03
1.502851425712856326e+03 1.911804076819500651e-03
1.503751875937968862e+03 1.896504048668053123e-03
1.504652326163081398e+03 1.889832193414740747e-03
1.505552776388193934e+03 1.888475876804861057e-03
1.506453226613306470e+03 1.884814250982309002e-03
1.507353676838419233e+03 1.872138268892293818e-03
1.508254127063531769e+03 1.853028150419908570e-03
1.509154577288644305e+03 1.835221839198418166e-03
1.510055027513756841e+03 1.819044354019218801e-03
1.510955477738869376e+03 1.800294217267861497e-03
1.511855927963981912e+03 1.778910316965640667e-03
1.512756378189094448e+03 1.758273526007849991e-03
1.513656828414206984e+03 1.740808092543754283e-03
1.514557278639319520e+03 1.723148959234911204e-03
1.515457728864432056e+03 1.697096034041611695e-03
1.516358179089544592e+03 1.658818859879496220e-03
1.517258629314657355e+03 1.613090736588120543e-03
1.518159079539769891e+03 1.568508846513553190e-03
1.519059529764882427e+03 1.530837782204208259e-03
1.519959979989994963e+03 1.500594092526148912e-03
1.520860430215107499e+03 1.476785464513493849e-03
1.521760880440220035e+03 1.456375255817781008e-03
1.522661330665332571e+03 1.436970666711935530e-03
1.523561780890445107e+03 1.422783328169661314e-03
1.524462231115557643e+03 1.416999343604416354e-03
1.525362681340670179e+03 1.416226087753609530e-03
1.526263131565782714e+03 1.414805985208381122e-03
1.527163581790895478e+03 1.407490542091909729e-03
1.528064032016008014e+03 1.393107942656695089e-03
1.528964482241120550e+03 1.376249154604332553e-03
1.529864932466233086e+03 1.363492322437875231e-03
1.530765382691345621e+03 1.355012282943077661e-03
1.531665832916458157e+03 1.348473105470478044e-03
1.532566283141570693e+03 1.343514016469025008e-03
1.533466733366683229e+03 1.333872940303186495e-03
1.534367183591795765e+03 1.312374775177084030e-03
1.535267633816908301e+03 1.277342175422526002e-03
1.536168084042020837e+03 1.230361865275519766e-03
1.537068534267133600e+03 1.179697611613679141e-03
1.537968984492246136e+03 1.137097324204707242e-03
1.538869434717358672e+03 1.105117521025811983e-03
1.539769884942471208e+03 1.078454893497220830e-03
1.540670335167583744e+03 1.054364933546146329e-03
1.541570785392696280e+03 1.032961891400583547e-03
1.542471235617808816e+03 1.012773443528861223e-03
1.543371685842921352e+03 9.922544982983994271e-04
1.544272136068033888e+03 9.739437695515290637e-04
1.545172586293146423e+03 9.582846456951971820e-04
1.546073036518258959e+03 9.397354869313235236e-04
1.546973486743371723e+03 9.149584165758634351e-04
1.547873936968484259e+03 8.878906537020209112e-04
1.548774387193596795e+03 8.661612563636066162e-04
1.549674837418709330e+03 8.545966849345856126e-04
1.550575287643821866e+03 8.518123857243333017e-04
1.551475737868934402e+03 8.531733842067064193e-04
1.552376188094046938e+03 8.535929002809644920e-04
1.553276638319159474e+03 8.493812320612343422e-04
1.554177088544272010e+03 8.399553425698995076e-04
1.555077538769384546e+03 8.253157008737831320e-04
1.555977988994497082e+03 8.044038871158219663e-04
1.556878439219609618e+03 7.769356376179728258e-04
1.557778889444722381e+03 7.429277297093492575e-04
1.558679339669834917e+03 7.045771340015364974e-04
1.559579789894947453e+03 6.682553183065780130e-04
1.560480240120059989e+03 6.392707638923398423e-04
1.561380690345172525e+03 6.177364126368072332e-04
1.562281140570285061e+03 6.000514720912245026e-04
1.563181590795397597e+03 5.821022144709555668e-04
1.564082041020510133e+03 5.618193008334613006e-04
1.564982491245622668e+03 5.386735196883911002e-04
1.565882941470735204e+03 5.142149363465763718e-04
1.566783391695847740e+03 4.895423037354167378e-04
1.567683841920960504e+03 4.612551666040511263e-04
1.568584292146073039e+03 4.267276715276483844e-04
1.569484742371185575e+03 3.888999237637231804e-04
1.570385192596298111e+03 3.537702923164354847e-04
1.571285642821410647e+03 3.255302974165878672e-04
1.572186093046523183e+03 3.041435369545151851e-04
1.573086543271635719e+03 2.869885897164463134e-04
1.573986993496748255e+03 2.706314581546499787e-04
1.574887443721860791e+03 2.525910187614401363e-04
1.575787893946973327e+03 2.343834358079058852e-04
1.576688344172085863e+03 2.201523483498292499e-04
1.577588794397198626e+03 2.115990634194789559e-04
1.578489244622311162e+03 2.059474587204702446e-04
1.579389694847423698e+03 1.984227494647633266e-04
1.580290145072536234e+03 1.873905644617404576e-04
1.581190595297648770e+03 1.746580784113858443e-04
1.582091045522761306e+03 1.617988166775044295e-04
1.582991495747873842e+03 1.500845170350788489e-04
1.583891945972986377e+03 1.408098476268017688e-04
1.584792396198098913e+03 1.344679141751730733e-04
1.585692846423211449e+03 1.308466924425327564e-04
1.586593296648323985e+03 1.286060908610775814e-04
1.587493746873436749e+03 1.251043066592837549e-04
1.588394197098549284e+03 1.186947301795005346e-04
1.589294647323661820e+03 1.106949410138114364e-04
1.590195097548774356e+03 1.032209932487339159e-04
1.591095547773886892e+03 9.715043550006334234e-05
1.591995997998999428e+03 9.244541110185818965e-05
1.592896448224111964e+03 8.883647889726388697e-05
1.593796898449224500e+03 8.609722418227991672e-05
1.594697348674337036e+03 8.409487225335378552e-05
1.595597798899449572e+03 8.277021339497379231e-05
1.596498249124562108e+03 8.207078424810076468e-05
1.597398699349674871e+03 8.182691442783301364e-05
1.598299149574787407e+03 8.175170250630334353e-05
1.599199599799899943e+03 8.183383570966927349e-05
1.600100050025012479e+03 8.240667440031900642e-05
1.601000500250125015e+03 8.338276589067594876e-05
1.601900950475237551e+03 8.388810460730522001e-05
1.602801400700350086e+03 8.328341265011337483e-05
1.603701850925462622e+03 8.204386208351457379e-05
1.604602301150575158e+03 8.055752069027339029e-05
1.605502751375687694e+03 7.855354526305359910e-05
1.606403201600800230e+03 7.617309263840198554e-05
1.607303651825912766e+03 7.378379560163631098e-05
1.608204102051025529e+03 7.143149562893057094e-05
1.609104552276138065e+03 6.933994816357606317e-05
1.610005002501250601e+03 6.777222972535541150e-05
1.610905452726363137e+03 6.657663809394215359e-05
1.611805902951475673e+03 6.538076644751649781e-05
1.612706353176588209e+03 6.394486479761644861e-05
1.613606803401700745e+03 6.238924930265266099e-05
1.614507253626813281e+03 6.111830875310761435e-05
1.615407703851925817e+03 6.032032590305343720e-05
1.616308154077038353e+03 5.969336276593976401e-05
1.617208604302150889e+03 5.865427442111817847e-05
1.618109054527263652e+03 5.707176768535846185e-05
1.619009504752376188e+03 5.541932980249316218e-05
1.619909954977488724e+03 5.411020209972303326e-05
1.620810405202601260e+03 5.327454105659341378e-05
1.621710855427713796e+03 5.288542771411977020e-05
1.622611305652826331e+03 5.276034356747002249e-05
1.623511755877938867e+03 5.246641470018430340e-05
1.624412206103051403e+03 5.158707341147534354e-05
1.625312656328163939e+03 5.026487940034210928e-05
1.626213106553276475e+03 4.895724224037567964e-05
1.627113556778389011e+03 4.792057066282823940e-05
1.628014007003501774e+03 4.720548334815345264e-05
1.628914457228614310e+03 4.679605224694649888e-05
1.629814907453726846e+03 4.665148474783275992e-05
1.630715357678839382e+03 4.668413251880881523e-05
1.631615807903951918e+03 4.680682170634465543e-05
1.632516258129064454e+03 4.703913121370309876e-05
1.633416708354176990e+03 4.735862954969902281e-05
1.634317158579289526e+03 4.756492842947240189e-05
1.635217608804402062e+03 4.761755361610353697e-05
1.636118059029514598e+03 4.767253985543492596e-05
1.637018509254627133e+03 4.749870717031850402e-05
1.637918959479739897e+03 4.654887625920727949e-05
1.638819409704852433e+03 4.482528538969772594e-05
1.639719859929964969e+03 4.291929601848461359e-05
1.640620310155077505e+03 4.126277939193734719e-05
1.641520760380190040e+03 3.994183387344219579e-05
1.642421210605302576e+03 3.889609043540759764e-05
1.643321660830415112e+03 3.804787607398002675e-05
1.644222111055527648e+03 3.733713583408106921e-05
1.645122561280640184e+03 3.672277634984711238e-05
1.646023011505752720e+03 3.617749316079974333e-05
1.646923461730865256e+03 3.568308022829535153e-05
1.647823911955978019e+03 3.522719941837112561e-05
1.648724362181090555e+03 3.480131244866907075e-05
1.649624812406203091e+03 3.439937832308061374e-05
1.650525262631315627e+03 3.401702853036158873e-05
1.651425712856428163e+03 3.365103728362397616e-05
1.652326163081540699e+03 3.329897516062714627e-05
1.653226613306653235e+03 3.295897834752686486e-05
1.654127063531765771e+03 3.262959199860715416e-05
1.655027513756878307e+03 3.230966197374604039e-05
1.655927963981990843e+03 3.199825872330468304e-05
1.656828414207103378e+03 3.169462290834497306e-05
1.657728864432216142e+03 3.139812596094425736e-05
1.658629314657328678e+03 3.110824107521637687e-05
1.659529764882441214e+03 3.082452158833414368e-05
1.660430215107553749e+03 3.054658466983678478e-05
1.661330665332666285e+03 3.027409887344798472e-05
1.662231115557778821e+03 3.000677453362791849e-05
1.663131565782891357e+03 2.974435628120642648e-05
1.664032016008003893e+03 2.948661715447797228e-05
1.664932466233116429e+03 2.923335392364639812e-05
1.665832916458228965e+03 2.898438334678820756e-05
1.666733366683341501e+03 2.873953914738012265e-05
1.667633816908454037e+03 2.849866955548858828e-05
1.668534267133566800e+03 2.826163529281089035e-05
1.669434717358679336e+03 2.802830790987792637e-05
1.670335167583791872e+03 2.779856840469043208e-05
1.671235617808904408e+03 2.757230606781617505e-05
1.672136068034016944e+03 2.734941751090007460e-05
1.673036518259129480e+03 2.712980584466318898e-05
1.673936968484242016e+03 2.691337997946119674e-05
1.674837418709354552e+03 2.670005402690470007e-05
1.675737868934467087e+03 2.648974678527661939e-05
1.676638319159579623e+03 2.628238129479020237e-05
1.677538769384692159e+03 2.607788445136121746e-05
1.678439219609804923e+03 2.587618666963761372e-05
1.679339669834917459e+03 2.567722158769827876e-05
1.680240120060029994e+03 2.548092580715158372e-05
1.681140570285142530e+03 2.528723866345405802e-05
1.682041020510255066e+03 2.509610202212735403e-05
1.682941470735367602e+03 2.490746009726582558e-05
1.683841920960480138e+03 2.472125928930850886e-05
1.684742371185592674e+03 2.453744803952220279e-05
1.685642821410705210e+03 2.435597669903883191e-05
1.686543271635817746e+03 2.417679741061352973e-05
1.687443721860930282e+03 2.399986400154297748e-05
1.688344172086043045e+03 2.382513188641066000e-05
1.689244622311155581e+03 2.365255797851001141e-05
1.690145072536268117e+03 2.348210060896456608e-05
1.691045522761380653e+03 2.331371945269182763e-05
1.691945972986493189e+03 2.314737546047666102e-05
1.692846423211605725e+03 2.298303079651186235e-05
1.693746873436718261e+03 2.282064878085440299e-05
1.694647323661830796e+03 2.266019383630748523e-05
1.695547773886943332e+03 2.250163143930788130e-05
1.696448224112055868e+03 2.234492807444492959e-05
1.697348674337168404e+03 2.219005119228586296e-05
1.698249124562281168e+03 2.203696917022061636e-05
1.699149574787393703e+03 2.188565127607531755e-05
1.700050025012506239e+03 2.173606763427008857e-05
1.700950475237618775e+03 2.158818919433001994e-05
1.701850925462731311e+03 2.144198770157311777e-05
1.702751375687843847e+03 2.129743566982838563e-05
1.703651825912956383e+03 2.115450635604946105e-05
1.704552276138068919e+03 2.101317373670920995e-05
1.705452726363181455e+03 2.087341248587792106e-05
1.706353176588293991e+03 2.073519795489281095e-05
1.707253626813406527e+03 2.059850615355505814e-05
1.708154077038519290e+03 2.046331373278504164e-05
1.709054527263631826e+03 2.032959796869215506e-05
1.709954977488744362e+03 2.019733674801757979e-05
1.710855427713856898e+03 2.006650855492590735e-05
1.711755877938969434e+03 1.993709245912421817e-05
1.712656328164081970e+03 1.980906810530713968e-05
1.713556778389194506e+03 1.968241570392780231e-05
1.714457228614307041e+03 1.955711602331600143e-05
1.715357678839419577e+03 1.943315038316434793e-05
1.716258129064532113e+03 1.931050064942841163e-05
1.717158579289644649e+03 1.918914923069293634e-05
1.718059029514757185e+03 1.906907907606953463e-05
1.718959479739869948e+03 1.895027367471547144e-05
1.719859929964982484e+03 1.883271705707263610e-05
1.720760380190095020e+03 1.871639379795156561e-05
1.721660830415207556e+03 1.860128902160673730e-05
1.722561280640320092e+03 1.848738840897430611e-05
1.723461730865432628e+03 1.837467820727559133e-05
1.724362181090545164e+03 1.826314524222193036e-05
1.725262631315657700e+03 1.815277693309758767e-05
1.726163081540770236e+03 1.804356131104206310e-05
1.727063531765882772e+03 1.793548704090769242e-05
1.727963981990995308e+03 1.782854344713037808e-05
1.728864432216108071e+03 1.772272054412486847e-05
1.729764882441220607e+03 1.761800907180133732e-05
1.730665332666333143e+03 1.751440053690482665e-05
1.731565782891445679e+03 1.741188726099409317e-05
1.732466233116558215e+03 1.731046243602599397e-05
1.733366683341670750e+03 1.721012018867816904e-05
1.734267133566783286e+03 1.711085565475057899e-05
1.735167583791895822e+03 1.701266506522788785e-05
1.736068034017008358e+03 1.691554584588504551e-05
1.736968484242120894e+03 1.681949673267493710e-05
1.737868934467233430e+03 1.672451790556969209e-05
1.738769384692346193e+03 1.663061114406013790e-05
1.739669834917458729e+03 1.653778000816332890e-05
1.740570285142571265e+03 1.644603004958492942e-05
1.741470735367683801e+03 1.635536905866672623e-05
1.742371185592796337e+03 1.626580735396568201e-05
1.743271635817908873e+03 1.617735812282705210e-05
1.744172086043021409e+03 1.609003782321092961e-05
1.745072536268133945e+03 1.600386665941782406e-05
1.745972986493246481e+03 1.591886914737168076e-05
1.746873436718359017e+03 1.583507478895349973e-05
1.747773886943471553e+03 1.575251887977758888e-05
1.748674337168584316e+03 1.567124348110272779e-05
1.749574787393696852e+03 1.559129859472980009e-05
1.750475237618809388e+03 1.551274359036223076e-05
1.751375687843921924e+03 1.543564894884708988e-05
1.752276138069034459e+03 1.536009840314530081e-05
1.753176588294146995e+03 1.528619158341686126e-05
1.754077038519259531e+03 1.521404730555921657e-05
1.754977488744372067e+03 1.514380768716054684e-05
1.755877938969484603e+03 1.507564333580276393e-05
1.756778389194597139e+03 1.500975993876671813e-05
1.757678839419709675e+03 1.494640670041096928e-05
1.758579289644822438e+03 1.488588723859207830e-05
1.759479739869934974e+03 1.482857378665014542e-05
1.760380190095047510e+03 1.477492588647748589e-05
1.761280640320160046e+03 1.472551525303931846e-05
1.762181090545272582e+03 1.468105922282616589e-05
1.763081540770385118e+03 1.464246629718562221e-05
1.763981990995497654e+03 1.461089896421602919e-05
1.764882441220610190e+03 1.458786156988065798e-05
1.765782891445722726e+03 1.457532507452344871e-05
1.766683341670835262e+03 1.457590702522541499e-05
1.767583791895947797e+03 1.459313561720046391e-05
1.768484242121060333e+03 1.463184409259609827e-05
1.769384692346173097e+03 1.469877071640312824e-05
1.770285142571285633e+03 1.480348824996344307e-05
1.771185592796398169e+03 1.495986803937250848e-05
1.772086043021510704e+03 1.518841437522758788e-05
1.772986493246623240e+03 1.551999087840075226e-05
1.773886943471735776e+03 1.600162027818580039e-05
1.774787393696848312e+03 1.670466775626229037e-05
1.775687843921960848e+03 1.773261179836301384e-05
1.776588294147073384e+03 1.921183061677380325e-05
1.777488744372185920e+03 2.120489913306670911e-05
1.778389194597298456e+03 2.342326948595421481e-05
1.779289644822411219e+03 2.486091756179452191e-05
1.780190095047523755e+03 2.440961476320788255e-05
1.781090545272636291e+03 2.238830877243367713e-05
1.781990995497748827e+03 2.004850251329519151e-05
1.782891445722861363e+03 1.811244391161229486e-05
1.783791895947973899e+03 1.668654259648643764e-05
1.784692346173086435e+03 1.566421320766689534e-05
1.785592796398198971e+03 1.492383126351758685e-05
1.786493246623311506e+03 1.437449213989661290e-05
1.787393696848424042e+03 1.395505242875081364e-05
1.788294147073536578e+03 1.362539794343018080e-05
1.789194597298649342e+03 1.335910574123374562e-05
1.790095047523761878e+03 1.313850476327118108e-05
1.790995497748874413e+03 1.295154765643576507e-05
1.791895947973986949e+03 1.278985410426221566e-05
1.792796398199099485e+03 1.264747901944930762e-05
1.793696848424212021e+03 1.252012587323211745e-05
1.794597298649324557e+03 1.240463545067103247e-05
1.795497748874437093e+03 1.229864744001083568e-05
1.796398199099549629e+03 1.220037231301976970e-05
1.797298649324662165e+03 1.210843483613130846e-05
1.798199099549774701e+03 1.202176492559695278e-05
1.799099549774887464e+03 1.193952032903903821e-05
1.800000000000000000e+03 1.186103105012113186e-05
