0.000000000000000000e+00 8.612711511415632824e-04
9.004502251125562351e-01 1.280017414494844094e-03
1.800900450225112470e+00 1.976723969076340116e-03
2.701350675337668594e+00 2.968955863958253581e-03
3.601800900450224940e+00 3.686107814203193247e-03
4.502251125562780842e+00 3.404922943231606866e-03
5.402701350675337189e+00 2.613602496751661966e-03
6.303151575787893535e+00 1.810988224944112086e-03
7.203601800900449881e+00 1.202310159918711574e-03
8.104052026013006227e+00 8.180142275486859942e-04
9.004502251125561685e+00 5.820182199029367990e-04
9.904952476238118919e+00 4.312614169241504262e-04
1.080540270135067438e+01 3.307848574053836536e-04
1.170585292646323161e+01 2.612548588823735232e-04
1.260630315157578707e+01 2.114064644079647498e-04
1.350675337668834430e+01 1.745428281979366871e-04
1.440720360180089976e+01 1.465674331937685706e-04
1.530765382691345522e+01 1.248820487167362535e-04
1.620810405202601245e+01 1.078005652990095254e-04
1.710855427713856969e+01 9.420358580342052125e-05
1.800900450225112337e+01 8.327372176254072575e-05
1.890945472736368060e+01 7.416175276741854587e-05
1.980990495247623784e+01 6.611338153119947843e-05
2.071035517758879507e+01 5.907547449731957511e-05
2.161080540270134875e+01 5.311982177129839989e-05
2.251125562781390599e+01 4.808921726568706964e-05
2.341170585292646322e+01 4.379652808243503855e-05
2.431215607803901690e+01 4.009861058219651899e-05
2.521260630315157414e+01 3.689208144800087583e-05
2.611305652826413137e+01 3.410454340903047157e-05
2.701350675337668861e+01 3.169031397279580432e-05
2.791395697848924229e+01 2.962910111816826207e-05
2.881440720360179952e+01 2.791516180189942682e-05
2.971485742871435676e+01 2.647249165860468098e-05
3.061530765382691044e+01 2.506592390971897535e-05
3.151575787893946767e+01 2.361867828633274665e-05
3.241620810405202491e+01 2.215378359208755796e-05
3.331665832916458214e+01 2.071592227025200399e-05
3.421710855427713938e+01 1.949806096889485855e-05
3.511755877938969661e+01 1.856711987913573224e-05
3.601800900450224674e+01 1.787818071501455098e-05
3.691845922961480397e+01 1.717684985117686822e-05
3.781890945472736121e+01 1.618860974911257830e-05
3.871935967983991844e+01 1.512586988981466764e-05
3.961980990495247568e+01 1.421214136340525875e-05
4.052026013006503291e+01 1.345259821840781995e-05
4.142071035517759015e+01 1.280556887773539180e-05
4.232116058029014027e+01 1.224277382100200379e-05
4.322161080540269751e+01 1.175040753177481542e-05
4.412206103051525474e+01 1.132553438377916456e-05
4.502251125562781198e+01 1.097614729703547266e-05
4.592296148074036921e+01 1.072442906330024718e-05
4.682341170585292645e+01 1.060249281675524498e-05
4.772386193096548368e+01 1.058240502671524385e-05
4.862431215607803381e+01 1.044464361437443594e-05
4.952476238119059104e+01 1.005870268649012179e-05
5.042521260630314828e+01 9.651817604526893857e-06
5.132566283141570551e+01 9.369888007440046399e-06
5.222611305652826275e+01 9.060088625801790809e-06
5.312656328164081998e+01 8.651889624076893403e-06
5.402701350675337721e+01 8.303188734360083419e-06
5.492746373186592734e+01 8.044749831975137633e-06
5.582791395697848458e+01 7.806096290791613687e-06
5.672836418209104181e+01 7.614486016522036352e-06
5.762881440720359905e+01 7.550625958029065622e-06
5.852926463231615628e+01 7.657320535413964478e-06
5.942971485742871351e+01 7.869662541328239429e-06
6.033016508254127075e+01 7.880806910131803276e-06
6.123061530765382088e+01 7.603031652447213840e-06
6.213106553276637811e+01 7.424561555222276283e-06
6.303151575787893535e+01 7.522823911008898312e-06
6.393196598299149258e+01 7.752372843405412359e-06
6.483241620810404982e+01 7.814551599298526574e-06
6.573286643321659994e+01 7.621809948866448324e-06
6.663331665832916428e+01 7.202519023167878694e-06
6.753376688344171441e+01 6.661911965176349510e-06
6.843421710855427875e+01 6.240522794127415040e-06
6.933466733366682888e+01 6.042647836818866408e-06
7.023511755877939322e+01 6.060502271879563372e-06
7.113556778389194335e+01 6.197507228134491808e-06
7.203601800900449348e+01 6.167740723292554023e-06
7.293646823411705782e+01 5.925085908947678618e-06
7.383691845922960795e+01 5.722772456104765806e-06
7.473736868434217229e+01 5.688959172987979014e-06
7.563781890945472242e+01 5.845240102525295478e-06
7.653826913456728676e+01 6.133258740972353211e-06
7.743871935967983688e+01 6.538558426399150857e-06
7.833916958479238701e+01 7.036575925379514293e-06
7.923961980990495135e+01 7.478628544100171021e-06
8.014007003501750148e+01 7.707694574051297085e-06
8.104052026013006582e+01 7.586731772205470060e-06
8.194097048524261595e+01 7.324970292338395994e-06
8.284142071035518029e+01 7.200134867282654319e-06
8.374187093546773042e+01 7.107990987829878820e-06
8.464232116058028055e+01 6.754945461046430918e-06
8.554277138569284489e+01 6.178656326907349309e-06
8.644322161080539502e+01 5.714649133516636444e-06
8.734367183591795936e+01 5.413548248270621551e-06
8.824412206103050949e+01 5.194661803411767318e-06
8.914457228614307382e+01 5.111921278267271534e-06
9.004502251125562395e+01 5.143640793942543785e-06
9.094547273636817408e+01 5.241998069793364561e-06
9.184592296148073842e+01 5.358258897351707020e-06
9.274637318659328855e+01 5.462909383686664707e-06
9.364682341170585289e+01 5.642504626422599376e-06
9.454727363681840302e+01 5.991574178455846535e-06
9.544772386193096736e+01 6.395787342823722454e-06
9.634817408704351749e+01 6.698615310080966574e-06
9.724862431215606762e+01 6.741704842820280006e-06
9.814907453726863196e+01 6.468647449875781095e-06
9.904952476238118209e+01 6.017069631369749374e-06
9.994997498749374643e+01 5.801039794560422578e-06
1.008504252126062966e+02 5.894321420028627839e-06
1.017508754377188609e+02 6.054769795769974810e-06
1.026513256628314110e+02 6.122138488620511847e-06
1.035517758879439612e+02 6.054702805980287890e-06
1.044522261130565255e+02 6.030797828280760175e-06
1.053526763381690756e+02 6.330463595448237097e-06
1.062531265632816400e+02 6.882814669561475421e-06
1.071535767883941901e+02 7.158401516970410003e-06
1.080540270135067544e+02 6.956811735462706931e-06
1.089544772386193046e+02 6.613282996490347802e-06
1.098549274637318547e+02 6.280374808211612685e-06
1.107553776888444190e+02 6.157185682259941329e-06
1.116558279139569692e+02 6.264535837012060258e-06
1.125562781390695335e+02 6.292474764311874819e-06
1.134567283641820836e+02 6.092718732814642300e-06
1.143571785892946480e+02 5.841418944649404695e-06
1.152576288144071981e+02 5.674178489537485633e-06
1.161580790395197482e+02 5.461145896688786597e-06
1.170585292646323126e+02 5.324225150629415526e-06
1.179589794897448627e+02 5.379551117664580086e-06
1.188594297148574270e+02 5.456845245040599678e-06
1.197598799399699772e+02 5.429029871510610590e-06
1.206603301650825415e+02 5.250709551049106733e-06
1.215607803901950916e+02 5.036176323078303046e-06
1.224612306153076418e+02 5.049342595010045512e-06
1.233616808404202061e+02 5.395868568652695415e-06
1.242621310655327562e+02 6.015827216097110325e-06
1.251625812906453206e+02 6.705254396321127287e-06
1.260630315157578707e+02 7.231003583311444557e-06
1.269634817408704350e+02 7.684491023079322958e-06
1.278639319659829852e+02 8.228071784435214182e-06
1.287643821910955353e+02 8.585043562887829669e-06
1.296648324162080996e+02 8.620042692215696006e-06
1.305652826413206640e+02 8.430596205561834318e-06
1.314657328664331999e+02 7.910498117935473093e-06
1.323661830915457642e+02 7.258216843240838177e-06
1.332666333166583286e+02 6.783607195575021547e-06
1.341670835417708929e+02 6.607977278471842285e-06
1.350675337668834288e+02 6.605961336830573697e-06
1.359679839919959932e+02 6.587513840618109003e-06
1.368684342171085575e+02 6.528321328620339933e-06
1.377688844422210934e+02 6.364556204598409260e-06
1.386693346673336578e+02 6.076067559462688252e-06
1.395697848924462221e+02 5.735362149761834973e-06
1.404702351175587864e+02 5.377222589958647795e-06
1.413706853426713224e+02 5.137417635900498360e-06
1.422711355677838867e+02 5.127504380279607100e-06
1.431715857928964510e+02 5.281810168735847610e-06
1.440720360180089870e+02 5.515621471966853204e-06
1.449724862431215513e+02 5.800905577340060036e-06
1.458729364682341156e+02 6.057803953022517617e-06
1.467733866933466800e+02 6.269040243004414743e-06
1.476738369184592159e+02 6.551124543123421630e-06
1.485742871435717802e+02 6.821555936851931631e-06
1.494747373686843446e+02 6.801623769740791677e-06
1.503751875937968805e+02 6.645873875271786158e-06
1.512756378189094448e+02 6.569608120336727340e-06
1.521760880440220092e+02 6.768249543055950434e-06
1.530765382691345735e+02 7.305294053075449978e-06
1.539769884942471094e+02 7.913614895859456653e-06
1.548774387193596738e+02 8.178525900527873537e-06
1.557778889444722381e+02 8.106708592551501951e-06
1.566783391695847740e+02 8.219534981453026657e-06
1.575787893946973384e+02 8.693649754368860757e-06
1.584792396198099027e+02 9.163241782606079119e-06
1.593796898449224670e+02 9.247076526472046935e-06
1.602801400700350030e+02 9.200970365834531213e-06
1.611805902951475673e+02 9.328640019101294489e-06
1.620810405202601316e+02 9.502388915159784704e-06
1.629814907453726676e+02 9.610205745349888025e-06
1.638819409704852319e+02 9.610277871779735338e-06
1.647823911955977962e+02 9.294957676117104997e-06
1.656828414207103606e+02 8.700778170698556535e-06
1.665832916458228965e+02 8.097518133762085285e-06
1.674837418709354608e+02 7.674483317054273958e-06
1.683841920960480252e+02 7.447253478552150129e-06
1.692846423211605611e+02 7.458620374482807557e-06
1.701850925462731254e+02 7.799733779743427980e-06
1.710855427713856898e+02 8.326811394021056481e-06
1.719859929964982541e+02 8.933529734636409488e-06
1.728864432216107900e+02 9.748287432349662457e-06
1.737868934467233544e+02 1.058108959879325479e-05
1.746873436718359187e+02 1.128956632450306526e-05
1.755877938969484546e+02 1.185656578854476003e-05
1.764882441220610190e+02 1.219763864173813309e-05
1.773886943471735833e+02 1.216322739099254083e-05
1.782891445722861476e+02 1.183609070132407914e-05
1.791895947973986836e+02 1.160375978724519285e-05
1.800900450225112479e+02 1.148855823545221883e-05
1.809904952476238122e+02 1.122412884808473322e-05
1.818909454727363482e+02 1.074717943937862950e-05
1.827913956978489125e+02 1.042382160160501779e-05
1.836918459229614768e+02 1.036045172422061477e-05
1.845922961480740412e+02 1.060806326257201411e-05
1.854927463731865771e+02 1.124037485383966560e-05
1.863931965982991414e+02 1.188889585181151610e-05
1.872936468234117058e+02 1.223900661827514946e-05
1.881940970485242417e+02 1.248202950787827119e-05
1.890945472736368060e+02 1.243217932650258692e-05
1.899949974987493704e+02 1.185849119929340712e-05
1.908954477238619347e+02 1.116080755576476183e-05
1.917958979489744706e+02 1.071939636442487698e-05
1.926963481740870350e+02 1.064252023352740018e-05
1.935967983991995993e+02 1.103585870620289531e-05
1.944972486243121352e+02 1.151867319955860405e-05
1.953976988494246996e+02 1.155551786674702372e-05
1.962981490745372639e+02 1.144920161038531965e-05
1.971985992996498283e+02 1.140546682566641560e-05
1.980990495247623642e+02 1.112365148230773711e-05
1.989994997498749285e+02 1.056978768321755227e-05
1.998999499749874929e+02 9.954315386081965942e-06
2.008004002001000288e+02 9.504122071490025820e-06
2.017008504252125931e+02 9.261466113284254486e-06
2.026013006503251574e+02 9.262882720648411204e-06
2.035017508754377218e+02 9.559897847147242350e-06
2.044022011005502577e+02 1.021035306200393774e-05
2.053026513256628220e+02 1.103797423965488635e-05
2.062031015507753864e+02 1.174910126157674061e-05
2.071035517758879223e+02 1.209362022962709167e-05
2.080040020010004866e+02 1.223449376977236877e-05
2.089044522261130510e+02 1.239920248081948607e-05
2.098049024512256153e+02 1.258129488138942308e-05
2.107053526763381512e+02 1.289393490259803585e-05
2.116058029014507156e+02 1.334134442900113818e-05
2.125062531265632799e+02 1.387265120421557898e-05
2.134067033516758158e+02 1.441451606965884040e-05
2.143071535767883802e+02 1.476560894413292993e-05
2.152076038019009445e+02 1.457965522804099062e-05
2.161080540270135089e+02 1.407489418580100866e-05
2.170085042521260448e+02 1.362846415597689552e-05
2.179089544772386091e+02 1.334839189748656591e-05
2.188094047023511735e+02 1.331262242423505445e-05
2.197098549274637094e+02 1.314263136495499917e-05
2.206103051525762737e+02 1.285350076555271099e-05
2.215107553776888381e+02 1.250074017798225071e-05
2.224112056028014024e+02 1.220211372145740259e-05
2.233116558279139383e+02 1.229270027468174801e-05
2.242121060530265027e+02 1.243161119270395601e-05
2.251125562781390670e+02 1.237011993190963369e-05
2.260130065032516029e+02 1.249996631911333986e-05
2.269134567283641672e+02 1.285904433897174218e-05
2.278139069534767316e+02 1.316093641004820063e-05
2.287143571785892959e+02 1.312710115751477149e-05
2.296148074037018318e+02 1.293424959337790924e-05
2.305152576288143962e+02 1.304750547251802964e-05
2.314157078539269605e+02 1.335367048863314297e-05
2.323161580790394964e+02 1.327200641950094358e-05
2.332166083041520608e+02 1.281301619407325062e-05
2.341170585292646251e+02 1.237399883397777241e-05
2.350175087543771895e+02 1.216780187809189548e-05
2.359179589794897254e+02 1.235005428334414864e-05
2.368184092046022897e+02 1.284485769955824851e-05
2.377188594297148541e+02 1.310065471168633420e-05
2.386193096548273900e+02 1.291325062447936573e-05
2.395197598799399543e+02 1.262411715800194284e-05
2.404202101050525187e+02 1.221024660791667576e-05
2.413206603301650830e+02 1.176296573009826160e-05
2.422211105552776189e+02 1.145227620449509510e-05
2.431215607803901833e+02 1.137071954123841678e-05
2.440220110055027476e+02 1.144612533615875260e-05
2.449224612306152835e+02 1.139977580533926031e-05
2.458229114557278479e+02 1.143256787957018920e-05
2.467233616808404122e+02 1.154469251387612348e-05
2.476238119059529765e+02 1.162420175311224238e-05
2.485242621310655124e+02 1.196462357854127899e-05
2.494247123561780768e+02 1.262177741807552065e-05
2.503251625812906411e+02 1.327876366278893023e-05
2.512256128064031770e+02 1.371941103857317185e-05
2.521260630315157414e+02 1.351926709138687853e-05
2.530265132566283057e+02 1.271094011740181409e-05
2.539269634817408701e+02 1.174705295217922810e-05
2.548274137068534060e+02 1.101788145867953840e-05
2.557278639319659703e+02 1.061815125691145281e-05
2.566283141570785347e+02 1.055110723959870764e-05
2.575287643821910706e+02 1.074350345215199239e-05
2.584292146073036633e+02 1.116372633660122756e-05
2.593296648324161993e+02 1.181892328709821169e-05
2.602301150575287352e+02 1.264248312589032751e-05
2.611305652826413279e+02 1.307753063754139615e-05
2.620310155077538639e+02 1.287125903522077285e-05
2.629314657328663998e+02 1.260830338363012490e-05
2.638319159579789925e+02 1.271108510241856864e-05
2.647323661830915285e+02 1.303538233944972383e-05
2.656328164082040644e+02 1.317435524764633399e-05
2.665332666333166571e+02 1.331702281959970316e-05
2.674337168584291931e+02 1.359748937206042461e-05
2.683341670835417858e+02 1.389982621516135745e-05
2.692346173086543217e+02 1.413197325404157167e-05
2.701350675337668577e+02 1.427458904611471024e-05
2.710355177588794504e+02 1.473221267932894873e-05
2.719359679839919863e+02 1.539287645753280244e-05
2.728364182091045222e+02 1.623113958970376309e-05
2.737368684342171150e+02 1.709406279073425757e-05
2.746373186593296509e+02 1.734013286030827890e-05
2.755377688844421868e+02 1.691543699257513474e-05
2.764382191095547796e+02 1.644550267698775508e-05
2.773386693346673155e+02 1.634803866863262359e-05
2.782391195597798514e+02 1.651029496308554839e-05
2.791395697848924442e+02 1.657550089712290546e-05
2.800400200100049801e+02 1.645387196900245172e-05
2.809404702351175729e+02 1.627422853831254917e-05
2.818409204602301088e+02 1.595200404048173067e-05
2.827413706853426447e+02 1.538455110081456714e-05
2.836418209104552375e+02 1.469605618505096892e-05
2.845422711355677734e+02 1.419424170208966803e-05
2.854427213606803093e+02 1.392892287898535760e-05
2.863431715857929021e+02 1.393492604918347848e-05
2.872436218109054380e+02 1.427297724549797905e-05
2.881440720360179739e+02 1.466293225445209975e-05
2.890445222611305667e+02 1.520392709129482119e-05
2.899449724862431026e+02 1.613574205503831737e-05
2.908454227113556385e+02 1.724161899158679751e-05
2.917458729364682313e+02 1.798285628980740320e-05
2.926463231615807672e+02 1.818155924337142414e-05
2.935467733866933600e+02 1.797224888138781258e-05
2.944472236118058959e+02 1.739305526618654938e-05
2.953476738369184318e+02 1.688238346537811887e-05
2.962481240620310246e+02 1.647806483753088983e-05
2.971485742871435605e+02 1.612695915850041118e-05
2.980490245122560964e+02 1.624003002545878387e-05
2.989494747373686891e+02 1.691825406093710313e-05
2.998499249624812251e+02 1.810289406995244568e-05
3.007503751875937610e+02 1.957034860331268038e-05
3.016508254127063537e+02 2.075474322338875539e-05
3.025512756378188897e+02 2.116362987370457255e-05
3.034517258629314256e+02 2.098037627647142617e-05
3.043521760880440183e+02 2.043586192399579938e-05
3.052526263131565543e+02 1.993395186669734079e-05
3.061530765382691470e+02 1.954355071536585344e-05
3.070535267633816829e+02 1.916262967924133568e-05
3.079539769884942189e+02 1.898126975850733086e-05
3.088544272136068116e+02 1.920450332044681144e-05
3.097548774387193475e+02 1.999295174163312326e-05
3.106553276638318835e+02 2.085944935472045723e-05
3.115557778889444762e+02 2.100512507810156559e-05
3.124562281140570121e+02 2.048552391034149606e-05
3.133566783391695481e+02 1.993034483524193856e-05
3.142571285642821408e+02 2.012004428164600119e-05
3.151575787893946767e+02 2.136376105509630869e-05
3.160580290145072127e+02 2.326767149327343986e-05
3.169584792396198054e+02 2.453282839797644812e-05
3.178589294647323413e+02 2.445722283278253312e-05
3.187593796898449341e+02 2.379332309297663918e-05
3.196598299149574700e+02 2.321003485808227119e-05
3.205602801400700059e+02 2.314499034109668364e-05
3.214607303651825987e+02 2.335831786956927810e-05
3.223611805902951346e+02 2.345666666361953865e-05
3.232616308154076705e+02 2.348380355248594250e-05
3.241620810405202633e+02 2.366476596963165756e-05
3.250625312656327992e+02 2.382677170025816434e-05
3.259629814907453351e+02 2.391964206888433988e-05
3.268634317158579279e+02 2.409705255625196977e-05
3.277638819409704638e+02 2.427946866535176214e-05
3.286643321660829997e+02 2.442426990230399966e-05
3.295647823911955925e+02 2.436955259991499813e-05
3.304652326163081284e+02 2.414293532694879648e-05
3.313656828414207212e+02 2.407414819000380332e-05
3.322661330665332571e+02 2.437805459373546636e-05
3.331665832916457930e+02 2.484062085141056127e-05
3.340670335167583858e+02 2.529861749872632998e-05
3.349674837418709217e+02 2.540679831533778268e-05
3.358679339669834576e+02 2.474677754116083432e-05
3.367683841920960504e+02 2.358003602559445884e-05
3.376688344172085863e+02 2.264846697637272555e-05
3.385692846423211222e+02 2.213943220663238410e-05
3.394697348674337150e+02 2.170402489254904521e-05
3.403701850925462509e+02 2.146854974287524059e-05
3.412706353176587868e+02 2.199715796136962097e-05
3.421710855427713796e+02 2.340220573441072289e-05
3.430715357678839155e+02 2.476039289684760447e-05
3.439719859929965082e+02 2.555592734828206290e-05
3.448724362181090441e+02 2.633589140370046487e-05
3.457728864432215801e+02 2.728248407459834887e-05
3.466733366683341728e+02 2.791532516240249968e-05
3.475737868934467087e+02 2.796779569857069732e-05
3.484742371185592447e+02 2.753815355383855881e-05
3.493746873436718374e+02 2.721166839000440941e-05
3.502751375687843733e+02 2.726199681466511793e-05
3.511755877938969093e+02 2.716549662258648055e-05
3.520760380190095020e+02 2.698878480811657863e-05
3.529764882441220379e+02 2.699894100085798555e-05
3.538769384692345739e+02 2.675911042069070058e-05
3.547773886943471666e+02 2.631541698459034497e-05
3.556778389194597025e+02 2.591438005378089235e-05
3.565782891445722953e+02 2.572021642770089627e-05
3.574787393696848312e+02 2.597586809477908255e-05
3.583791895947973671e+02 2.616611646055306092e-05
3.592796398199099599e+02 2.565332507484249856e-05
3.601800900450224958e+02 2.494902643313450796e-05
3.610805402701350317e+02 2.440455357079098818e-05
3.619809904952476245e+02 2.364855273346444807e-05
3.628814407203601604e+02 2.285758757991159068e-05
3.637818909454726963e+02 2.253900017939069778e-05
3.646823411705852891e+02 2.251047003130805075e-05
3.655827913956978250e+02 2.210716946189157496e-05
3.664832416208103609e+02 2.153700221900410505e-05
3.673836918459229537e+02 2.108319053800587268e-05
3.682841420710354896e+02 2.084692010215755375e-05
3.691845922961480824e+02 2.081598752381824907e-05
3.700850425212606183e+02 2.090087005099614342e-05
3.709854927463731542e+02 2.113740125125453408e-05
3.718859429714857470e+02 2.157733723021500557e-05
3.727863931965982829e+02 2.194488756337668195e-05
3.736868434217108188e+02 2.209866815958567423e-05
3.745872936468234116e+02 2.186108166545717215e-05
3.754877438719359475e+02 2.155578568692905655e-05
3.763881940970484834e+02 2.156138524278716336e-05
3.772886443221610762e+02 2.205609179607452612e-05
3.781890945472736121e+02 2.320506560246849765e-05
3.790895447723861480e+02 2.466922037946866542e-05
3.799899949974987408e+02 2.564963619146776687e-05
3.808904452226112767e+02 2.588150759877936276e-05
3.817908954477238694e+02 2.612897441985956025e-05
3.826913456728364054e+02 2.666529820870397306e-05
3.835917958979489413e+02 2.663782395815653172e-05
3.844922461230615340e+02 2.552586198442363167e-05
3.853926963481740700e+02 2.416821833422291019e-05
3.862931465732866059e+02 2.329503678602799272e-05
3.871935967983991986e+02 2.276509569829317188e-05
3.880940470235117346e+02 2.226697712878027282e-05
3.889944972486242705e+02 2.171851997248180389e-05
3.898949474737368632e+02 2.103419077562943042e-05
3.907953976988493991e+02 2.047240943819366604e-05
3.916958479239619351e+02 2.037777821542439169e-05
3.925962981490745278e+02 2.078713536067038840e-05
3.934967483741870637e+02 2.131152038027083945e-05
3.943971985992996565e+02 2.195295032107537177e-05
3.952976488244121924e+02 2.258350901473616708e-05
3.961980990495247283e+02 2.296637559147222691e-05
3.970985492746373211e+02 2.290054976053031000e-05
3.979989994997498570e+02 2.228954577186633589e-05
3.988994497248623929e+02 2.164746378858524575e-05
3.997998999499749857e+02 2.136069027183989952e-05
4.007003501750875216e+02 2.099888766543728358e-05
4.016008004002000575e+02 2.064817984896636009e-05
4.025012506253126503e+02 2.056408497036190465e-05
4.034017008504251862e+02 2.017865930138029756e-05
4.043021510755377221e+02 1.942016769554561482e-05
4.052026013006503149e+02 1.901144779111599018e-05
4.061030515257628508e+02 1.905323748066512624e-05
4.070035017508754436e+02 1.916823408235872130e-05
4.079039519759879795e+02 1.926158456532948244e-05
4.088044022011005154e+02 1.927162394345604041e-05
4.097048524262131082e+02 1.922716927937017495e-05
4.106053026513256441e+02 1.919976501205802186e-05
4.115057528764381800e+02 1.900358901546759957e-05
4.124062031015507728e+02 1.859264779883004786e-05
4.133066533266633087e+02 1.830208715957094444e-05
4.142071035517758446e+02 1.839338099836477965e-05
4.151075537768884374e+02 1.889961232628225202e-05
4.160080040020009733e+02 1.978657798999232037e-05
4.169084542271135092e+02 2.081369442426818882e-05
4.178089044522261020e+02 2.130009329381122010e-05
4.187093546773386379e+02 2.113075241031969664e-05
4.196098049024512306e+02 2.099475640737721011e-05
4.205102551275637666e+02 2.129660611169818913e-05
4.214107053526763025e+02 2.184526164390483000e-05
4.223111555777888952e+02 2.245783721780483731e-05
4.232116058029014312e+02 2.328875178924694572e-05
4.241120560280139671e+02 2.432538513422983448e-05
4.250125062531265598e+02 2.471321519804397059e-05
4.259129564782390958e+02 2.414987197032811471e-05
4.268134067033516317e+02 2.328729376140804746e-05
4.277138569284642244e+02 2.256182866694858387e-05
4.286143071535767604e+02 2.198124635631711616e-05
4.295147573786892963e+02 2.171932785757284360e-05
4.304152076038018890e+02 2.197891813343538360e-05
4.313156578289144250e+02 2.204361148310378821e-05
4.322161080540270177e+02 2.158735156163707310e-05
4.331165582791395536e+02 2.121025247844132684e-05
4.340170085042520896e+02 2.126207271210206007e-05
4.349174587293646823e+02 2.163409603889780868e-05
4.358179089544772182e+02 2.200649127114429494e-05
4.367183591795897541e+02 2.214999105743873232e-05
4.376188094047023469e+02 2.211126499634750292e-05
4.385192596298148828e+02 2.201231111776462990e-05
4.394197098549274187e+02 2.177917301872522786e-05
4.403201600800400115e+02 2.155237340013318382e-05
4.412206103051525474e+02 2.138387772983309877e-05
4.421210605302650833e+02 2.124275426210889078e-05
4.430215107553776761e+02 2.128514675116612392e-05
4.439219609804902120e+02 2.122167212414615694e-05
4.448224112056028048e+02 2.092588604574847721e-05
4.457228614307153407e+02 2.105213308076226203e-05
4.466233116558278766e+02 2.173105926579815673e-05
4.475237618809404694e+02 2.228774726880032757e-05
4.484242121060530053e+02 2.262779881021483226e-05
4.493246623311655412e+02 2.271158952686602752e-05
4.502251125562781340e+02 2.226325029605817513e-05
4.511255627813906699e+02 2.175129866104791467e-05
4.520260130065032058e+02 2.188239336627686350e-05
4.529264632316157986e+02 2.249768667540844757e-05
4.538269134567283345e+02 2.314521491101062466e-05
4.547273636818408704e+02 2.376682317364146665e-05
4.556278139069534632e+02 2.388357907745725521e-05
4.565282641320659991e+02 2.329139587007537910e-05
4.574287143571785919e+02 2.264328933264941207e-05
4.583291645822911278e+02 2.236721832506183700e-05
4.592296148074036637e+02 2.232298216139360050e-05
4.601300650325162565e+02 2.240106193094850611e-05
4.610305152576287924e+02 2.257729291724720768e-05
4.619309654827413283e+02 2.257113959128645460e-05
4.628314157078539210e+02 2.228651650624943886e-05
4.637318659329664570e+02 2.189868849037817611e-05
4.646323161580789929e+02 2.151776023063109290e-05
4.655327663831915856e+02 2.141506639535920245e-05
4.664332166083041216e+02 2.171966049704288266e-05
4.673336668334167143e+02 2.215134934609437224e-05
4.682341170585292502e+02 2.280695748369370173e-05
4.691345672836417862e+02 2.379666576794731695e-05
4.700350175087543789e+02 2.440967647682114344e-05
4.709354677338669148e+02 2.490430125512799487e-05
4.718359179589794508e+02 2.554159002289997163e-05
4.727363681840920435e+02 2.607844643634653256e-05
4.736368184092045794e+02 2.670654898855283750e-05
4.745372686343171154e+02 2.688640501233151658e-05
4.754377188594297081e+02 2.655656966706977366e-05
4.763381690845422440e+02 2.602206698286327579e-05
4.772386193096547800e+02 2.549435878275242614e-05
4.781390695347673727e+02 2.495253336406522224e-05
4.790395197598799086e+02 2.422619097540019872e-05
4.799399699849925014e+02 2.364678583373209489e-05
4.808404202101050373e+02 2.345307905984047556e-05
4.817408704352175732e+02 2.371056974902774022e-05
4.826413206603301660e+02 2.427582882554173136e-05
4.835417708854427019e+02 2.475629294840696193e-05
4.844422211105552378e+02 2.506087889234948340e-05
4.853426713356678306e+02 2.518755307027819554e-05
4.862431215607803665e+02 2.513747363433286802e-05
4.871435717858929024e+02 2.503333109456143464e-05
4.880440220110054952e+02 2.494739768232012939e-05
4.889444722361180311e+02 2.484376398505062309e-05
4.898449224612305670e+02 2.476990458985173422e-05
4.907453726863431598e+02 2.496921813653556907e-05
4.916458229114556957e+02 2.570036588345409653e-05
4.925462731365682885e+02 2.629385001719892844e-05
4.934467233616808244e+02 2.607181056434478198e-05
4.943471735867933603e+02 2.531325705584977070e-05
4.952476238119059531e+02 2.467050775519431425e-05
4.961480740370184890e+02 2.464831920440785544e-05
4.970485242621310249e+02 2.512923946860583981e-05
4.979489744872436177e+02 2.553409271489816713e-05
4.988494247123561536e+02 2.574246469527351791e-05
4.997498749374686895e+02 2.607435110448798018e-05
5.006503251625812823e+02 2.671900945393097793e-05
5.015507753876938182e+02 2.717933073619012213e-05
5.024512256128063541e+02 2.710231101641209322e-05
5.033516758379189469e+02 2.657290619993042872e-05
5.042521260630314828e+02 2.619435125194436356e-05
5.051525762881440755e+02 2.653514039370383668e-05
5.060530265132566115e+02 2.709947348379007417e-05
5.069534767383691474e+02 2.765743131832679801e-05
5.078539269634817401e+02 2.831899990470022934e-05
5.087543771885942760e+02 2.887150734819399640e-05
5.096548274137068120e+02 2.897857302095626950e-05
5.105552776388194047e+02 2.846505774204867033e-05
5.114557278639319406e+02 2.775199420587460858e-05
5.123561780890445334e+02 2.752584238793867564e-05
5.132566283141570693e+02 2.815051229542534300e-05
5.141570785392696052e+02 2.934378648565742987e-05
5.150575287643821412e+02 3.027789092550231282e-05
5.159579789894946771e+02 3.056743973402617005e-05
5.168584292146073267e+02 3.033372530867847308e-05
5.177588794397198626e+02 3.020550992487408453e-05
5.186593296648323985e+02 3.042857675926185135e-05
5.195597798899449344e+02 3.063132297539007659e-05
5.204602301150574704e+02 3.094927355424845157e-05
5.213606803401700063e+02 3.161884923486365265e-05
5.222611305652826559e+02 3.236284525019997771e-05
5.231615807903951918e+02 3.277483770259103903e-05
5.240620310155077277e+02 3.285791605181009807e-05
5.249624812406202636e+02 3.301094873279391585e-05
5.258629314657327996e+02 3.306966248914642502e-05
5.267633816908454492e+02 3.297933553245906651e-05
5.276638319159579851e+02 3.308097974367751925e-05
5.285642821410705210e+02 3.337925220333301974e-05
5.294647323661830569e+02 3.416824044576985739e-05
5.303651825912955928e+02 3.534894559891566473e-05
5.312656328164081287e+02 3.643522545120634807e-05
5.321660830415207784e+02 3.697989332535678216e-05
5.330665332666333143e+02 3.711659186769061553e-05
5.339669834917458502e+02 3.724584124702484038e-05
5.348674337168583861e+02 3.772998048180181859e-05
5.357678839419709220e+02 3.879600780659010393e-05
5.366683341670835716e+02 3.997368480172751581e-05
5.375687843921961075e+02 4.062193344747263391e-05
5.384692346173086435e+02 4.082263473524115681e-05
5.393696848424211794e+02 4.115615160489891300e-05
5.402701350675337153e+02 4.172772773221838764e-05
5.411705852926462512e+02 4.240950539206269265e-05
5.420710355177589008e+02 4.314317145431286149e-05
5.429714857428714367e+02 4.361616005428995487e-05
5.438719359679839727e+02 4.307733532074959563e-05
5.447723861930965086e+02 4.195354814000966257e-05
5.456728364182090445e+02 4.119463609739552651e-05
5.465732866433215804e+02 4.090598289230095797e-05
5.474737368684342300e+02 4.097604891721674201e-05
5.483741870935467659e+02 4.134539330943124558e-05
5.492746373186593019e+02 4.205335890736197244e-05
5.501750875437718378e+02 4.318889614004318083e-05
5.510755377688843737e+02 4.429696637302608638e-05
5.519759879939970233e+02 4.448634139240378806e-05
5.528764382191095592e+02 4.355894880376948446e-05
5.537768884442220951e+02 4.244283286071936709e-05
5.546773386693346310e+02 4.179027217986645913e-05
5.555777888944471670e+02 4.183910167886469288e-05
5.564782391195597029e+02 4.216854076484121089e-05
5.573786893446723525e+02 4.219519672494131452e-05
5.582791395697848884e+02 4.197402301294116372e-05
5.591795897948974243e+02 4.170178190045715409e-05
5.600800400200099602e+02 4.112497803410646258e-05
5.609804902451224962e+02 4.051971770056659602e-05
5.618809404702351458e+02 4.055417384010164098e-05
5.627813906953476817e+02 4.100806759106336599e-05
5.636818409204602176e+02 4.157243091343276530e-05
5.645822911455727535e+02 4.206976468922291290e-05
5.654827413706852894e+02 4.208563718325723519e-05
5.663831915957978254e+02 4.162458759542165339e-05
5.672836418209104750e+02 4.099179848175788036e-05
5.681840920460230109e+02 4.087790386631148348e-05
5.690845422711355468e+02 4.145971734925700568e-05
5.699849924962480827e+02 4.206357125397261292e-05
5.708854427213606186e+02 4.227337553714729108e-05
5.717858929464731546e+02 4.197603602152119400e-05
5.726863431715858042e+02 4.156627993085210018e-05
5.735867933966983401e+02 4.063282482960342898e-05
5.744872436218108760e+02 3.925348819520404174e-05
5.753876938469234119e+02 3.798515294796652369e-05
5.762881440720359478e+02 3.724947644609536747e-05
5.771885942971485974e+02 3.733502429364598705e-05
5.780890445222611334e+02 3.812911846803959816e-05
5.789894947473736693e+02 3.919793041952126481e-05
5.798899449724862052e+02 3.955153549049255946e-05
5.807903951975987411e+02 3.889353974755602530e-05
5.816908454227112770e+02 3.815593387304600870e-05
5.825912956478239266e+02 3.822816054338602667e-05
5.834917458729364625e+02 3.835695844039503215e-05
5.843921960980489985e+02 3.774757791415201552e-05
5.852926463231615344e+02 3.704315939108505847e-05
5.861930965482740703e+02 3.657834407790192725e-05
5.870935467733867199e+02 3.627508339825632604e-05
5.879939969984992558e+02 3.600950606119656289e-05
5.888944472236117917e+02 3.551697560211858546e-05
5.897948974487243277e+02 3.517686439421407367e-05
5.906953476738368636e+02 3.539508806836070523e-05
5.915957978989493995e+02 3.611800637038230542e-05
5.924962481240620491e+02 3.682534550855303621e-05
5.933966983491745850e+02 3.666941579057317265e-05
5.942971485742871209e+02 3.614516084086070427e-05
5.951975987993996569e+02 3.573663897561226739e-05
5.960980490245121928e+02 3.497003738038724339e-05
5.969984992496247287e+02 3.436927376783689394e-05
5.978989494747373783e+02 3.438666660409503558e-05
5.987993996998499142e+02 3.473407806484955042e-05
5.996998499249624501e+02 3.488211483306189191e-05
6.006003001500749860e+02 3.428812185236089158e-05
6.015007503751875220e+02 3.332937064636051945e-05
6.024012006003001716e+02 3.271250726914097317e-05
6.033016508254127075e+02 3.244393368690948632e-05
6.042021010505252434e+02 3.214786342463531920e-05
6.051025512756377793e+02 3.197047381894976072e-05
6.060030015007503152e+02 3.201560104575529168e-05
6.069034517258628512e+02 3.210943104671518778e-05
6.078039019509755008e+02 3.251517947458808043e-05
6.087043521760880367e+02 3.292635624739921146e-05
6.096048024012005726e+02 3.312678191352759239e-05
6.105052526263131085e+02 3.311473981751852799e-05
6.114057028514256444e+02 3.318591628312079713e-05
6.123061530765382940e+02 3.353375251291817479e-05
6.132066033016508300e+02 3.394633977152743142e-05
6.141070535267633659e+02 3.342533266227514009e-05
6.150075037518759018e+02 3.213597166089932663e-05
6.159079539769884377e+02 3.084242377856906062e-05
6.168084042021009736e+02 2.970688544452333872e-05
6.177088544272136232e+02 2.924952102321244581e-05
6.186093046523261592e+02 2.953328965999151525e-05
6.195097548774386951e+02 3.031559397166875555e-05
6.204102051025512310e+02 3.123269647042525214e-05
6.213106553276637669e+02 3.191721640223189470e-05
6.222111055527763028e+02 3.212106955437519845e-05
6.231115557778889524e+02 3.174004801482984843e-05
6.240120060030014884e+02 3.153258210068715309e-05
6.249124562281140243e+02 3.169002823697032132e-05
6.258129064532265602e+02 3.180091812225063725e-05
6.267133566783390961e+02 3.162552904592321601e-05
6.276138069034517457e+02 3.105748480671327935e-05
6.285142571285642816e+02 3.035700825101196563e-05
6.294147073536768175e+02 2.977513320313372280e-05
6.303151575787893535e+02 2.959976705712330275e-05
6.312156078039018894e+02 2.971255469529990854e-05
6.321160580290144253e+02 3.007795656793824606e-05
6.330165082541270749e+02 3.042238688551279381e-05
6.339169584792396108e+02 3.065701021058906241e-05
6.348174087043521467e+02 3.090142952319275074e-05
6.357178589294646827e+02 3.062900309345536348e-05
6.366183091545772186e+02 3.014364161911321273e-05
6.375187593796898682e+02 2.981657873725606267e-05
6.384192096048024041e+02 2.951271728348854367e-05
6.393196598299149400e+02 2.938718477745526049e-05
6.402201100550274759e+02 2.933574320428658830e-05
6.411205602801400119e+02 2.928340778628601163e-05
6.420210105052525478e+02 2.936243747950508022e-05
6.429214607303651974e+02 2.951313792914858505e-05
6.438219109554777333e+02 2.958745320134655084e-05
6.447223611805902692e+02 2.967106144147744936e-05
6.456228114057028051e+02 2.993233802219891953e-05
6.465232616308153411e+02 3.017158384546117709e-05
6.474237118559278770e+02 3.022779645032752066e-05
6.483241620810405266e+02 3.026926241810776956e-05
6.492246123061530625e+02 3.055732391299756509e-05
6.501250625312655984e+02 3.081157158761536717e-05
6.510255127563781343e+02 3.072760921697019145e-05
6.519259629814906702e+02 3.054584151508522145e-05
6.528264132066033198e+02 2.999169665967262567e-05
6.537268634317158558e+02 2.913000837815391127e-05
6.546273136568283917e+02 2.849243213903331884e-05
6.555277638819409276e+02 2.831865072436090633e-05
6.564282141070534635e+02 2.834276797361954669e-05
6.573286643321659994e+02 2.848741117920910638e-05
6.582291145572786490e+02 2.880215597028361403e-05
6.591295647823911850e+02 2.922750742746894290e-05
6.600300150075037209e+02 2.947063240260374811e-05
6.609304652326162568e+02 2.932798777990079758e-05
6.618309154577287927e+02 2.901373792906203117e-05
6.627313656828414423e+02 2.860548969865766653e-05
6.636318159079539782e+02 2.786088407967744413e-05
6.645322661330665142e+02 2.702473843295143428e-05
6.654327163581790501e+02 2.657212998084551676e-05
6.663331665832915860e+02 2.652852574842502081e-05
6.672336168084041219e+02 2.681722539972312473e-05
6.681340670335167715e+02 2.718417029545336003e-05
6.690345172586293074e+02 2.741119678707110388e-05
6.699349674837418434e+02 2.776043588793127424e-05
6.708354177088543793e+02 2.807708008848288571e-05
6.717358679339669152e+02 2.793650669065826702e-05
6.726363181590794511e+02 2.757088354283667413e-05
6.735367683841921007e+02 2.745354091515798446e-05
6.744372186093046366e+02 2.739140985298532693e-05
6.753376688344171725e+02 2.738269848383798166e-05
6.762381190595297085e+02 2.764114995225219249e-05
6.771385692846422444e+02 2.810187168431006109e-05
6.780390195097548940e+02 2.870629372725397153e-05
6.789394697348674299e+02 2.941389864671598519e-05
6.798399199599799658e+02 3.018320615102600401e-05
6.807403701850925017e+02 3.082272954702916274e-05
6.816408204102050377e+02 3.106718305582437025e-05
6.825412706353175736e+02 3.063906777118252157e-05
6.834417208604302232e+02 2.968825093676705345e-05
6.843421710855427591e+02 2.899433356104896066e-05
6.852426213106552950e+02 2.883105122297324621e-05
6.861430715357678309e+02 2.872462137218381064e-05
6.870435217608803669e+02 2.847147367548712819e-05
6.879439719859930165e+02 2.820252398118373101e-05
6.888444222111055524e+02 2.805382913400966701e-05
6.897448724362180883e+02 2.779963875045469908e-05
6.906453226613306242e+02 2.779303917786237339e-05
6.915457728864431601e+02 2.829685301185182883e-05
6.924462231115556961e+02 2.907296773854943704e-05
6.933466733366683457e+02 2.999135049092818917e-05
6.942471235617808816e+02 3.077025590410083938e-05
6.951475737868934175e+02 3.107051458423288286e-05
6.960480240120059534e+02 3.092169313177252251e-05
6.969484742371184893e+02 3.025022016684011201e-05
6.978489244622311389e+02 2.933143482748721282e-05
6.987493746873436749e+02 2.874634238992835900e-05
6.996498249124562108e+02 2.848943363348869297e-05
7.005502751375687467e+02 2.860193063719538147e-05
7.014507253626812826e+02 2.900076929710563277e-05
7.023511755877938185e+02 2.925232839079473134e-05
7.032516258129064681e+02 2.925926189442192618e-05
7.041520760380190040e+02 2.905382631314428320e-05
7.050525262631315400e+02 2.879832055512833753e-05
7.059529764882440759e+02 2.862329882771950040e-05
7.068534267133566118e+02 2.847651594401979033e-05
7.077538769384691477e+02 2.861358126623538575e-05
7.086543271635817973e+02 2.913574529842112465e-05
7.095547773886943332e+02 2.998441379008408227e-05
7.104552276138068692e+02 3.073762810558266215e-05
7.113556778389194051e+02 3.098214169257513563e-05
7.122561280640319410e+02 3.079069264463691268e-05
7.131565782891445906e+02 3.078865514557918917e-05
7.140570285142571265e+02 3.115358930596851678e-05
7.149574787393696624e+02 3.126780424011701168e-05
7.158579289644821984e+02 3.061505940342591482e-05
7.167583791895947343e+02 3.000135728830505773e-05
7.176588294147072702e+02 2.986715168871896599e-05
7.185592796398199198e+02 2.980276419302233917e-05
7.194597298649324557e+02 2.994247400306725767e-05
7.203601800900449916e+02 3.015146357196846376e-05
7.212606303151575275e+02 3.058557972758624814e-05
7.221610805402700635e+02 3.181572686861645005e-05
7.230615307653827131e+02 3.377528527905090548e-05
7.239619809904952490e+02 3.536650366687430706e-05
7.248624312156077849e+02 3.616949969860176381e-05
7.257628814407203208e+02 3.634635208025180814e-05
7.266633316658328567e+02 3.648432230334748842e-05
7.275637818909453927e+02 3.690950930882835575e-05
7.284642321160580423e+02 3.742089429841116731e-05
7.293646823411705782e+02 3.794681387818955957e-05
7.302651325662831141e+02 3.847064577930933634e-05
7.311655827913956500e+02 3.846698785861442257e-05
7.320660330165081859e+02 3.821661642647551860e-05
7.329664832416207219e+02 3.825412867132853924e-05
7.338669334667333715e+02 3.808809107658562995e-05
7.347673836918459074e+02 3.769074161956957473e-05
7.356678339169584433e+02 3.762959782872399278e-05
7.365682841420709792e+02 3.759199499736776200e-05
7.374687343671835151e+02 3.714093782440804330e-05
7.383691845922961647e+02 3.706717987954230792e-05
7.392696348174087007e+02 3.778895492850455485e-05
7.401700850425212366e+02 3.795456878788987790e-05
7.410705352676337725e+02 3.720401149452710296e-05
7.419709854927463084e+02 3.668428396099656546e-05
7.428714357178588443e+02 3.661780483044837885e-05
7.437718859429714939e+02 3.664743210989260280e-05
7.446723361680840299e+02 3.695800426676661485e-05
7.455727863931965658e+02 3.777008939790161727e-05
7.464732366183091017e+02 3.823699197791667007e-05
7.473736868434216376e+02 3.769723311635110103e-05
7.482741370685342872e+02 3.693147257544178073e-05
7.491745872936468231e+02 3.623952843060799692e-05
7.500750375187593590e+02 3.529694549288049692e-05
7.509754877438718950e+02 3.444779760873857517e-05
7.518759379689844309e+02 3.396467187352062729e-05
7.527763881940969668e+02 3.414899293669267826e-05
7.536768384192096164e+02 3.520317981650468507e-05
7.545772886443221523e+02 3.668493757990296011e-05
7.554777388694346882e+02 3.783641133063280496e-05
7.563781890945472242e+02 3.865415698874322592e-05
7.572786393196597601e+02 3.844801999048742347e-05
7.581790895447722960e+02 3.719286191398981170e-05
7.590795397698849456e+02 3.642109771572500643e-05
7.599799899949974815e+02 3.627345552662583611e-05
7.608804402201100174e+02 3.671929115469331679e-05
7.617808904452225534e+02 3.782258116320907373e-05
7.626813406703350893e+02 3.883541963013179357e-05
7.635817908954477389e+02 3.961597448037791435e-05
7.644822411205602748e+02 4.054065156742009597e-05
7.653826913456728107e+02 4.155615920970704303e-05
7.662831415707853466e+02 4.215101467948359791e-05
7.671835917958978825e+02 4.236778376339793520e-05
7.680840420210104185e+02 4.257182386534196503e-05
7.689844922461230681e+02 4.268551395562220389e-05
7.698849424712356040e+02 4.244420138623405286e-05
7.707853926963481399e+02 4.188855302051097278e-05
7.716858429214606758e+02 4.061472976617514343e-05
7.725862931465732117e+02 3.913281465551226294e-05
7.734867433716858613e+02 3.841070525286771549e-05
7.743871935967983973e+02 3.822583912124345837e-05
7.752876438219109332e+02 3.784091078292733847e-05
7.761880940470234691e+02 3.684143630171748057e-05
7.770885442721360050e+02 3.553961396196272444e-05
7.779889944972485409e+02 3.440427532549963382e-05
7.788894447223611905e+02 3.399922923386170117e-05
7.797898949474737265e+02 3.407888367679986043e-05
7.806903451725862624e+02 3.372593432841363510e-05
7.815907953976987983e+02 3.282107677253997494e-05
7.824912456228113342e+02 3.199574607631790754e-05
7.833916958479238701e+02 3.166974725342771224e-05
7.842921460730365197e+02 3.170845829135700083e-05
7.851925962981490557e+02 3.178711518008022814e-05
7.860930465232615916e+02 3.180022366020750181e-05
7.869934967483741275e+02 3.194553342839148496e-05
7.878939469734866634e+02 3.208373805618211288e-05
7.887943971985993130e+02 3.235884760584299333e-05
7.896948474237118489e+02 3.294739351989043550e-05
7.905952976488243849e+02 3.350421330794529158e-05
7.914957478739369208e+02 3.408089354691309577e-05
7.923961980990494567e+02 3.515126906315007915e-05
7.932966483241619926e+02 3.695886667574194986e-05
7.941970985492746422e+02 3.891313779401006005e-05
7.950975487743871781e+02 4.020899029461452544e-05
7.959979989994997140e+02 4.050133934529242326e-05
7.968984492246122500e+02 4.075612880534575750e-05
7.977988994497247859e+02 4.140520090713011231e-05
7.986993496748374355e+02 4.174863605096186656e-05
7.995997998999499714e+02 4.182848164567429207e-05
8.005002501250625073e+02 4.190463795991242006e-05
8.014007003501750432e+02 4.247236067421696960e-05
8.023011505752875792e+02 4.315066054683858621e-05
8.032016008004001151e+02 4.309828293302503762e-05
8.041020510255127647e+02 4.223812581995722035e-05
8.050025012506253006e+02 4.077389784716636291e-05
8.059029514757378365e+02 3.956384898311564801e-05
8.068034017008503724e+02 3.912981609916037489e-05
8.077038519259629084e+02 3.869664201965539245e-05
8.086043021510754443e+02 3.806362382662352797e-05
8.095047523761880939e+02 3.764797051616053348e-05
8.104052026013006298e+02 3.772393414784199742e-05
8.113056528264131657e+02 3.744093237892160873e-05
8.122061030515257016e+02 3.647496992535499471e-05
8.131065532766382375e+02 3.548014214732300486e-05
8.140070035017508872e+02 3.498523370962552985e-05
8.149074537268634231e+02 3.479751589056793472e-05
8.158079039519759590e+02 3.447076353838217198e-05
8.167083541770884949e+02 3.421813940271629576e-05
8.176088044022010308e+02 3.455999516469668049e-05
8.185092546273135667e+02 3.557345019435332662e-05
8.194097048524262163e+02 3.625317320631432210e-05
8.203101550775387523e+02 3.618754676298261791e-05
8.212106053026512882e+02 3.606737940437980606e-05
8.221110555277638241e+02 3.577085875641727289e-05
8.230115057528763600e+02 3.531394326346860054e-05
8.239119559779890096e+02 3.525646619900133514e-05
8.248124062031015455e+02 3.573569254107661228e-05
8.257128564282140815e+02 3.617080602804714377e-05
8.266133066533266174e+02 3.644104349800355138e-05
8.275137568784391533e+02 3.657483303721688399e-05
8.284142071035516892e+02 3.622317273547227655e-05
8.293146573286643388e+02 3.580338900929109087e-05
8.302151075537768747e+02 3.572001424734933662e-05
8.311155577788894107e+02 3.594274792694897357e-05
8.320160080040019466e+02 3.629793500720600671e-05
8.329164582291144825e+02 3.655993869258733747e-05
8.338169084542270184e+02 3.674194833814417805e-05
8.347173586793396680e+02 3.684823888618869318e-05
8.356178089044522039e+02 3.728237648701383268e-05
8.365182591295647399e+02 3.830556060472825467e-05
8.374187093546772758e+02 3.906716857329805854e-05
8.383191595797898117e+02 3.888580182592372986e-05
8.392196098049024613e+02 3.812043720817238348e-05
8.401200600300149972e+02 3.682773749718733463e-05
8.410205102551275331e+02 3.497286101565588463e-05
8.419209604802400690e+02 3.288591016719225258e-05
8.428214107053526050e+02 3.121173458309764795e-05
8.437218609304651409e+02 3.043174693417043293e-05
8.446223111555777905e+02 2.994458729950493007e-05
8.455227613806903264e+02 2.928093817738075760e-05
8.464232116058028623e+02 2.862901415952116417e-05
8.473236618309153982e+02 2.851077761942969057e-05
8.482241120560279342e+02 2.884333744284108309e-05
8.491245622811405838e+02 2.913087356564280375e-05
8.500250125062531197e+02 2.894551819011472745e-05
8.509254627313656556e+02 2.836103528568557577e-05
8.518259129564781915e+02 2.802649443153420664e-05
8.527263631815907274e+02 2.782755319723150228e-05
8.536268134067032634e+02 2.776883603727160383e-05
8.545272636318159130e+02 2.839405041607416397e-05
8.554277138569284489e+02 2.923264883366264051e-05
8.563281640820409848e+02 2.966615802746963332e-05
8.572286143071535207e+02 2.975215162478930193e-05
8.581290645322660566e+02 3.006141947021333751e-05
8.590295147573785925e+02 3.092083166216131354e-05
8.599299649824912422e+02 3.187970822860894182e-05
8.608304152076037781e+02 3.232469627686006573e-05
8.617308654327163140e+02 3.232392885355031748e-05
8.626313156578288499e+02 3.241854298018772217e-05
8.635317658829413858e+02 3.304763420068488515e-05
8.644322161080540354e+02 3.415409393493394689e-05
8.653326663331665713e+02 3.541134569850555125e-05
8.662331165582791073e+02 3.641138462088695251e-05
8.671335667833916432e+02 3.702395761150575193e-05
8.680340170085041791e+02 3.773325341814597116e-05
8.689344672336167150e+02 3.830450782498848595e-05
8.698349174587293646e+02 3.797631279595438424e-05
8.707353676838419005e+02 3.699721572518258875e-05
8.716358179089544365e+02 3.619916401542021327e-05
8.725362681340669724e+02 3.621813108714863432e-05
8.734367183591795083e+02 3.681080170442235290e-05
8.743371685842921579e+02 3.754198477113867010e-05
8.752376188094046938e+02 3.822091737642073543e-05
8.761380690345172297e+02 3.842260950712941164e-05
8.770385192596297657e+02 3.839077164855193744e-05
8.779389694847423016e+02 3.921695681361436048e-05
8.788394197098548375e+02 4.067267706805463665e-05
8.797398699349674871e+02 4.129013064384841352e-05
8.806403201600800230e+02 4.079138110121247355e-05
8.815407703851925589e+02 4.019582181069582646e-05
8.824412206103050949e+02 3.979988621175748457e-05
8.833416708354176308e+02 3.953124584646324136e-05
8.842421210605301667e+02 3.939796793380567996e-05
8.851425712856428163e+02 3.926799856224955922e-05
8.860430215107553522e+02 3.959664593742642915e-05
8.869434717358678881e+02 4.065491508764746304e-05
8.878439219609804240e+02 4.122221974998603632e-05
8.887443721860929600e+02 4.078913619274120601e-05
8.896448224112056096e+02 4.057531006204447048e-05
8.905452726363181455e+02 4.169244185731097341e-05
8.914457228614306814e+02 4.411438865844198939e-05
8.923461730865432173e+02 4.679887859429497518e-05
8.932466233116557532e+02 4.810714919530611219e-05
8.941470735367682892e+02 4.789842890303082931e-05
8.950475237618809388e+02 4.765886043090132286e-05
8.959479739869934747e+02 4.861068807173837039e-05
8.968484242121060106e+02 4.971407889139658120e-05
8.977488744372185465e+02 4.963216248041669618e-05
8.986493246623310824e+02 4.941735236297392051e-05
8.995497748874437320e+02 5.029019854876682515e-05
9.004502251125562680e+02 5.205637224839848527e-05
9.013506753376688039e+02 5.366205054330322824e-05
9.022511255627813398e+02 5.442458182378279613e-05
9.031515757878938757e+02 5.454823942267365616e-05
9.040520260130064116e+02 5.449546777428630523e-05
9.049524762381190612e+02 5.461150035060318347e-05
9.058529264632315972e+02 5.500202645201595833e-05
9.067533766883441331e+02 5.618706783628061533e-05
9.076538269134566690e+02 5.822812851529466423e-05
9.085542771385692049e+02 5.888694206148515449e-05
9.094547273636817408e+02 5.705427081496820824e-05
9.103551775887943904e+02 5.504721869852572991e-05
9.112556278139069263e+02 5.432754890264930250e-05
9.121560780390194623e+02 5.461752188248837853e-05
9.130565282641319982e+02 5.570332657286563823e-05
9.139569784892445341e+02 5.679250308876144685e-05
9.148574287143571837e+02 5.694120625701278737e-05
9.157578789394697196e+02 5.642205074480108459e-05
9.166583291645822555e+02 5.528119806724245903e-05
9.175587793896947915e+02 5.410266739618417321e-05
9.184592296148073274e+02 5.331898256100132510e-05
9.193596798399198633e+02 5.303593323913706757e-05
9.202601300650325129e+02 5.321853944321782858e-05
9.211605802901450488e+02 5.383004500198598161e-05
9.220610305152575847e+02 5.544009196870826117e-05
9.229614807403701207e+02 5.753372225898666748e-05
9.238619309654826566e+02 5.898424847981081334e-05
9.247623811905953062e+02 6.033262247726176361e-05
9.256628314157078421e+02 6.166257096008638668e-05
9.265632816408203780e+02 6.222133221568364593e-05
9.274637318659329139e+02 6.217568696915875734e-05
9.283641820910454499e+02 6.226669451723773673e-05
9.292646323161579858e+02 6.322291126468965519e-05
9.301650825412706354e+02 6.457795071808722495e-05
9.310655327663831713e+02 6.631646639777148461e-05
9.319659829914957072e+02 6.914815861842191409e-05
9.328664332166082431e+02 7.286254128503955778e-05
9.337668834417207790e+02 7.618957485362009413e-05
9.346673336668334287e+02 7.784762973431909544e-05
9.355677838919459646e+02 7.875353532869295106e-05
9.364682341170585005e+02 7.991514674446856942e-05
9.373686843421710364e+02 8.054652181938232527e-05
9.382691345672835723e+02 7.982150177549232509e-05
9.391695847923961082e+02 7.838106419621645169e-05
9.400700350175087578e+02 7.803381879747849840e-05
9.409704852426212938e+02 7.806277154025464396e-05
9.418709354677338297e+02 7.699863377652360922e-05
9.427713856928463656e+02 7.610548190317466342e-05
9.436718359179589015e+02 7.621075595473919952e-05
9.445722861430714374e+02 7.772670884816059637e-05
9.454727363681840870e+02 7.959944189172852560e-05
9.463731865932966230e+02 8.096543753135830655e-05
9.472736368184091589e+02 8.204657855548515679e-05
9.481740870435216948e+02 8.310488024442048093e-05
9.490745372686342307e+02 8.361102870584933926e-05
9.499749874937468803e+02 8.391808756414428168e-05
9.508754377188594162e+02 8.383449217345227277e-05
9.517758879439719522e+02 8.368750799839920582e-05
9.526763381690844881e+02 8.488288465276058378e-05
9.535767883941970240e+02 8.786194472462074880e-05
9.544772386193095599e+02 9.187567999259091866e-05
9.553776888444222095e+02 9.537067509468721426e-05
9.562781390695347454e+02 9.767785407064478011e-05
9.571785892946472813e+02 9.860798480100854951e-05
9.580790395197598173e+02 9.923806201713498574e-05
9.589794897448723532e+02 9.967242950418267109e-05
9.598799399699850028e+02 9.989596437191044435e-05
9.607803901950975387e+02 1.007218689098805027e-04
9.616808404202100746e+02 1.020062965253079146e-04
9.625812906453226105e+02 1.033502560491201031e-04
9.634817408704351465e+02 1.054281038057962826e-04
9.643821910955476824e+02 1.069579333764551722e-04
9.652826413206603320e+02 1.070785158451486809e-04
9.661830915457728679e+02 1.075356773680553294e-04
9.670835417708854038e+02 1.074790290489016631e-04
9.679839919959979397e+02 1.073979281307822602e-04
9.688844422211104757e+02 1.084389974440410796e-04
9.697848924462230116e+02 1.116837441792793782e-04
9.706853426713356612e+02 1.163769008763437232e-04
9.715857928964481971e+02 1.206110276453650293e-04
9.724862431215607330e+02 1.230668235462989088e-04
9.733866933466732689e+02 1.237338875883194956e-04
9.742871435717858049e+02 1.238106177487719448e-04
9.751875937968984545e+02 1.251290349863323542e-04
9.760880440220109904e+02 1.284249589628035635e-04
9.769884942471235263e+02 1.321215600022887266e-04
9.778889444722360622e+02 1.343152637731237899e-04
9.787893946973485981e+02 1.340418560507003508e-04
9.796898449224611340e+02 1.329180361000998961e-04
9.805902951475737837e+02 1.323699508189771473e-04
9.814907453726863196e+02 1.330377641185531202e-04
9.823911955977988555e+02 1.341149075468755516e-04
9.832916458229113914e+02 1.345509104356255349e-04
9.841920960480239273e+02 1.327390512364103145e-04
9.850925462731365769e+02 1.282515341275740546e-04
9.859929964982491128e+02 1.245246521517574985e-04
9.868934467233616488e+02 1.245842112491167900e-04
9.877938969484741847e+02 1.257381039719808404e-04
9.886943471735867206e+02 1.271586520690110825e-04
9.895947973986992565e+02 1.297572707058990875e-04
9.904952476238119061e+02 1.321722444662931911e-04
9.913956978489244420e+02 1.316808759171912225e-04
9.922961480740369780e+02 1.285823649756055612e-04
9.931965982991495139e+02 1.264605767105817749e-04
9.940970485242620498e+02 1.282242480580713685e-04
9.949974987493745857e+02 1.335649773008681593e-04
9.958979489744872353e+02 1.396047655941605372e-04
9.967983991995997712e+02 1.436263150807329855e-04
9.976988494247123072e+02 1.458505369005800060e-04
9.985992996498248431e+02 1.470289254005477787e-04
9.994997498749373790e+02 1.470631622473266421e-04
1.000400200100050029e+03 1.458519726104188358e-04
1.001300650325162565e+03 1.463233704676558081e-04
1.002201100550275100e+03 1.491858790602727369e-04
1.003101550775387636e+03 1.537640060825936847e-04
1.004002001000500172e+03 1.575949001021348579e-04
1.004902451225612708e+03 1.575325489931373227e-04
1.005802901450725358e+03 1.566343426761976983e-04
1.006703351675837894e+03 1.579030390510668329e-04
1.007603801900950430e+03 1.583713672954729858e-04
1.008504252126062966e+03 1.553996193817959275e-04
1.009404702351175501e+03 1.501642619326164327e-04
1.010305152576288151e+03 1.465226117629002433e-04
1.011205602801400687e+03 1.463758261223261400e-04
1.012106053026513223e+03 1.482713158430740022e-04
1.013006503251625759e+03 1.505885276354464316e-04
1.013906953476738295e+03 1.529461649725077910e-04
1.014807403701850831e+03 1.558535176122998508e-04
1.015707853926963480e+03 1.607205280975941032e-04
1.016608304152076016e+03 1.642191977070132849e-04
1.017508754377188552e+03 1.649276694661949792e-04
1.018409204602301088e+03 1.667264102447354427e-04
1.019309654827413624e+03 1.697115668015874242e-04
1.020210105052526160e+03 1.720103775743626461e-04
1.021110555277638809e+03 1.726783569933431739e-04
1.022011005502751345e+03 1.749085926860180615e-04
1.022911455727863881e+03 1.789860521041104248e-04
1.023811905952976417e+03 1.823924701421564048e-04
1.024712356178089067e+03 1.841090016712052294e-04
1.025612806403201603e+03 1.851920514937797652e-04
1.026513256628314139e+03 1.874205158618269876e-04
1.027413706853426675e+03 1.883825172923460161e-04
1.028314157078539210e+03 1.852545628354733626e-04
1.029214607303651746e+03 1.807350308661823416e-04
1.030115057528764282e+03 1.779245168628540430e-04
1.031015507753876818e+03 1.791222989625966327e-04
1.031915957978989354e+03 1.816209172038041851e-04
1.032816408204101890e+03 1.826483597819917053e-04
1.033716858429214653e+03 1.845277175779810343e-04
1.034617308654327189e+03 1.894450185670827126e-04
1.035517758879439725e+03 1.936834260757040380e-04
1.036418209104552261e+03 1.942569119522807993e-04
1.037318659329664797e+03 1.929872320140734680e-04
1.038219109554777333e+03 1.910426011017999455e-04
1.039119559779889869e+03 1.903664253382412715e-04
1.040020010005002405e+03 1.903845832581483883e-04
1.040920460230114941e+03 1.911351766898132987e-04
1.041820910455227477e+03 1.929625430328483972e-04
1.042721360680340013e+03 1.961132989112071578e-04
1.043621810905452776e+03 2.009170499660177067e-04
1.044522261130565312e+03 2.045769016149367504e-04
1.045422711355677848e+03 2.063853785425306378e-04
1.046323161580790384e+03 2.086074153475192669e-04
1.047223611805902920e+03 2.105395557490669762e-04
1.048124062031015455e+03 2.115780323153092549e-04
1.049024512256127991e+03 2.121424430420760783e-04
1.049924962481240527e+03 2.129478975763611699e-04
1.050825412706353063e+03 2.148514128818867813e-04
1.051725862931465599e+03 2.184835413639412262e-04
1.052626313156578135e+03 2.209217233360798974e-04
1.053526763381690898e+03 2.190108708445738398e-04
1.054427213606803434e+03 2.151471955985072586e-04
1.055327663831915970e+03 2.118265434502013722e-04
1.056228114057028506e+03 2.100145370314536073e-04
1.057128564282141042e+03 2.090120298689785577e-04
1.058029014507253578e+03 2.078150285514480727e-04
1.058929464732366114e+03 2.056760502449210310e-04
1.059829914957478650e+03 2.042712106303230075e-04
1.060730365182591186e+03 2.053391959384176654e-04
1.061630815407703722e+03 2.077705573424661761e-04
1.062531265632816257e+03 2.088688109648524204e-04
1.063431715857929021e+03 2.091042846656798856e-04
1.064332166083041557e+03 2.105108928938565784e-04
1.065232616308154093e+03 2.094328732323810544e-04
1.066133066533266629e+03 2.030065712863306205e-04
1.067033516758379164e+03 1.923490573223645176e-04
1.067933966983491700e+03 1.840260603682195408e-04
1.068834417208604236e+03 1.795903295791871905e-04
1.069734867433716772e+03 1.761930528051195420e-04
1.070635317658829308e+03 1.737386335468532399e-04
1.071535767883941844e+03 1.744925910428577723e-04
1.072436218109054380e+03 1.785454872493678121e-04
1.073336668334167143e+03 1.846072800974766419e-04
1.074237118559279679e+03 1.892683556654253384e-04
1.075137568784392215e+03 1.892848035199399691e-04
1.076038019009504751e+03 1.889588046776523669e-04
1.076938469234617287e+03 1.913709952897719373e-04
1.077838919459729823e+03 1.940352568525697933e-04
1.078739369684842359e+03 1.960948714347613298e-04
1.079639819909954895e+03 1.968926826831996553e-04
1.080540270135067431e+03 1.975486062493449961e-04
1.081440720360179967e+03 2.019439591345039439e-04
1.082341170585292502e+03 2.108206133647824308e-04
1.083241620810405038e+03 2.181751091846429391e-04
1.084142071035517802e+03 2.207125876676181242e-04
1.085042521260630338e+03 2.188175789172927955e-04
1.085942971485742873e+03 2.152891245748525680e-04
1.086843421710855409e+03 2.137871978188825089e-04
1.087743871935967945e+03 2.125736502248868178e-04
1.088644322161080481e+03 2.097007680638610214e-04
1.089544772386193017e+03 2.065302935071431398e-04
1.090445222611305553e+03 2.073156574318585897e-04
1.091345672836418089e+03 2.113767621013376476e-04
1.092246123061530625e+03 2.141091754039308880e-04
1.093146573286643161e+03 2.152569706788431719e-04
1.094047023511755924e+03 2.175304352647657307e-04
1.094947473736868460e+03 2.210145307268374863e-04
1.095847923961980996e+03 2.254241381235134155e-04
1.096748374187093532e+03 2.324749693409011774e-04
1.097648824412206068e+03 2.398405203093069318e-04
1.098549274637318604e+03 2.430244279933264310e-04
1.099449724862431140e+03 2.437080849478846420e-04
1.100350175087543676e+03 2.462471450706536259e-04
1.101250625312656211e+03 2.519392975576167449e-04
1.102151075537768747e+03 2.580109046437796235e-04
1.103051525762881283e+03 2.629514804974345758e-04
1.103951975987994047e+03 2.659869086236682869e-04
1.104852426213106583e+03 2.676128257211744040e-04
1.105752876438219118e+03 2.713575289379171313e-04
1.106653326663331654e+03 2.758739387226009465e-04
1.107553776888444190e+03 2.777761514703560924e-04
1.108454227113556726e+03 2.815125381821486782e-04
1.109354677338669262e+03 2.874678965479636537e-04
1.110255127563781798e+03 2.954291022779086291e-04
1.111155577788894334e+03 3.061103164503591978e-04
1.112056028014006870e+03 3.171617721014997004e-04
1.112956478239119406e+03 3.233025081311924256e-04
1.113856928464232169e+03 3.253163806839853389e-04
1.114757378689344705e+03 3.330539984177756851e-04
1.115657828914457241e+03 3.508128373810080010e-04
1.116558279139569777e+03 3.756875817699198189e-04
1.117458729364682313e+03 3.989737541799537345e-04
1.118359179589794849e+03 4.168919304638171231e-04
1.119259629814907385e+03 4.396487093341840038e-04
1.120160080040019920e+03 4.754452890744529183e-04
1.121060530265132456e+03 5.157892032532290305e-04
1.121960980490244992e+03 5.489940276950105872e-04
1.122861430715357528e+03 5.757435551504107556e-04
1.123761880940470292e+03 5.949420034638269869e-04
1.124662331165582827e+03 6.193786094136122028e-04
1.125562781390695363e+03 6.544859806109113798e-04
1.126463231615807899e+03 6.914340295862527125e-04
1.127363681840920435e+03 7.280145445906678354e-04
1.128264132066032971e+03 7.615383073331968410e-04
1.129164582291145507e+03 8.090906599436267039e-04
1.130065032516258043e+03 8.984179261036446054e-04
1.130965482741370579e+03 1.022972217794825174e-03
1.131865932966483115e+03 1.137167846774045539e-03
1.132766383191595651e+03 1.223455746160263596e-03
1.133666833416708187e+03 1.313941104677684166e-03
1.134567283641820950e+03 1.385400106790180171e-03
1.135467733866933486e+03 1.435745596318550518e-03
1.136368184092046022e+03 1.515841418252768767e-03
1.137268634317158558e+03 1.610673607833334846e-03
1.138169084542271094e+03 1.657053475450595038e-03
1.139069534767383630e+03 1.666772665318460439e-03
1.139969984992496165e+03 1.691381239344472241e-03
1.140870435217608701e+03 1.734647945358376402e-03
1.141770885442721237e+03 1.774774222470734773e-03
1.142671335667833773e+03 1.810038623239425921e-03
1.143571785892946309e+03 1.834003224204442620e-03
1.144472236118059072e+03 1.807814888451468463e-03
1.145372686343171608e+03 1.736669505901115200e-03
1.146273136568284144e+03 1.688095099142523318e-03
1.147173586793396680e+03 1.676251669704567539e-03
1.148074037018509216e+03 1.659888095293210377e-03
1.148974487243621752e+03 1.591371445301448771e-03
1.149874937468734288e+03 1.454755590331828193e-03
1.150775387693846824e+03 1.302284023475749680e-03
1.151675837918959360e+03 1.172980085528002332e-03
1.152576288144071896e+03 1.066205278425127545e-03
1.153476738369184432e+03 9.702175097343222407e-04
1.154377188594297195e+03 8.849322404258551725e-04
1.155277638819409731e+03 8.224305979910479262e-04
1.156178089044522267e+03 7.828349362536643789e-04
1.157078539269634803e+03 7.530616162478715988e-04
1.157978989494747339e+03 7.240591743512034923e-04
1.158879439719859874e+03 6.910852690166218327e-04
1.159779889944972410e+03 6.682835638362709515e-04
1.160680340170084946e+03 6.554526284375276554e-04
1.161580790395197482e+03 6.363032725206608326e-04
1.162481240620310018e+03 6.166130463557542097e-04
1.163381690845422554e+03 6.070403707653765054e-04
1.164282141070535317e+03 6.106337478442944861e-04
1.165182591295647853e+03 6.258730779471032967e-04
1.166083041520760389e+03 6.394255342195043516e-04
1.166983491745872925e+03 6.393446853727920718e-04
1.167883941970985461e+03 6.324796941680799244e-04
1.168784392196097997e+03 6.286075873364383761e-04
1.169684842421210533e+03 6.221679955590039097e-04
1.170585292646323069e+03 6.100334678051086207e-04
1.171485742871435605e+03 6.018299918345276084e-04
1.172386193096548141e+03 5.966075878830158974e-04
1.173286643321660677e+03 5.938145681769910417e-04
1.174187093546773440e+03 5.925675899045289860e-04
1.175087543771885976e+03 5.846161844228935566e-04
1.175987993996998512e+03 5.721892066291888769e-04
1.176888444222111048e+03 5.563712532336628292e-04
1.177788894447223583e+03 5.393466662913540223e-04
1.178689344672336119e+03 5.291805582734265909e-04
1.179589794897448655e+03 5.198151395013490264e-04
1.180490245122561191e+03 5.076450721096644131e-04
1.181390695347673727e+03 4.952537812521416163e-04
1.182291145572786263e+03 4.858199563295177107e-04
1.183191595797898799e+03 4.786307444575976897e-04
1.184092046023011562e+03 4.806974545603969005e-04
1.184992496248124098e+03 4.934509135422969180e-04
1.185892946473236634e+03 5.048948907285450479e-04
1.186793396698349170e+03 5.182387475536641202e-04
1.187693846923461706e+03 5.312720452762859265e-04
1.188594297148574242e+03 5.261594549485481285e-04
1.189494747373686778e+03 5.011370335452667397e-04
1.190395197598799314e+03 4.751500952361032131e-04
1.191295647823911850e+03 4.556038192173512990e-04
1.192196098049024386e+03 4.515211696962291034e-04
1.193096548274136921e+03 4.626893820047361808e-04
1.193996998499249457e+03 4.714053130167835445e-04
1.194897448724362221e+03 4.723119248229960690e-04
1.195797898949474757e+03 4.766803369819450575e-04
1.196698349174587293e+03 4.878688402677485271e-04
1.197598799399699828e+03 5.018412422517766307e-04
1.198499249624812364e+03 5.083594609540324338e-04
1.199399699849924900e+03 5.133931122956775402e-04
1.200300150075037436e+03 5.291119063288160030e-04
1.201200600300149972e+03 5.501274907189458111e-04
1.202101050525262508e+03 5.559672945475261112e-04
1.203001500750375044e+03 5.471054848379409410e-04
1.203901950975487580e+03 5.444871473620973169e-04
1.204802401200600343e+03 5.465756204506722754e-04
1.205702851425712879e+03 5.513791746464787643e-04
1.206603301650825415e+03 5.573272288533285797e-04
1.207503751875937951e+03 5.662933911742703240e-04
1.208404202101050487e+03 5.791312271839959896e-04
1.209304652326163023e+03 6.003674744285067682e-04
1.210205102551275559e+03 6.215560192379550840e-04
1.211105552776388095e+03 6.214767031395144244e-04
1.212006003001500630e+03 6.036668083704427312e-04
1.212906453226613166e+03 5.848868203072932941e-04
1.213806903451725702e+03 5.688718961960044333e-04
1.214707353676838466e+03 5.572074545583606715e-04
1.215607803901951002e+03 5.492104870665267136e-04
1.216508254127063537e+03 5.458722465543934185e-04
1.217408704352176073e+03 5.373500246604168530e-04
1.218309154577288609e+03 5.226163210907290363e-04
1.219209604802401145e+03 5.102613267700566776e-04
1.220110055027513681e+03 5.118202209959385246e-04
1.221010505252626217e+03 5.308613755872448837e-04
1.221910955477738753e+03 5.498020757513409152e-04
1.222811405702851289e+03 5.568662721194097328e-04
1.223711855927963825e+03 5.549288853752972709e-04
1.224612306153076588e+03 5.551823935481815494e-04
1.225512756378189124e+03 5.673349008732318744e-04
1.226413206603301660e+03 5.823382540725478927e-04
1.227313656828414196e+03 5.876103177106795084e-04
1.228214107053526732e+03 5.843468814660870980e-04
1.229114557278639268e+03 5.787261836039034584e-04
1.230015007503751804e+03 5.750229569297627633e-04
1.230915457728864340e+03 5.767379129859791535e-04
1.231815907953976875e+03 5.832980207216190800e-04
1.232716358179089411e+03 5.973382715411061075e-04
1.233616808404201947e+03 6.206448512730995942e-04
1.234517258629314711e+03 6.437035354576922100e-04
1.235417708854427246e+03 6.658351971960808999e-04
1.236318159079539782e+03 6.908220938619029578e-04
1.237218609304652318e+03 7.157708851910767013e-04
1.238119059529764854e+03 7.386680465617689222e-04
1.239019509754877390e+03 7.616044242006341815e-04
1.239919959979989926e+03 7.859312340296425829e-04
1.240820410205102462e+03 8.051694195466394021e-04
1.241720860430214998e+03 8.096983026618775198e-04
1.242621310655327534e+03 8.040879161220049589e-04
1.243521760880440070e+03 7.984712327380867570e-04
1.244422211105552606e+03 8.021880363570625542e-04
1.245322661330665369e+03 8.157953964862099845e-04
1.246223111555777905e+03 8.376774552357584827e-04
1.247123561780890441e+03 8.664006976189240258e-04
1.248024012006002977e+03 8.958226053063429208e-04
1.248924462231115513e+03 9.173885405616804796e-04
1.249824912456228049e+03 9.305792237616268038e-04
1.250725362681340584e+03 9.413495752615471269e-04
1.251625812906453120e+03 9.555719897651162231e-04
1.252526263131565656e+03 9.762486364081791749e-04
1.253426713356678192e+03 1.001626664186652761e-03
1.254327163581790728e+03 1.025438221170582110e-03
1.255227613806903491e+03 1.039491232495134499e-03
1.256128064032016027e+03 1.049059812195162443e-03
1.257028514257128563e+03 1.065031963688616674e-03
1.257928964482241099e+03 1.090953586084819757e-03
1.258829414707353635e+03 1.125695644542321332e-03
1.259729864932466171e+03 1.162611761274940248e-03
1.260630315157578707e+03 1.185354187158420497e-03
1.261530765382691243e+03 1.185649847457180810e-03
1.262431215607803779e+03 1.173673348793539918e-03
1.263331665832916315e+03 1.167984403972908460e-03
1.264232116058028851e+03 1.172491919195784056e-03
1.265132566283141614e+03 1.184551462066481481e-03
1.266033016508254150e+03 1.200049012245615670e-03
1.266933466733366686e+03 1.214100341271758541e-03
1.267833916958479222e+03 1.231063746459045306e-03
1.268734367183591758e+03 1.251873692727359117e-03
1.269634817408704293e+03 1.269582031405601863e-03
1.270535267633816829e+03 1.288460160278492687e-03
1.271435717858929365e+03 1.316800268325545942e-03
1.272336168084041901e+03 1.348011215225332002e-03
1.273236618309154437e+03 1.362831133927241804e-03
1.274137068534266973e+03 1.359964880632918765e-03
1.275037518759379736e+03 1.358883116168071873e-03
1.275937968984492272e+03 1.367553575410752117e-03
1.276838419209604808e+03 1.379556777253073850e-03
1.277738869434717344e+03 1.396613152139891938e-03
1.278639319659829880e+03 1.427823611654037471e-03
1.279539769884942416e+03 1.465594374197820267e-03
1.280440220110054952e+03 1.490390262048022895e-03
1.281340670335167488e+03 1.509939487644187473e-03
1.282241120560280024e+03 1.534199046009860831e-03
1.283141570785392560e+03 1.555312705392541571e-03
1.284042021010505096e+03 1.582656257436544948e-03
1.284942471235617859e+03 1.617444630906305063e-03
1.285842921460730395e+03 1.653137861508750892e-03
1.286743371685842931e+03 1.691125941511324336e-03
1.287643821910955467e+03 1.727191402641801293e-03
1.288544272136068003e+03 1.748139351855803074e-03
1.289444722361180538e+03 1.758369413069938141e-03
1.290345172586293074e+03 1.771444003349762581e-03
1.291245622811405610e+03 1.786022536165228708e-03
1.292146073036518146e+03 1.795097040822305227e-03
1.293046523261630682e+03 1.808964471710392680e-03
1.293946973486743218e+03 1.840576791290350319e-03
1.294847423711855754e+03 1.890267536319840914e-03
1.295747873936968517e+03 1.953354999740626249e-03
1.296648324162081053e+03 2.016256595559681557e-03
1.297548774387193589e+03 2.075525360508858382e-03
1.298449224612306125e+03 2.133893804875995268e-03
1.299349674837418661e+03 2.187360749980935166e-03
1.300250125062531197e+03 2.252231000614399094e-03
1.301150575287643733e+03 2.326441684353409284e-03
1.302051025512756269e+03 2.392203098825217405e-03
1.302951475737868805e+03 2.436467195331790559e-03
1.303851925962981340e+03 2.468519771593592586e-03
1.304752376188093876e+03 2.529698449910984699e-03
1.305652826413206640e+03 2.632374986805671724e-03
1.306553276638319176e+03 2.737690028995611990e-03
1.307453726863431712e+03 2.810419109578050825e-03
1.308354177088544247e+03 2.892588549195801439e-03
1.309254627313656783e+03 3.015225016262965217e-03
1.310155077538769319e+03 3.167563288778302462e-03
1.311055527763881855e+03 3.323096801885545154e-03
1.311955977988994391e+03 3.459310107730758938e-03
1.312856428214106927e+03 3.580985372924936662e-03
1.313756878439219463e+03 3.689273267247659624e-03
1.314657328664331999e+03 3.773138605282340841e-03
1.315557778889444762e+03 3.846810221239738755e-03
1.316458229114557298e+03 3.885864673793633459e-03
1.317358679339669834e+03 3.914542848564689023e-03
1.318259129564782370e+03 3.987630264969708321e-03
1.319159579789894906e+03 4.085492478732829884e-03
1.320060030015007442e+03 4.217641093292827728e-03
1.320960480240119978e+03 4.393305126014879214e-03
1.321860930465232514e+03 4.561422124528253033e-03
1.322761380690345050e+03 4.740798353627385248e-03
1.323661830915457585e+03 4.987105883275225020e-03
1.324562281140570121e+03 5.251475042929671343e-03
1.325462731365682885e+03 5.471164109374569880e-03
1.326363181590795421e+03 5.656353230329526534e-03
1.327263631815907956e+03 5.807870794471726821e-03
1.328164082041020492e+03 5.940480743453401859e-03
1.329064532266133028e+03 6.093670074375250566e-03
1.329964982491245564e+03 6.244043119604750919e-03
1.330865432716358100e+03 6.397575354134160328e-03
1.331765882941470636e+03 6.635778498299661245e-03
1.332666333166583172e+03 6.955371547169267483e-03
1.333566783391695708e+03 7.261445227917610185e-03
1.334467233616808244e+03 7.558765654461073284e-03
1.335367683841921007e+03 7.853977289520084823e-03
1.336268134067033543e+03 8.074611097393253820e-03
1.337168584292146079e+03 8.226953192628894129e-03
1.338069034517258615e+03 8.427039758807385733e-03
1.338969484742371151e+03 8.669745427329848125e-03
1.339869934967483687e+03 8.953303248958687996e-03
1.340770385192596223e+03 9.319324473334554201e-03
1.341670835417708759e+03 9.710847944729150694e-03
1.342571285642821294e+03 1.009015566607402922e-02
1.343471735867933830e+03 1.046757807482012401e-02
1.344372186093046366e+03 1.088106997665637919e-02
1.345272636318158902e+03 1.132296128425827435e-02
1.346173086543271666e+03 1.175037019437553606e-02
1.347073536768384201e+03 1.213505945710587411e-02
1.347973986993496737e+03 1.249855797072129023e-02
1.348874437218609273e+03 1.276461872233464016e-02
1.349774887443721809e+03 1.305794911115329762e-02
1.350675337668834345e+03 1.347943154970878202e-02
1.351575787893946881e+03 1.402154429328424101e-02
1.352476238119059417e+03 1.481378203343177921e-02
1.353376688344171953e+03 1.579307405580363671e-02
1.354277138569284489e+03 1.684018455238816409e-02
1.355177588794397025e+03 1.793267959601671860e-02
1.356078039019509788e+03 1.896760037059019507e-02
1.356978489244622324e+03 2.000402329692152828e-02
1.357878939469734860e+03 2.121900328587376580e-02
1.358779389694847396e+03 2.253300696641582015e-02
1.359679839919959932e+03 2.379343964320724397e-02
1.360580290145072468e+03 2.528976183322635338e-02
1.361480740370185003e+03 2.695160589819512592e-02
1.362381190595297539e+03 2.815805313350376593e-02
1.363281640820410075e+03 2.892278350313381985e-02
1.364182091045522611e+03 2.949846600730638216e-02
1.365082541270635147e+03 2.986648081015728234e-02
1.365982991495747910e+03 2.993961370477805917e-02
1.366883441720860446e+03 2.985357096151605022e-02
1.367783891945972982e+03 2.996349149225898886e-02
1.368684342171085518e+03 3.054366170997676114e-02
1.369584792396198054e+03 3.113914461667803210e-02
1.370485242621310590e+03 3.124376658040839069e-02
1.371385692846423126e+03 3.069275747778298438e-02
1.372286143071535662e+03 2.970299000649840107e-02
1.373186593296648198e+03 2.864633105384869691e-02
1.374087043521760734e+03 2.766488821466207490e-02
1.374987493746873270e+03 2.674414157334767742e-02
1.375887943971986033e+03 2.602830290428853957e-02
1.376788394197098569e+03 2.564821997517979443e-02
1.377688844422211105e+03 2.553057202028483422e-02
1.378589294647323641e+03 2.514231173903383465e-02
1.379489744872436177e+03 2.429297814842328387e-02
1.380390195097548713e+03 2.356074932406733782e-02
1.381290645322661248e+03 2.328850704065248134e-02
1.382191095547773784e+03 2.321354299946414013e-02
1.383091545772886320e+03 2.307103676239966386e-02
1.383991995997998856e+03 2.246766196193994425e-02
1.384892446223111392e+03 2.143564727784220622e-02
1.385792896448224155e+03 2.049560267551958290e-02
1.386693346673336691e+03 1.971467856952528394e-02
1.387593796898449227e+03 1.884957124870677639e-02
1.388494247123561763e+03 1.809050340562302212e-02
1.389394697348674299e+03 1.756469887052396553e-02
1.390295147573786835e+03 1.701056310051179618e-02
1.391195597798899371e+03 1.653592520728975473e-02
1.392096048024011907e+03 1.615357733297733203e-02
1.392996498249124443e+03 1.549770579034088526e-02
1.393896948474236979e+03 1.470161822185581807e-02
1.394797398699349515e+03 1.394994173704072749e-02
1.395697848924462278e+03 1.325456843023372147e-02
1.396598299149574814e+03 1.268461030504392482e-02
1.397498749374687350e+03 1.215920044985882749e-02
1.398399199599799886e+03 1.161056162131860608e-02
1.399299649824912422e+03 1.103528743801282172e-02
1.400200100050024957e+03 1.050201547309010004e-02
1.401100550275137493e+03 1.003979438153543811e-02
1.402001000500250029e+03 9.696761110625807048e-03
1.402901450725362565e+03 9.591151812229456453e-03
1.403801900950475101e+03 9.688020194464234958e-03
1.404702351175587637e+03 9.665421640991770508e-03
1.405602801400700173e+03 9.284525171035114960e-03
1.406503251625812936e+03 8.706820600807950797e-03
1.407403701850925472e+03 8.195353673027011565e-03
1.408304152076038008e+03 7.850964436302981797e-03
1.409204602301150544e+03 7.613552227168860105e-03
1.410105052526263080e+03 7.423987264301022855e-03
1.411005502751375616e+03 7.259074105958764241e-03
1.411905952976488152e+03 7.157401123041632306e-03
1.412806403201600688e+03 7.087951213387167632e-03
1.413706853426713224e+03 7.011183597688511356e-03
1.414607303651825760e+03 6.907941600779944798e-03
1.415507753876938295e+03 6.688043520968139574e-03
1.416408204102051059e+03 6.410669678028531673e-03
1.417308654327163595e+03 6.178484376345708649e-03
1.418209104552276131e+03 6.003605021303446386e-03
1.419109554777388666e+03 5.799411979604274410e-03
1.420010005002501202e+03 5.530035138170748266e-03
1.420910455227613738e+03 5.236941103873479428e-03
1.421810905452726274e+03 4.920777895521823674e-03
1.422711355677838810e+03 4.600845932511143932e-03
1.423611805902951346e+03 4.347433429949578917e-03
1.424512256128063882e+03 4.162305482056404167e-03
1.425412706353176418e+03 4.017483478075413970e-03
1.426313156578289181e+03 3.897913852778554615e-03
1.427213606803401717e+03 3.805387220783729325e-03
1.428114057028514253e+03 3.773693354792312122e-03
1.429014507253626789e+03 3.772731603452527185e-03
1.429914957478739325e+03 3.727933279206499615e-03
1.430815407703851861e+03 3.582425248636286665e-03
1.431715857928964397e+03 3.376882720345785946e-03
1.432616308154076933e+03 3.208464446660776789e-03
1.433516758379189469e+03 3.120782471455386346e-03
1.434417208604302004e+03 3.073592544164464348e-03
1.435317658829414540e+03 2.999714967938838569e-03
1.436218109054527304e+03 2.894765174215283791e-03
1.437118559279639840e+03 2.805471766844736935e-03
1.438019009504752376e+03 2.747653367772598908e-03
1.438919459729864911e+03 2.697494696893075732e-03
1.439819909954977447e+03 2.649289530561703063e-03
1.440720360180089983e+03 2.589585140302306382e-03
1.441620810405202519e+03 2.518485025161228998e-03
1.442521260630315055e+03 2.434332899761358290e-03
1.443421710855427591e+03 2.336750522452280075e-03
1.444322161080540127e+03 2.267735210026824381e-03
1.445222611305652663e+03 2.240071759722004219e-03
1.446123061530765426e+03 2.209341759495423666e-03
1.447023511755877962e+03 2.139295829048033174e-03
1.447923961980990498e+03 2.042123078336220612e-03
1.448824412206103034e+03 1.949269553571356941e-03
1.449724862431215570e+03 1.842644430277740790e-03
1.450625312656328106e+03 1.738002187724180378e-03
1.451525762881440642e+03 1.666400238386373314e-03
1.452426213106553178e+03 1.624875071817232300e-03
1.453326663331665713e+03 1.586700394074611834e-03
1.454227113556778249e+03 1.546347975642211768e-03
1.455127563781890785e+03 1.504305822502540087e-03
1.456028014007003321e+03 1.462541031193908495e-03
1.456928464232116085e+03 1.435775774706643483e-03
1.457828914457228620e+03 1.431790890793678030e-03
1.458729364682341156e+03 1.432457987491279113e-03
1.459629814907453692e+03 1.424135174187968287e-03
1.460530265132566228e+03 1.415850254019449103e-03
1.461430715357678764e+03 1.409096086827678384e-03
1.462331165582791300e+03 1.395980049584885033e-03
1.463231615807903836e+03 1.374306007961549440e-03
1.464132066033016372e+03 1.344328017948322402e-03
1.465032516258128908e+03 1.328708516670165912e-03
1.465932966483241444e+03 1.339423082158861921e-03
1.466833416708354207e+03 1.362622680244294018e-03
1.467733866933466743e+03 1.374656487810315721e-03
1.468634317158579279e+03 1.367831786295740232e-03
1.469534767383691815e+03 1.346286561213325518e-03
1.470435217608804351e+03 1.317828005343773872e-03
1.471335667833916887e+03 1.294554950588133659e-03
1.472236118059029423e+03 1.266427116508092327e-03
1.473136568284141958e+03 1.224859289626504437e-03
1.474037018509254494e+03 1.172628831058644856e-03
1.474937468734367030e+03 1.116019251409993730e-03
1.475837918959479566e+03 1.073316851817907817e-03
1.476738369184592329e+03 1.054507148437306384e-03
1.477638819409704865e+03 1.046684955961410708e-03
1.478539269634817401e+03 1.046816112236159928e-03
1.479439719859929937e+03 1.057152754421375202e-03
1.480340170085042473e+03 1.069941663801567567e-03
1.481240620310155009e+03 1.080883264971058914e-03
1.482141070535267545e+03 1.094708293475210072e-03
1.483041520760380081e+03 1.106510683852181265e-03
1.483941970985492617e+03 1.105212672329823707e-03
1.484842421210605153e+03 1.100584362413584106e-03
1.485742871435717689e+03 1.099960035181062144e-03
1.486643321660830452e+03 1.095058755106427572e-03
1.487543771885942988e+03 1.094701689415784234e-03
1.488444222111055524e+03 1.098852634708034383e-03
1.489344672336168060e+03 1.102828219072639728e-03
1.490245122561280596e+03 1.116529839592842951e-03
1.491145572786393132e+03 1.133184032986992665e-03
1.492046023011505667e+03 1.119548347802417666e-03
1.492946473236618203e+03 1.075761297411947665e-03
1.493846923461730739e+03 1.040733542516161184e-03
1.494747373686843275e+03 1.023260331096039703e-03
1.495647823911955811e+03 1.011023150324519108e-03
1.496548274137068574e+03 9.984653795564960715e-04
1.497448724362181110e+03 9.926804904665780666e-04
1.498349174587293646e+03 9.866172159705582402e-04
1.499249624812406182e+03 9.759651866114354762e-04
1.500150075037518718e+03 9.674842923690988835e-04
1.501050525262631254e+03 9.551327672756739070e-04
1.501950975487743790e+03 9.472565887315562887e-04
1.502851425712856326e+03 9.545236392299770922e-04
1.503751875937968862e+03 9.770978051683073661e-04
1.504652326163081398e+03 1.007020458311148978e-03
1.505552776388193934e+03 1.032158878214002422e-03
1.506453226613306470e+03 1.039572137815420209e-03
1.507353676838419233e+03 1.020756826149522107e-03
1.508254127063531769e+03 9.919754585658692794e-04
1.509154577288644305e+03 9.701264213353859344e-04
1.510055027513756841e+03 9.519417060695514439e-04
1.510955477738869376e+03 9.391423851915220314e-04
1.511855927963981912e+03 9.371011526113568997e-04
1.512756378189094448e+03 9.370767422062025419e-04
1.513656828414206984e+03 9.321243698324232531e-04
1.514557278639319520e+03 9.214693405379336365e-04
1.515457728864432056e+03 8.971792031094156898e-04
1.516358179089544592e+03 8.588321564209875107e-04
1.517258629314657355e+03 8.190066804712445086e-04
1.518159079539769891e+03 7.950722239336051322e-04
1.519059529764882427e+03 7.968843266306639044e-04
1.519959979989994963e+03 8.175367458101509424e-04
1.520860430215107499e+03 8.322670040515867899e-04
1.521760880440220035e+03 8.256660084770939918e-04
1.522661330665332571e+03 8.135646118739551678e-04
1.523561780890445107e+03 8.058163613648221778e-04
1.524462231115557643e+03 7.920744861664806959e-04
1.525362681340670179e+03 7.738324150701633665e-04
1.526263131565782714e+03 7.575537751456635875e-04
1.527163581790895478e+03 7.563252020661105548e-04
1.528064032016008014e+03 7.685854116670656853e-04
1.528964482241120550e+03 7.892680043098301412e-04
1.529864932466233086e+03 8.183292733691305190e-04
1.530765382691345621e+03 8.493544355390546642e-04
1.531665832916458157e+03 8.632081392073704231e-04
1.532566283141570693e+03 8.635593781032579758e-04
1.533466733366683229e+03 8.694135425022988129e-04
1.534367183591795765e+03 8.840955697171978952e-04
1.535267633816908301e+03 9.043979762092788132e-04
1.536168084042020837e+03 9.379947127994368167e-04
1.537068534267133600e+03 9.908777137478568583e-04
1.537968984492246136e+03 1.032959161540861377e-03
1.538869434717358672e+03 1.026351627975685774e-03
1.539769884942471208e+03 9.843780275212439101e-04
1.540670335167583744e+03 9.392605099751647748e-04
1.541570785392696280e+03 8.739117939136458726e-04
1.542471235617808816e+03 7.496235881310820727e-04
1.543371685842921352e+03 5.821138117136918011e-04
1.544272136068033888e+03 4.289755957270015340e-04
1.545172586293146423e+03 3.206240272315540735e-04
1.546073036518258959e+03 2.511468826765663842e-04
1.546973486743371723e+03 2.064004328809868093e-04
1.547873936968484259e+03 1.766475328758498008e-04
1.548774387193596795e+03 1.560928785635236175e-04
1.549674837418709330e+03 1.404628620906624181e-04
1.550575287643821866e+03 1.276464934787982747e-04
1.551475737868934402e+03 1.179451484443199024e-04
1.552376188094046938e+03 1.114522646679284862e-04
1.553276638319159474e+03 1.079563816047312750e-04
1.554177088544272010e+03 1.060423280201860447e-04
1.555077538769384546e+03 1.019292151385215464e-04
1.555977988994497082e+03 9.586143209549982495e-05
1.556878439219609618e+03 9.146194405033285897e-05
1.557778889444722381e+03 8.980140079092567844e-05
1.558679339669834917e+03 9.054308558745830752e-05
1.559579789894947453e+03 9.305431689722583430e-05
1.560480240120059989e+03 9.878272180769830536e-05
1.561380690345172525e+03 1.091931806463587078e-04
1.562281140570285061e+03 1.202508207379073603e-04
1.563181590795397597e+03 1.276914395417549702e-04
1.564082041020510133e+03 1.307535233905030025e-04
1.564982491245622668e+03 1.256190266431807083e-04
1.565882941470735204e+03 1.136542098690743961e-04
1.566783391695847740e+03 1.042717858973387209e-04
1.567683841920960504e+03 9.980604077465318465e-05
1.568584292146073039e+03 9.289939648112040206e-05
1.569484742371185575e+03 8.444400256521733235e-05
1.570385192596298111e+03 7.904698517245827591e-05
1.571285642821410647e+03 7.570717287605845146e-05
1.572186093046523183e+03 7.399227036768854320e-05
1.573086543271635719e+03 7.104363520334118335e-05
1.573986993496748255e+03 6.432085550278782702e-05
1.574887443721860791e+03 5.757651407949025929e-05
1.575787893946973327e+03 5.276245675020860569e-05
1.576688344172085863e+03 4.946315263667751868e-05
1.577588794397198626e+03 4.708223407048445854e-05
1.578489244622311162e+03 4.525360074955785583e-05
1.579389694847423698e+03 4.377359463105194023e-05
1.580290145072536234e+03 4.252651500619711788e-05
1.581190595297648770e+03 4.144342074510035698e-05
1.582091045522761306e+03 4.048110772063053924e-05
1.582991495747873842e+03 3.961121009248148834e-05
1.583891945972986377e+03 3.881432061532444187e-05
1.584792396198098913e+03 3.807667493078094101e-05
1.585692846423211449e+03 3.738820027178609527e-05
1.586593296648323985e+03 3.674132130849737930e-05
1.587493746873436749e+03 3.613020314971252791e-05
1.588394197098549284e+03 3.555025610432877410e-05
1.589294647323661820e+03 3.499780243543877174e-05
1.590195097548774356e+03 3.446984639265745641e-05
1.591095547773886892e+03 3.396391187951540577e-05
1.591995997998999428e+03 3.347792549976469410e-05
1.592896448224111964e+03 3.301013072507218295e-05
1.593796898449224500e+03 3.255902383540952821e-05
1.594697348674337036e+03 3.212330537066850739e-05
1.595597798899449572e+03 3.170184281764131413e-05
1.596498249124562108e+03 3.129364156004994498e-05
1.597398699349674871e+03 3.089782199144202061e-05
1.598299149574787407e+03 3.051360128444714315e-05
1.599199599799899943e+03 3.014027872061174833e-05
1.600100050025012479e+03 2.977722377339412513e-05
1.601000500250125015e+03 2.942386634220117681e-05
1.601900950475237551e+03 2.907968868338875948e-05
1.602801400700350086e+03 2.874421869218439870e-05
1.603701850925462622e+03 2.841702426922945428e-05
1.604602301150575158e+03 2.809770856490621395e-05
1.605502751375687694e+03 2.778590593940548299e-05
1.606403201600800230e+03 2.748127851054648360e-05
1.607303651825912766e+03 2.718351318747324022e-05
1.608204102051025529e+03 2.689231910854491606e-05
1.609104552276138065e+03 2.660742541748159135e-05
1.610005002501250601e+03 2.632857932417669676e-05
1.610905452726363137e+03 2.605554440636256077e-05
1.611805902951475673e+03 2.578809911609486962e-05
1.612706353176588209e+03 2.552603546124191329e-05
1.613606803401700745e+03 2.526915783719901768e-05
1.614507253626813281e+03 2.501728198810936768e-05
1.615407703851925817e+03 2.477023408019188048e-05
1.616308154077038353e+03 2.452784987249795255e-05
1.617208604302150889e+03 2.428997397265571486e-05
1.618109054527263652e+03 2.405645916701254603e-05
1.619009504752376188e+03 2.382716581612688892e-05
1.619909954977488724e+03 2.360196130785153479e-05
1.620810405202601260e+03 2.338071956131901013e-05
1.621710855427713796e+03 2.316332057606043654e-05
1.622611305652826331e+03 2.294965002124691150e-05
1.623511755877938867e+03 2.273959886069894579e-05
1.624412206103051403e+03 2.253306300986480143e-05
1.625312656328163939e+03 2.232994302144210923e-05
1.626213106553276475e+03 2.213014379671933356e-05
1.627113556778389011e+03 2.193357432007292908e-05
1.628014007003501774e+03 2.174014741435043263e-05
1.628914457228614310e+03 2.154977951513187989e-05
1.629814907453726846e+03 2.136239046209215649e-05
1.630715357678839382e+03 2.117790330588198211e-05
1.631615807903951918e+03 2.099624412911688898e-05
1.632516258129064454e+03 2.081734188021775356e-05
1.633416708354176990e+03 2.064112821897342732e-05
1.634317158579289526e+03 2.046753737281757881e-05
1.635217608804402062e+03 2.029650600291198507e-05
1.636118059029514598e+03 2.012797307921878744e-05
1.637018509254627133e+03 1.996187976382472190e-05
1.637918959479739897e+03 1.979816930185212187e-05
1.638819409704852433e+03 1.963678691935580832e-05
1.639719859929964969e+03 1.947767972765655274e-05
1.640620310155077505e+03 1.932079663361925448e-05
1.641520760380190040e+03 1.916608825542270717e-05
1.642421210605302576e+03 1.901350684341055654e-05
1.643321660830415112e+03 1.886300620565156149e-05
1.644222111055527648e+03 1.871454163786405014e-05
1.645122561280640184e+03 1.856806985739464829e-05
1.646023011505752720e+03 1.842354894096349569e-05
1.646923461730865256e+03 1.828093826591526395e-05
1.647823911955978019e+03 1.814019845473225414e-05
1.648724362181090555e+03 1.800129132259255417e-05
1.649624812406203091e+03 1.786417982776497725e-05
1.650525262631315627e+03 1.772882802465643656e-05
1.651425712856428163e+03 1.759520101933715903e-05
1.652326163081540699e+03 1.746326492738458735e-05
1.653226613306653235e+03 1.733298683389990463e-05
1.654127063531765771e+03 1.720433475555582868e-05
1.655027513756878307e+03 1.707727760455597679e-05
1.655927963981990843e+03 1.695178515438343846e-05
1.656828414207103378e+03 1.682782800723164372e-05
1.657728864432216142e+03 1.670537756301783110e-05
1.658629314657328678e+03 1.658440598988256386e-05
1.659529764882441214e+03 1.646488619609202421e-05
1.660430215107553749e+03 1.634679180325655605e-05
1.661330665332666285e+03 1.623009712079546090e-05
1.662231115557778821e+03 1.611477712157298960e-05
1.663131565782891357e+03 1.600080741864323914e-05
1.664032016008003893e+03 1.588816424303888196e-05
1.664932466233116429e+03 1.577682442254995155e-05
1.665832916458228965e+03 1.566676536143581084e-05
1.666733366683341501e+03 1.555796502102243622e-05
1.667633816908454037e+03 1.545040190113613633e-05
1.668534267133566800e+03 1.534405502233077132e-05
1.669434717358679336e+03 1.523890390886640046e-05
1.670335167583791872e+03 1.513492857240011340e-05
1.671235617808904408e+03 1.503210949635449956e-05
1.672136068034016944e+03 1.493042762092730970e-05
1.673036518259129480e+03 1.482986432870995620e-05
1.673936968484242016e+03 1.473040143088752359e-05
1.674837418709354552e+03 1.463202115398793584e-05
1.675737868934467087e+03 1.453470612715580476e-05
1.676638319159579623e+03 1.443843936992528576e-05
1.677538769384692159e+03 1.434320428046653857e-05
1.678439219609804923e+03 1.424898462428610104e-05
1.679339669834917459e+03 1.415576452335653079e-05
1.680240120060029994e+03 1.406352844565816563e-05
1.681140570285142530e+03 1.397226119511201501e-05
1.682041020510255066e+03 1.388194790188650472e-05
1.682941470735367602e+03 1.379257401306203876e-05
1.683841920960480138e+03 1.370412528363517235e-05
1.684742371185592674e+03 1.361658776784930764e-05
1.685642821410705210e+03 1.352994781083626742e-05
1.686543271635817746e+03 1.344419204055526556e-05
1.687443721860930282e+03 1.335930736001678031e-05
1.688344172086043045e+03 1.327528093977862845e-05
1.689244622311155581e+03 1.319210021070235294e-05
1.690145072536268117e+03 1.310975285695981233e-05
1.691045522761380653e+03 1.302822680927809298e-05
1.691945972986493189e+03 1.294751023841410784e-05
1.692846423211605725e+03 1.286759154884831588e-05
1.693746873436718261e+03 1.278845937268946454e-05
1.694647323661830796e+03 1.271010256378032122e-05
1.695547773886943332e+03 1.263251019199859338e-05
1.696448224112055868e+03 1.255567153774219176e-05
1.697348674337168404e+03 1.247957608659440684e-05
1.698249124562281168e+03 1.240421352415997244e-05
1.699149574787393703e+03 1.232957373106562830e-05
1.700050025012506239e+03 1.225564677811931485e-05
1.700950475237618775e+03 1.218242292162196788e-05
1.701850925462731311e+03 1.210989259882477750e-05
1.702751375687843847e+03 1.203804642352789987e-05
1.703651825912956383e+03 1.196687518181420132e-05
1.704552276138068919e+03 1.189636982791368265e-05
1.705452726363181455e+03 1.182652148019299833e-05
1.706353176588293991e+03 1.175732141726651653e-05
1.707253626813406527e+03 1.168876107422266531e-05
1.708154077038519290e+03 1.162083203896331378e-05
1.709054527263631826e+03 1.155352604865111258e-05
1.709954977488744362e+03 1.148683498626042826e-05
1.710855427713856898e+03 1.142075087722950822e-05
1.711755877938969434e+03 1.135526588620863826e-05
1.712656328164081970e+03 1.129037231390297627e-05
1.713556778389194506e+03 1.122606259400414836e-05
1.714457228614307041e+03 1.116232929020979566e-05
1.715357678839419577e+03 1.109916509332710451e-05
1.716258129064532113e+03 1.103656281845716056e-05
1.717158579289644649e+03 1.097451540225764655e-05
1.718059029514757185e+03 1.091301590028158174e-05
1.718959479739869948e+03 1.085205748438921945e-05
1.719859929964982484e+03 1.079163344023001297e-05
1.720760380190095020e+03 1.073173716479383146e-05
1.721660830415207556e+03 1.067236216402756844e-05
1.722561280640320092e+03 1.061350205051602320e-05
1.723461730865432628e+03 1.055515054122469690e-05
1.724362181090545164e+03 1.049730145530207921e-05
1.725262631315657700e+03 1.043994871193987874e-05
1.726163081540770236e+03 1.038308632829000133e-05
1.727063531765882772e+03 1.032670841743453901e-05
1.727963981990995308e+03 1.027080918640941005e-05
1.728864432216108071e+03 1.021538293427825857e-05
1.729764882441220607e+03 1.016042405025619523e-05
1.730665332666333143e+03 1.010592701188043646e-05
1.731565782891445679e+03 1.005188638322805229e-05
1.732466233116558215e+03 9.998296813178340916e-06
1.733366683341670750e+03 9.945153033718484974e-06
1.734267133566783286e+03 9.892449858291452766e-06
1.735167583791895822e+03 9.840182180185144865e-06
1.736068034017008358e+03 9.788344970960592348e-06
1.736968484242120894e+03 9.736933278919348932e-06
1.737868934467233430e+03 9.685942227607283509e-06
1.738769384692346193e+03 9.635367014355787814e-06
1.739669834917458729e+03 9.585202908857222862e-06
1.740570285142571265e+03 9.535445251774798972e-06
1.741470735367683801e+03 9.486089453385920358e-06
1.742371185592796337e+03 9.437130992256942798e-06
1.743271635817908873e+03 9.388565413950203246e-06
1.744172086043021409e+03 9.340388329760870091e-06
1.745072536268133945e+03 9.292595415483060104e-06
1.745972986493246481e+03 9.245182410205152597e-06
1.746873436718359017e+03 9.198145115132965897e-06
1.747773886943471553e+03 9.151479392439244352e-06
1.748674337168584316e+03 9.105181164140843311e-06
1.749574787393696852e+03 9.059246411000073187e-06
1.750475237618809388e+03 9.013671171452194804e-06
1.751375687843921924e+03 8.968451540556028587e-06
1.752276138069034459e+03 8.923583668969012510e-06
1.753176588294146995e+03 8.879063761944945275e-06
1.754077038519259531e+03 8.834888078353549069e-06
1.754977488744372067e+03 8.791052929722373651e-06
1.755877938969484603e+03 8.747554679299698397e-06
1.756778389194597139e+03 8.704389741137410759e-06
1.757678839419709675e+03 8.661554579195009736e-06
1.758579289644822438e+03 8.619045706461720595e-06
1.759479739869934974e+03 8.576859684099182336e-06
1.760380190095047510e+03 8.534993120600923341e-06
1.761280640320160046e+03 8.493442670971293378e-06
1.762181090545272582e+03 8.452205035921116032e-06
1.763081540770385118e+03 8.411276961080825588e-06
1.763981990995497654e+03 8.370655236229716179e-06
1.764882441220610190e+03 8.330336694542180720e-06
1.765782891445722726e+03 8.290318211849274354e-06
1.766683341670835262e+03 8.250596705915754902e-06
1.767583791895947797e+03 8.211169135732230971e-06
1.768484242121060333e+03 8.172032500822055227e-06
1.769384692346173097e+03 8.133183840562341091e-06
1.770285142571285633e+03 8.094620233518972418e-06
1.771185592796398169e+03 8.056338796795141984e-06
1.772086043021510704e+03 8.018336685393488247e-06
1.772986493246623240e+03 7.980611091590686875e-06
1.773886943471735776e+03 7.943159244325027289e-06
1.774787393696848312e+03 7.905978408596054345e-06
1.775687843921960848e+03 7.869065884876497079e-06
1.776588294147073384e+03 7.832419008535745892e-06
1.777488744372185920e+03 7.796035149274771459e-06
1.778389194597298456e+03 7.759911710572254973e-06
1.779289644822411219e+03 7.724046129141755215e-06
1.780190095047523755e+03 7.688435874399434750e-06
1.781090545272636291e+03 7.653078447942058928e-06
1.781990995497748827e+03 7.617971383035460832e-06
1.782891445722861363e+03 7.583112244112587010e-06
1.783791895947973899e+03 7.548498626281460275e-06
1.784692346173086435e+03 7.514128154842802904e-06
1.785592796398198971e+03 7.479998484816287733e-06
1.786493246623311506e+03 7.446107300476540276e-06
1.787393696848424042e+03 7.412452314897477354e-06
1.788294147073536578e+03 7.379031269505527711e-06
1.789194597298649342e+03 7.345841933641290765e-06
1.790095047523761878e+03 7.312882104129226089e-06
1.790995497748874413e+03 7.280149604855775093e-06
1.791895947973986949e+03 7.247642286354917122e-06
1.792796398199099485e+03 7.215358025401866392e-06
1.793696848424212021e+03 7.183294724614004264e-06
1.794597298649324557e+03 7.151450312059289994e-06
1.795497748874437093e+03 7.119822740871966961e-06
1.796398199099549629e+03 7.088409988875077354e-06
1.797298649324662165e+03 7.057210058210225763e-06
1.798199099549774701e+03 7.026220974973656557e-06
1.799099549774887464e+03 6.995440788859361636e-06
1.800000000000000000e+03 6.964867572808287659e-06
