0.000000000000000000e+00 1.048396233723427814e-03
9.004502251125562351e-01 1.559853765737034912e-03
1.800900450225112470e+00 2.417383519942740717e-03
2.701350675337668594e+00 3.677683861259029973e-03
3.601800900450224940e+00 4.674244310763303253e-03
4.502251125562780842e+00 4.238440606737187838e-03
5.402701350675337189e+00 2.943371190229211037e-03
6.303151575787893535e+00 1.891199418569043233e-03
7.203601800900449881e+00 1.244866860971741889e-03
8.104052026013006227e+00 8.600257835684862930e-04
9.004502251125561685e+00 6.223987459790643545e-04
9.904952476238118919e+00 4.684606501203206663e-04
1.080540270135067438e+01 3.641531208338088686e-04
1.170585292646323161e+01 2.906705320939670660e-04
1.260630315157578707e+01 2.371727119857762022e-04
1.350675337668834430e+01 1.971358039850464820e-04
1.440720360180089976e+01 1.664759788231961828e-04
1.530765382691345522e+01 1.425494646737265057e-04
1.620810405202601245e+01 1.236477010689835234e-04
1.710855427713856969e+01 1.086661841121130533e-04
1.800900450225112337e+01 9.684495949443115595e-05
1.890945472736368060e+01 8.724950031489429533e-05
1.980990495247623784e+01 7.834395584218868886e-05
2.071035517758879507e+01 6.983476666320871651e-05
2.161080540270134875e+01 6.243849687613409671e-05
2.251125562781390599e+01 5.624380045778239710e-05
2.341170585292646322e+01 5.104120762948486176e-05
2.431215607803901690e+01 4.660794627550510693e-05
2.521260630315157414e+01 4.277695035839222735e-05
2.611305652826413137e+01 3.943070942588103019e-05
2.701350675337668861e+01 3.648955816777177066e-05
2.791395697848924229e+01 3.389583355055191894e-05
2.881440720360179952e+01 3.160699515799613791e-05
2.971485742871435676e+01 2.959586604413856772e-05
3.061530765382691044e+01 2.784188019651100390e-05
3.151575787893946767e+01 2.628950659500131198e-05
3.241620810405202491e+01 2.483390689706920881e-05
3.331665832916458214e+01 2.340382901411718687e-05
3.421710855427713938e+01 2.202482842149472748e-05
3.511755877938969661e+01 2.079887269627346468e-05
3.601800900450224674e+01 1.976856807471703535e-05
3.691845922961480397e+01 1.891497871822665696e-05
3.781890945472736121e+01 1.809899031322778978e-05
3.871935967983991844e+01 1.714219452388424702e-05
3.961980990495247568e+01 1.616548321113236736e-05
4.052026013006503291e+01 1.530034173494110512e-05
4.142071035517759015e+01 1.454517303359538369e-05
4.232116058029014027e+01 1.387313892586545153e-05
4.322161080540269751e+01 1.326549811456727239e-05
4.412206103051525474e+01 1.271134326046426508e-05
4.502251125562781198e+01 1.220481877931123978e-05
4.592296148074036921e+01 1.174392851214164042e-05
4.682341170585292645e+01 1.133098967228381134e-05
4.772386193096548368e+01 1.097388182568723733e-05
4.862431215607803381e+01 1.068069131028464299e-05
4.952476238119059104e+01 1.041748545726160938e-05
5.042521260630314828e+01 1.007788801779071854e-05
5.132566283141570551e+01 9.678524688578124066e-06
5.222611305652826275e+01 9.329994513403786887e-06
5.312656328164081998e+01 9.062697270529101789e-06
5.402701350675337721e+01 8.844086877718313895e-06
5.492746373186592734e+01 8.593930670780631999e-06
5.582791395697848458e+01 8.307389988530417080e-06
5.672836418209104181e+01 8.026899176673274878e-06
5.762881440720359905e+01 7.754918500467472241e-06
5.852926463231615628e+01 7.515880242565261101e-06
5.942971485742871351e+01 7.328617645463591265e-06
6.033016508254127075e+01 7.201766983925179785e-06
6.123061530765382088e+01 7.152164452838699107e-06
6.213106553276637811e+01 7.191416288128821097e-06
6.303151575787893535e+01 7.242790019070262054e-06
6.393196598299149258e+01 7.148801364079696835e-06
6.483241620810404982e+01 6.976120267184005987e-06
6.573286643321659994e+01 6.833455121947934082e-06
6.663331665832916428e+01 6.723882486113860186e-06
6.753376688344171441e+01 6.653477207980152564e-06
6.843421710855427875e+01 6.460566685799378648e-06
6.933466733366682888e+01 6.116693434385167828e-06
7.023511755877939322e+01 5.781868715782946205e-06
7.113556778389194335e+01 5.539872055022151663e-06
7.203601800900449348e+01 5.388108322879983838e-06
7.293646823411705782e+01 5.317831555044867702e-06
7.383691845922960795e+01 5.330546276761102072e-06
7.473736868434217229e+01 5.376943135774060650e-06
7.563781890945472242e+01 5.286449829926730411e-06
7.653826913456728676e+01 5.047925916339689832e-06
7.743871935967983688e+01 4.832580840561977630e-06
7.833916958479238701e+01 4.695170107272269046e-06
7.923961980990495135e+01 4.631200041476597760e-06
8.014007003501750148e+01 4.644663403982883576e-06
8.104052026013006582e+01 4.743881439489346734e-06
8.194097048524261595e+01 4.865240608634840550e-06
8.284142071035518029e+01 4.843792045287400765e-06
8.374187093546773042e+01 4.675444411022244365e-06
8.464232116058028055e+01 4.510700174070928700e-06
8.554277138569284489e+01 4.424748839601714408e-06
8.644322161080539502e+01 4.329599102456317337e-06
8.734367183591795936e+01 4.151151391886336674e-06
8.824412206103050949e+01 3.966928993735929025e-06
8.914457228614307382e+01 3.835055924360142867e-06
9.004502251125562395e+01 3.757540515646156679e-06
9.094547273636817408e+01 3.729832608320501146e-06
9.184592296148073842e+01 3.758120131814397969e-06
9.274637318659328855e+01 3.842679533558281794e-06
9.364682341170585289e+01 3.906165548494980578e-06
9.454727363681840302e+01 3.832429075035002419e-06
9.544772386193096736e+01 3.702339487095324972e-06
9.634817408704351749e+01 3.637784031518481062e-06
9.724862431215606762e+01 3.670571952993858868e-06
9.814907453726863196e+01 3.779071444978136410e-06
9.904952476238118209e+01 3.872486893269964198e-06
9.994997498749374643e+01 3.855576528626247421e-06
1.008504252126062966e+02 3.710571447945068508e-06
1.017508754377188609e+02 3.559511451667823756e-06
1.026513256628314110e+02 3.509354614770356689e-06
1.035517758879439612e+02 3.556372071661475521e-06
1.044522261130565255e+02 3.579949908222555798e-06
1.053526763381690756e+02 3.472906549169169595e-06
1.062531265632816400e+02 3.340791000481104358e-06
1.071535767883941901e+02 3.284049625557774735e-06
1.080540270135067544e+02 3.283520098825668071e-06
1.089544772386193046e+02 3.278804359643847202e-06
1.098549274637318547e+02 3.297812444000211162e-06
1.107553776888444190e+02 3.407252585755913193e-06
1.116558279139569692e+02 3.586467295674571045e-06
1.125562781390695335e+02 3.718083392208104482e-06
1.134567283641820836e+02 3.756328270773743625e-06
1.143571785892946480e+02 3.761371269341324170e-06
1.152576288144071981e+02 3.705252273567410327e-06
1.161580790395197482e+02 3.615195634242114803e-06
1.170585292646323126e+02 3.602469420759092138e-06
1.179589794897448627e+02 3.613976619996972639e-06
1.188594297148574270e+02 3.484867034087990137e-06
1.197598799399699772e+02 3.263492505348668821e-06
1.206603301650825415e+02 3.121498837597603353e-06
1.215607803901950916e+02 3.109433871985299195e-06
1.224612306153076418e+02 3.174546806639496762e-06
1.233616808404202061e+02 3.225456892859746257e-06
1.242621310655327562e+02 3.268930001474161461e-06
1.251625812906453206e+02 3.282852068230873787e-06
1.260630315157578707e+02 3.176642526493359105e-06
1.269634817408704350e+02 3.014971682629642277e-06
1.278639319659829852e+02 2.937012954329234277e-06
1.287643821910955353e+02 2.985600044715459085e-06
1.296648324162080996e+02 3.158541085871200257e-06
1.305652826413206640e+02 3.401815826316718963e-06
1.314657328664331999e+02 3.634058317740313526e-06
1.323661830915457642e+02 3.777887498337751885e-06
1.332666333166583286e+02 3.748474870804293238e-06
1.341670835417708929e+02 3.663783738895608655e-06
1.350675337668834288e+02 3.627656994252083008e-06
1.359679839919959932e+02 3.500314145009518674e-06
1.368684342171085575e+02 3.267133023543566521e-06
1.377688844422210934e+02 3.041277313153979764e-06
1.386693346673336578e+02 2.918188231843749473e-06
1.395697848924462221e+02 2.932301093104716473e-06
1.404702351175587864e+02 3.025297573766921897e-06
1.413706853426713224e+02 3.069315514489881231e-06
1.422711355677838867e+02 3.020988319460656795e-06
1.431715857928964510e+02 2.945249906381063780e-06
1.440720360180089870e+02 2.864391673728327019e-06
1.449724862431215513e+02 2.807344243449958172e-06
1.458729364682341156e+02 2.841543454497545990e-06
1.467733866933466800e+02 2.997540677272177686e-06
1.476738369184592159e+02 3.236207649239985756e-06
1.485742871435717802e+02 3.478541906471992167e-06
1.494747373686843446e+02 3.566392231863828917e-06
1.503751875937968805e+02 3.445187247416197335e-06
1.512756378189094448e+02 3.208983344364200278e-06
1.521760880440220092e+02 3.023296901765598361e-06
1.530765382691345735e+02 2.966974395445218417e-06
1.539769884942471094e+02 2.978171079927117307e-06
1.548774387193596738e+02 3.043145747154590461e-06
1.557778889444722381e+02 3.180274971194815264e-06
1.566783391695847740e+02 3.281764698350670497e-06
1.575787893946973384e+02 3.353187593352511953e-06
1.584792396198099027e+02 3.423066127265790831e-06
1.593796898449224670e+02 3.347057610870105987e-06
1.602801400700350030e+02 3.184637606692167173e-06
1.611805902951475673e+02 3.085242776521820863e-06
1.620810405202601316e+02 3.103258682979136463e-06
1.629814907453726676e+02 3.246150602780986507e-06
1.638819409704852319e+02 3.433319062991655909e-06
1.647823911955977962e+02 3.596398435574460634e-06
1.656828414207103606e+02 3.725771893731622989e-06
1.665832916458228965e+02 3.806801801551151411e-06
1.674837418709354608e+02 3.821516370264204450e-06
1.683841920960480252e+02 3.709109229836654789e-06
1.692846423211605611e+02 3.505160194174037045e-06
1.701850925462731254e+02 3.431889139009644537e-06
1.710855427713856898e+02 3.489948800831891626e-06
1.719859929964982541e+02 3.507184396473724141e-06
1.728864432216107900e+02 3.473320637702890026e-06
1.737868934467233544e+02 3.468333928938405928e-06
1.746873436718359187e+02 3.568537816960689280e-06
1.755877938969484546e+02 3.777177097262911671e-06
1.764882441220610190e+02 3.919494290865288788e-06
1.773886943471735833e+02 3.791980193117191148e-06
1.782891445722861476e+02 3.540700557927680698e-06
1.791895947973986836e+02 3.436579675091601019e-06
1.800900450225112479e+02 3.538613331444805442e-06
1.809904952476238122e+02 3.832605779569976358e-06
1.818909454727363482e+02 4.141845718025700593e-06
1.827913956978489125e+02 4.233865683535145626e-06
1.836918459229614768e+02 4.161495591484657517e-06
1.845922961480740412e+02 4.068390054347545672e-06
1.854927463731865771e+02 3.983543237711312955e-06
1.863931965982991414e+02 3.818787254126253970e-06
1.872936468234117058e+02 3.678650194475999897e-06
1.881940970485242417e+02 3.618964028602024804e-06
1.890945472736368060e+02 3.589174102930152027e-06
1.899949974987493704e+02 3.554304334517110493e-06
1.908954477238619347e+02 3.602393777738979703e-06
1.917958979489744706e+02 3.835539897650997491e-06
1.926963481740870350e+02 4.162256791676837355e-06
1.935967983991995993e+02 4.415125081028245280e-06
1.944972486243121352e+02 4.448745410847477264e-06
1.953976988494246996e+02 4.279739978921176116e-06
1.962981490745372639e+02 4.082846718873699623e-06
1.971985992996498283e+02 3.964850780956913986e-06
1.980990495247623642e+02 3.978271070372118486e-06
1.989994997498749285e+02 4.105278851363555798e-06
1.998999499749874929e+02 4.239046014636525603e-06
2.008004002001000288e+02 4.320478295467339532e-06
2.017008504252125931e+02 4.360629553166443845e-06
2.026013006503251574e+02 4.396712879175696235e-06
2.035017508754377218e+02 4.305494122979463338e-06
2.044022011005502577e+02 4.090624298114909447e-06
2.053026513256628220e+02 3.983996150000106836e-06
2.062031015507753864e+02 3.990954119083929635e-06
2.071035517758879223e+02 3.977471628935847346e-06
2.080040020010004866e+02 3.923452192320847618e-06
2.089044522261130510e+02 3.842488999306273204e-06
2.098049024512256153e+02 3.781877173745374855e-06
2.107053526763381512e+02 3.905809823559531859e-06
2.116058029014507156e+02 4.225726322661576381e-06
2.125062531265632799e+02 4.491143021898034674e-06
2.134067033516758158e+02 4.523598194112996095e-06
2.143071535767883802e+02 4.554430806665138669e-06
2.152076038019009445e+02 4.788271102214790570e-06
2.161080540270135089e+02 5.047719517855253759e-06
2.170085042521260448e+02 5.062745539295666967e-06
2.179089544772386091e+02 4.834697319736904023e-06
2.188094047023511735e+02 4.486227907726326559e-06
2.197098549274637094e+02 4.171508496335090581e-06
2.206103051525762737e+02 3.933960055567029680e-06
2.215107553776888381e+02 3.756552679842020771e-06
2.224112056028014024e+02 3.663506951269666138e-06
2.233116558279139383e+02 3.714635022305912901e-06
2.242121060530265027e+02 3.855616759718241906e-06
2.251125562781390670e+02 3.939050654340768178e-06
2.260130065032516029e+02 3.956857853319575867e-06
2.269134567283641672e+02 4.106455275578881009e-06
2.278139069534767316e+02 4.505093270465573155e-06
2.287143571785892959e+02 4.931934129719512754e-06
2.296148074037018318e+02 5.181088545172752889e-06
2.305152576288143962e+02 5.353383101797662642e-06
2.314157078539269605e+02 5.696654907866849315e-06
2.323161580790394964e+02 6.167998993771362533e-06
2.332166083041520608e+02 6.393803863485398818e-06
2.341170585292646251e+02 6.222937621171243118e-06
2.350175087543771895e+02 5.791706767563461190e-06
2.359179589794897254e+02 5.283672469676417529e-06
2.368184092046022897e+02 4.881993843324460014e-06
2.377188594297148541e+02 4.588976690905885179e-06
2.386193096548273900e+02 4.316177380694605946e-06
2.395197598799399543e+02 4.135052982038610651e-06
2.404202101050525187e+02 4.077719558583966483e-06
2.413206603301650830e+02 4.016845094510791060e-06
2.422211105552776189e+02 3.953855142668848207e-06
2.431215607803901833e+02 3.994326999121445281e-06
2.440220110055027476e+02 4.057523828516054977e-06
2.449224612306152835e+02 4.044075854773982954e-06
2.458229114557278479e+02 4.060141999278828725e-06
2.467233616808404122e+02 4.184800756604645080e-06
2.476238119059529765e+02 4.353710035273081312e-06
2.485242621310655124e+02 4.495236130798934341e-06
2.494247123561780768e+02 4.587668974994546735e-06
2.503251625812906411e+02 4.573841003234678867e-06
2.512256128064031770e+02 4.495816545228930553e-06
2.521260630315157414e+02 4.403626353890766798e-06
2.530265132566283057e+02 4.282078462482315865e-06
2.539269634817408701e+02 4.176629034891098177e-06
2.548274137068534060e+02 4.102841251104775172e-06
2.557278639319659703e+02 4.048707814319048148e-06
2.566283141570785347e+02 4.060065372421828819e-06
2.575287643821910706e+02 4.108482104344059717e-06
2.584292146073036633e+02 4.036332201676104269e-06
2.593296648324161993e+02 3.936235511231230958e-06
2.602301150575287352e+02 4.020494574345513944e-06
2.611305652826413279e+02 4.337974081123847347e-06
2.620310155077538639e+02 4.835514390177367444e-06
2.629314657328663998e+02 5.320669392180707361e-06
2.638319159579789925e+02 5.611422276377110173e-06
2.647323661830915285e+02 5.777973521370152098e-06
2.656328164082040644e+02 5.849700114780219273e-06
2.665332666333166571e+02 5.814215721785332443e-06
2.674337168584291931e+02 5.727968962929002766e-06
2.683341670835417858e+02 5.532032635159542515e-06
2.692346173086543217e+02 5.210356189000933765e-06
2.701350675337668577e+02 4.866159621164603967e-06
2.710355177588794504e+02 4.594253914310372041e-06
2.719359679839919863e+02 4.423437307101817372e-06
2.728364182091045222e+02 4.318780275497950098e-06
2.737368684342171150e+02 4.245911910711303204e-06
2.746373186593296509e+02 4.176599531180911047e-06
2.755377688844421868e+02 4.192201496684449835e-06
2.764382191095547796e+02 4.426178204242288053e-06
2.773386693346673155e+02 4.869161248086923302e-06
2.782391195597798514e+02 5.280663631602503854e-06
2.791395697848924442e+02 5.551472032460340700e-06
2.800400200100049801e+02 5.732133712046501298e-06
2.809404702351175729e+02 5.860694780782499810e-06
2.818409204602301088e+02 5.921216895142173777e-06
2.827413706853426447e+02 6.022181526288723701e-06
2.836418209104552375e+02 6.209428476316061623e-06
2.845422711355677734e+02 6.375146503027941904e-06
2.854427213606803093e+02 6.424664860430981044e-06
2.863431715857929021e+02 6.478832701720119093e-06
2.872436218109054380e+02 6.613876591311867159e-06
2.881440720360179739e+02 6.679706284105980871e-06
2.890445222611305667e+02 6.595384136897259926e-06
2.899449724862431026e+02 6.439384803665485576e-06
2.908454227113556385e+02 6.234608486542013909e-06
2.917458729364682313e+02 6.132580187811713973e-06
2.926463231615807672e+02 6.298646499715335778e-06
2.935467733866933600e+02 6.513595582498447603e-06
2.944472236118058959e+02 6.504066077000062459e-06
2.953476738369184318e+02 6.492582599628625904e-06
2.962481240620310246e+02 6.690559546838410521e-06
2.971485742871435605e+02 6.987220072231774219e-06
2.980490245122560964e+02 7.197759369523813890e-06
2.989494747373686891e+02 7.354728300224527923e-06
2.998499249624812251e+02 7.465810589344518720e-06
3.007503751875937610e+02 7.447507480755753586e-06
3.016508254127063537e+02 7.396582977748785617e-06
3.025512756378188897e+02 7.291470394498187036e-06
3.034517258629314256e+02 7.019904935653369156e-06
3.043521760880440183e+02 6.715686660465479570e-06
3.052526263131565543e+02 6.572195054890182923e-06
3.061530765382691470e+02 6.663206323075890092e-06
3.070535267633816829e+02 6.917694341052951812e-06
3.079539769884942189e+02 7.278684675369121576e-06
3.088544272136068116e+02 7.758543524722980142e-06
3.097548774387193475e+02 8.292136665868805190e-06
3.106553276638318835e+02 8.787423181279730989e-06
3.115557778889444762e+02 9.019623326727367650e-06
3.124562281140570121e+02 8.874297898169767102e-06
3.133566783391695481e+02 8.544379601397016094e-06
3.142571285642821408e+02 8.298433004818345536e-06
3.151575787893946767e+02 8.281204910203385987e-06
3.160580290145072127e+02 8.332210045310133856e-06
3.169584792396198054e+02 8.367400246119531564e-06
3.178589294647323413e+02 8.381332549167463421e-06
3.187593796898449341e+02 8.345871802433094716e-06
3.196598299149574700e+02 8.409491594480197711e-06
3.205602801400700059e+02 8.646137259206169360e-06
3.214607303651825987e+02 8.964022925592780871e-06
3.223611805902951346e+02 9.186699678003062405e-06
3.232616308154076705e+02 9.293339118493898398e-06
3.241620810405202633e+02 9.446249366987399020e-06
3.250625312656327992e+02 9.731877782135130584e-06
3.259629814907453351e+02 1.020891752589907353e-05
3.268634317158579279e+02 1.083247550335410278e-05
3.277638819409704638e+02 1.132277131319306999e-05
3.286643321660829997e+02 1.155859181845806730e-05
3.295647823911955925e+02 1.163423341798763694e-05
3.304652326163081284e+02 1.154469795101086453e-05
3.313656828414207212e+02 1.134037309558937082e-05
3.322661330665332571e+02 1.111944192056802731e-05
3.331665832916457930e+02 1.095412676777371979e-05
3.340670335167583858e+02 1.098311964463506172e-05
3.349674837418709217e+02 1.108986198964527942e-05
3.358679339669834576e+02 1.112067275401512647e-05
3.367683841920960504e+02 1.113764644236179531e-05
3.376688344172085863e+02 1.120159581045498404e-05
3.385692846423211222e+02 1.148955407172827979e-05
3.394697348674337150e+02 1.190897318935671593e-05
3.403701850925462509e+02 1.204434760811850493e-05
3.412706353176587868e+02 1.200780678642831268e-05
3.421710855427713796e+02 1.202936827425369090e-05
3.430715357678839155e+02 1.202368555692372446e-05
3.439719859929965082e+02 1.227642782600044367e-05
3.448724362181090441e+02 1.278125363397109169e-05
3.457728864432215801e+02 1.324791998617846742e-05
3.466733366683341728e+02 1.336131211810431931e-05
3.475737868934467087e+02 1.292896064761106935e-05
3.484742371185592447e+02 1.215232972882675153e-05
3.493746873436718374e+02 1.140720199624827453e-05
3.502751375687843733e+02 1.094853544293126095e-05
3.511755877938969093e+02 1.080747902942086984e-05
3.520760380190095020e+02 1.071220712308001943e-05
3.529764882441220379e+02 1.040376758113131748e-05
3.538769384692345739e+02 1.001006870628690517e-05
3.547773886943471666e+02 9.727171623417282199e-06
3.556778389194597025e+02 9.708265422314678677e-06
3.565782891445722953e+02 9.940613946858800498e-06
3.574787393696848312e+02 1.026940065407486281e-05
3.583791895947973671e+02 1.065194617760419256e-05
3.592796398199099599e+02 1.096818762828009081e-05
3.601800900450224958e+02 1.100281661683700668e-05
3.610805402701350317e+02 1.074691082572620895e-05
3.619809904952476245e+02 1.038178141692437107e-05
3.628814407203601604e+02 9.926030461633039161e-06
3.637818909454726963e+02 9.548008629955710412e-06
3.646823411705852891e+02 9.508972099416829616e-06
3.655827913956978250e+02 9.701449108613742955e-06
3.664832416208103609e+02 9.790696106216559410e-06
3.673836918459229537e+02 9.644259675523501595e-06
3.682841420710354896e+02 9.468697980416277256e-06
3.691845922961480824e+02 9.447067041154282732e-06
3.700850425212606183e+02 9.534800833152515606e-06
3.709854927463731542e+02 9.611641190768777408e-06
3.718859429714857470e+02 9.753190074876703932e-06
3.727863931965982829e+02 1.009945462835941110e-05
3.736868434217108188e+02 1.037902301119475808e-05
3.745872936468234116e+02 1.032028239192468159e-05
3.754877438719359475e+02 1.008041118020396170e-05
3.763881940970484834e+02 9.807666298621626111e-06
3.772886443221610762e+02 9.496823245876725482e-06
3.781890945472736121e+02 9.160235631572168381e-06
3.790895447723861480e+02 8.948214882960566413e-06
3.799899949974987408e+02 8.868421174507227491e-06
3.808904452226112767e+02 8.871421406529082432e-06
3.817908954477238694e+02 8.921846565937149737e-06
3.826913456728364054e+02 8.957905699768181648e-06
3.835917958979489413e+02 8.882175735242524192e-06
3.844922461230615340e+02 8.683864780565697433e-06
3.853926963481740700e+02 8.484839764347354969e-06
3.862931465732866059e+02 8.502862672097508373e-06
3.871935967983991986e+02 8.737881817001862860e-06
3.880940470235117346e+02 8.954192790670668049e-06
3.889944972486242705e+02 9.058523913457283859e-06
3.898949474737368632e+02 9.138826770707695159e-06
3.907953976988493991e+02 9.070445768473565549e-06
3.916958479239619351e+02 8.870544963436891730e-06
3.925962981490745278e+02 8.647564854339734536e-06
3.934967483741870637e+02 8.385966655020196342e-06
3.943971985992996565e+02 8.184450527092119017e-06
3.952976488244121924e+02 8.137169984955019649e-06
3.961980990495247283e+02 8.219058916392166353e-06
3.970985492746373211e+02 8.406012685609536584e-06
3.979989994997498570e+02 8.683471265109314906e-06
3.988994497248623929e+02 9.004904040950339843e-06
3.997998999499749857e+02 9.148933166629722420e-06
4.007003501750875216e+02 9.058438745649644415e-06
4.016008004002000575e+02 8.873725931569525043e-06
4.025012506253126503e+02 8.710880261568844642e-06
4.034017008504251862e+02 8.711787005173121193e-06
4.043021510755377221e+02 8.790326841767725035e-06
4.052026013006503149e+02 8.804243211892060018e-06
4.061030515257628508e+02 8.806106123870411623e-06
4.070035017508754436e+02 8.678150856421490170e-06
4.079039519759879795e+02 8.441376959732025501e-06
4.088044022011005154e+02 8.311168248545785844e-06
4.097048524262131082e+02 8.359800866948142800e-06
4.106053026513256441e+02 8.530344680113106600e-06
4.115057528764381800e+02 8.712728540212216703e-06
4.124062031015507728e+02 8.883752533501392730e-06
4.133066533266633087e+02 9.008417321004361854e-06
4.142071035517758446e+02 8.977563211356225513e-06
4.151075537768884374e+02 8.775961181107950140e-06
4.160080040020009733e+02 8.477714808842196905e-06
4.169084542271135092e+02 8.189940616218453276e-06
4.178089044522261020e+02 7.973227584977632152e-06
4.187093546773386379e+02 7.906082928400251343e-06
4.196098049024512306e+02 8.046256117402008081e-06
4.205102551275637666e+02 8.207846567981180567e-06
4.214107053526763025e+02 8.143877036728934735e-06
4.223111555777888952e+02 8.065110767049776596e-06
4.232116058029014312e+02 8.091050402566939264e-06
4.241120560280139671e+02 8.115185101051291961e-06
4.250125062531265598e+02 8.180375108231329332e-06
4.259129564782390958e+02 8.306247932646604627e-06
4.268134067033516317e+02 8.389926707839584483e-06
4.277138569284642244e+02 8.443524318901354063e-06
4.286143071535767604e+02 8.450177586558894161e-06
4.295147573786892963e+02 8.319271637680159453e-06
4.304152076038018890e+02 8.146202133704547648e-06
4.313156578289144250e+02 8.045570840494401050e-06
4.322161080540270177e+02 8.024932151173674234e-06
4.331165582791395536e+02 8.100482818262830006e-06
4.340170085042520896e+02 8.223230028588066572e-06
4.349174587293646823e+02 8.266526550196207909e-06
4.358179089544772182e+02 8.291747954047016099e-06
4.367183591795897541e+02 8.354985352903508724e-06
4.376188094047023469e+02 8.474002409434831399e-06
4.385192596298148828e+02 8.593213825367972093e-06
4.394197098549274187e+02 8.576561096538991294e-06
4.403201600800400115e+02 8.562530047440884053e-06
4.412206103051525474e+02 8.740523685808186162e-06
4.421210605302650833e+02 8.939028484780520400e-06
4.430215107553776761e+02 8.993457900370613884e-06
4.439219609804902120e+02 8.954172212324810202e-06
4.448224112056028048e+02 8.875306811134546739e-06
4.457228614307153407e+02 8.737154192452295081e-06
4.466233116558278766e+02 8.632578036999106379e-06
4.475237618809404694e+02 8.552408801933850127e-06
4.484242121060530053e+02 8.396838658371333377e-06
4.493246623311655412e+02 8.269935588978133463e-06
4.502251125562781340e+02 8.314553320205558858e-06
4.511255627813906699e+02 8.425992844873958609e-06
4.520260130065032058e+02 8.480716188205569632e-06
4.529264632316157986e+02 8.551661113132481539e-06
4.538269134567283345e+02 8.732899082211848570e-06
4.547273636818408704e+02 8.881299131565156810e-06
4.556278139069534632e+02 8.850041624654027362e-06
4.565282641320659991e+02 8.764717748636130770e-06
4.574287143571785919e+02 8.877224546582377713e-06
4.583291645822911278e+02 9.125225952333317219e-06
4.592296148074036637e+02 9.237928094161205350e-06
4.601300650325162565e+02 9.166815545707328425e-06
4.610305152576287924e+02 9.124589361377678128e-06
4.619309654827413283e+02 9.212323080061472308e-06
4.628314157078539210e+02 9.262588503907159961e-06
4.637318659329664570e+02 9.237458917419783615e-06
4.646323161580789929e+02 9.295294214539482215e-06
4.655327663831915856e+02 9.328617145687038346e-06
4.664332166083041216e+02 9.253743242605288015e-06
4.673336668334167143e+02 9.141302210023764582e-06
4.682341170585292502e+02 8.997484140899779701e-06
4.691345672836417862e+02 8.812290129256981726e-06
4.700350175087543789e+02 8.717547366143438305e-06
4.709354677338669148e+02 8.783757296327460997e-06
4.718359179589794508e+02 8.953771536800153715e-06
4.727363681840920435e+02 9.150916159506899863e-06
4.736368184092045794e+02 9.205833505461267789e-06
4.745372686343171154e+02 9.134482778674028538e-06
4.754377188594297081e+02 9.103109016533504359e-06
4.763381690845422440e+02 9.092110651419855959e-06
4.772386193096547800e+02 8.968043031143507998e-06
4.781390695347673727e+02 8.840849404994067894e-06
4.790395197598799086e+02 8.960452577953977038e-06
4.799399699849925014e+02 9.316822382761055267e-06
4.808404202101050373e+02 9.710459824440773483e-06
4.817408704352175732e+02 9.987158889955335549e-06
4.826413206603301660e+02 1.017743923119708579e-05
4.835417708854427019e+02 1.032259556262450792e-05
4.844422211105552378e+02 1.033191931378350483e-05
4.853426713356678306e+02 1.023482016929536085e-05
4.862431215607803665e+02 1.009404150873065195e-05
4.871435717858929024e+02 9.974185697170144608e-06
4.880440220110054952e+02 9.938443878850525826e-06
4.889444722361180311e+02 9.869166560345685288e-06
4.898449224612305670e+02 9.759299787598387340e-06
4.907453726863431598e+02 9.751927178661812975e-06
4.916458229114556957e+02 9.798594036638333822e-06
4.925462731365682885e+02 9.900161204874288745e-06
4.934467233616808244e+02 1.005889170595547289e-05
4.943471735867933603e+02 1.026188207596593800e-05
4.952476238119059531e+02 1.041107009647687710e-05
4.961480740370184890e+02 1.037590373756927004e-05
4.970485242621310249e+02 1.022958858231888985e-05
4.979489744872436177e+02 1.016721075499354475e-05
4.988494247123561536e+02 1.020786055740392385e-05
4.997498749374686895e+02 1.030224073936463486e-05
5.006503251625812823e+02 1.044379709152171342e-05
5.015507753876938182e+02 1.054477916300434712e-05
5.024512256128063541e+02 1.060827627944065594e-05
5.033516758379189469e+02 1.064208320443523156e-05
5.042521260630314828e+02 1.064835402959897721e-05
5.051525762881440755e+02 1.063343850224101118e-05
5.060530265132566115e+02 1.065763612652756368e-05
5.069534767383691474e+02 1.068456150220748374e-05
5.078539269634817401e+02 1.067075856521073154e-05
5.087543771885942760e+02 1.060036222901504783e-05
5.096548274137068120e+02 1.058985279218217211e-05
5.105552776388194047e+02 1.081417765981589189e-05
5.114557278639319406e+02 1.114678714939953318e-05
5.123561780890445334e+02 1.135622531627502793e-05
5.132566283141570693e+02 1.148011100915563554e-05
5.141570785392696052e+02 1.163152807832834548e-05
5.150575287643821412e+02 1.189519777606763011e-05
5.159579789894946771e+02 1.229389874250612763e-05
5.168584292146073267e+02 1.262404903451549531e-05
5.177588794397198626e+02 1.266697457556514018e-05
5.186593296648323985e+02 1.263047189230929210e-05
5.195597798899449344e+02 1.270010085499310938e-05
5.204602301150574704e+02 1.280054629014295341e-05
5.213606803401700063e+02 1.295180957928126697e-05
5.222611305652826559e+02 1.307209207926766529e-05
5.231615807903951918e+02 1.312713769071257938e-05
5.240620310155077277e+02 1.313046181990919796e-05
5.249624812406202636e+02 1.319500293455105648e-05
5.258629314657327996e+02 1.339595415417140863e-05
5.267633816908454492e+02 1.370178841094052160e-05
5.276638319159579851e+02 1.388695556644033362e-05
5.285642821410705210e+02 1.390984087919176228e-05
5.294647323661830569e+02 1.391246018051918563e-05
5.303651825912955928e+02 1.410030296527246845e-05
5.312656328164081287e+02 1.451129215711050107e-05
5.321660830415207784e+02 1.482237178955205606e-05
5.330665332666333143e+02 1.498434093660298422e-05
5.339669834917458502e+02 1.520204950914195194e-05
5.348674337168583861e+02 1.527081982024393943e-05
5.357678839419709220e+02 1.518865533708042666e-05
5.366683341670835716e+02 1.526574967012379321e-05
5.375687843921961075e+02 1.544654584237858423e-05
5.384692346173086435e+02 1.557140749695498283e-05
5.393696848424211794e+02 1.576481836091757547e-05
5.402701350675337153e+02 1.608472319106452896e-05
5.411705852926462512e+02 1.639719524384707287e-05
5.420710355177589008e+02 1.664053104941775457e-05
5.429714857428714367e+02 1.676235949308276966e-05
5.438719359679839727e+02 1.671117518163164501e-05
5.447723861930965086e+02 1.649900828927482050e-05
5.456728364182090445e+02 1.633329262644747491e-05
5.465732866433215804e+02 1.626619218545767576e-05
5.474737368684342300e+02 1.612470677957337787e-05
5.483741870935467659e+02 1.604637211535114849e-05
5.492746373186593019e+02 1.619336691331247594e-05
5.501750875437718378e+02 1.643405139096492805e-05
5.510755377688843737e+02 1.662535504171475177e-05
5.519759879939970233e+02 1.681976231274903035e-05
5.528764382191095592e+02 1.694124682764610004e-05
5.537768884442220951e+02 1.691252626867510586e-05
5.546773386693346310e+02 1.696067470652051575e-05
5.555777888944471670e+02 1.709526130613761794e-05
5.564782391195597029e+02 1.723769774408234135e-05
5.573786893446723525e+02 1.729020968778038263e-05
5.582791395697848884e+02 1.713935027410460560e-05
5.591795897948974243e+02 1.705302827064198606e-05
5.600800400200099602e+02 1.717884306037994392e-05
5.609804902451224962e+02 1.719513277292299041e-05
5.618809404702351458e+02 1.695877961065686017e-05
5.627813906953476817e+02 1.664239845035905238e-05
5.636818409204602176e+02 1.640566127861222084e-05
5.645822911455727535e+02 1.636276867633016131e-05
5.654827413706852894e+02 1.647749985130485286e-05
5.663831915957978254e+02 1.653724644547565777e-05
5.672836418209104750e+02 1.645509854270471809e-05
5.681840920460230109e+02 1.636334682205424601e-05
5.690845422711355468e+02 1.632126353981104241e-05
5.699849924962480827e+02 1.630129224880890539e-05
5.708854427213606186e+02 1.619093121517472310e-05
5.717858929464731546e+02 1.589025680081473910e-05
5.726863431715858042e+02 1.554430702246968214e-05
5.735867933966983401e+02 1.527569196769803424e-05
5.744872436218108760e+02 1.511881521500703780e-05
5.753876938469234119e+02 1.497717670022262240e-05
5.762881440720359478e+02 1.493438078465170743e-05
5.771885942971485974e+02 1.499583202550002905e-05
5.780890445222611334e+02 1.506023003657151043e-05
5.789894947473736693e+02 1.507128726660226689e-05
5.798899449724862052e+02 1.499149147551164946e-05
5.807903951975987411e+02 1.495497468624922487e-05
5.816908454227112770e+02 1.501416629927051776e-05
5.825912956478239266e+02 1.484075097825183741e-05
5.834917458729364625e+02 1.438257826517612566e-05
5.843921960980489985e+02 1.400173280750507836e-05
5.852926463231615344e+02 1.382540455790332520e-05
5.861930965482740703e+02 1.373657312410486631e-05
5.870935467733867199e+02 1.373440902735675671e-05
5.879939969984992558e+02 1.374218731573451918e-05
5.888944472236117917e+02 1.364445504375637337e-05
5.897948974487243277e+02 1.337513741259421546e-05
5.906953476738368636e+02 1.313676897830843780e-05
5.915957978989493995e+02 1.317118562808021333e-05
5.924962481240620491e+02 1.330803754680287451e-05
5.933966983491745850e+02 1.338825873853477111e-05
5.942971485742871209e+02 1.348108302889984655e-05
5.951975987993996569e+02 1.358399998380753615e-05
5.960980490245121928e+02 1.364078646197644669e-05
5.969984992496247287e+02 1.366789052385050374e-05
5.978989494747373783e+02 1.364723953355602685e-05
5.987993996998499142e+02 1.350703775537844868e-05
5.996998499249624501e+02 1.325694412134611665e-05
6.006003001500749860e+02 1.303027375662494735e-05
6.015007503751875220e+02 1.287905173936264490e-05
6.024012006003001716e+02 1.286176100993510971e-05
6.033016508254127075e+02 1.296164649547980215e-05
6.042021010505252434e+02 1.307886285171040597e-05
6.051025512756377793e+02 1.311376001032548100e-05
6.060030015007503152e+02 1.298184891815762748e-05
6.069034517258628512e+02 1.279595644014427293e-05
6.078039019509755008e+02 1.265384733613331161e-05
6.087043521760880367e+02 1.260187865773205286e-05
6.096048024012005726e+02 1.253202869442086414e-05
6.105052526263131085e+02 1.226775490440815594e-05
6.114057028514256444e+02 1.192993086029936309e-05
6.123061530765382940e+02 1.168027690892476208e-05
6.132066033016508300e+02 1.157550193138172035e-05
6.141070535267633659e+02 1.158717018996426481e-05
6.150075037518759018e+02 1.160568534090842196e-05
6.159079539769884377e+02 1.164963575667372230e-05
6.168084042021009736e+02 1.180685017862598264e-05
6.177088544272136232e+02 1.208262136277159485e-05
6.186093046523261592e+02 1.230086336014752975e-05
6.195097548774386951e+02 1.219522729700430204e-05
6.204102051025512310e+02 1.180209354100799114e-05
6.213106553276637669e+02 1.137753219220660384e-05
6.222111055527763028e+02 1.107588603770943094e-05
6.231115557778889524e+02 1.092847787841438214e-05
6.240120060030014884e+02 1.108790688005931321e-05
6.249124562281140243e+02 1.155243213952466019e-05
6.258129064532265602e+02 1.210979227512189875e-05
6.267133566783390961e+02 1.257515209955023376e-05
6.276138069034517457e+02 1.278885204315356481e-05
6.285142571285642816e+02 1.271103899544029369e-05
6.294147073536768175e+02 1.251976292679310273e-05
6.303151575787893535e+02 1.232430571261752288e-05
6.312156078039018894e+02 1.230965892302862149e-05
6.321160580290144253e+02 1.242881336111349393e-05
6.330165082541270749e+02 1.247779323491960081e-05
6.339169584792396108e+02 1.232940469905842607e-05
6.348174087043521467e+02 1.190767524071502149e-05
6.357178589294646827e+02 1.152115739783998421e-05
6.366183091545772186e+02 1.142912639841772681e-05
6.375187593796898682e+02 1.145151810351661608e-05
6.384192096048024041e+02 1.144852811302043506e-05
6.393196598299149400e+02 1.145666599991339453e-05
6.402201100550274759e+02 1.150581375461797633e-05
6.411205602801400119e+02 1.145515182873629460e-05
6.420210105052525478e+02 1.134870479838506807e-05
6.429214607303651974e+02 1.141711575110213480e-05
6.438219109554777333e+02 1.167045753287191370e-05
6.447223611805902692e+02 1.190333555339115530e-05
6.456228114057028051e+02 1.192803140076783151e-05
6.465232616308153411e+02 1.181052275118324106e-05
6.474237118559278770e+02 1.175693687190359406e-05
6.483241620810405266e+02 1.177331018357664287e-05
6.492246123061530625e+02 1.181808464359224614e-05
6.501250625312655984e+02 1.190275763412495604e-05
6.510255127563781343e+02 1.193206303367997742e-05
6.519259629814906702e+02 1.191920991624165016e-05
6.528264132066033198e+02 1.184936284662172611e-05
6.537268634317158558e+02 1.166564257222545774e-05
6.546273136568283917e+02 1.150198347142792615e-05
6.555277638819409276e+02 1.150800897708899228e-05
6.564282141070534635e+02 1.163676929283481292e-05
6.573286643321659994e+02 1.170521068058157955e-05
6.582291145572786490e+02 1.153448851102898864e-05
6.591295647823911850e+02 1.124090726604444987e-05
6.600300150075037209e+02 1.106788723304175968e-05
6.609304652326162568e+02 1.107007302407219906e-05
6.618309154577287927e+02 1.120749644501395272e-05
6.627313656828414423e+02 1.134577855505868170e-05
6.636318159079539782e+02 1.127024110048859371e-05
6.645322661330665142e+02 1.096269383209208069e-05
6.654327163581790501e+02 1.056731694206142966e-05
6.663331665832915860e+02 1.026737725492943741e-05
6.672336168084041219e+02 1.009372255136923753e-05
6.681340670335167715e+02 1.001756253222916270e-05
6.690345172586293074e+02 1.007508128762901163e-05
6.699349674837418434e+02 1.024366669866761355e-05
6.708354177088543793e+02 1.049345109283046205e-05
6.717358679339669152e+02 1.081309316684828640e-05
6.726363181590794511e+02 1.110286000256442675e-05
6.735367683841921007e+02 1.111092835793993388e-05
6.744372186093046366e+02 1.088729927775589364e-05
6.753376688344171725e+02 1.070746249799006143e-05
6.762381190595297085e+02 1.062824175412808642e-05
6.771385692846422444e+02 1.060785982360289620e-05
6.780390195097548940e+02 1.061419371408904076e-05
6.789394697348674299e+02 1.064298912752285612e-05
6.798399199599799658e+02 1.069039743122659980e-05
6.807403701850925017e+02 1.079730224165576012e-05
6.816408204102050377e+02 1.093235606749627461e-05
6.825412706353175736e+02 1.096614344616528850e-05
6.834417208604302232e+02 1.089553560577719127e-05
6.843421710855427591e+02 1.082402842067528115e-05
6.852426213106552950e+02 1.071645952557018387e-05
6.861430715357678309e+02 1.065314839888237977e-05
6.870435217608803669e+02 1.074752345915785442e-05
6.879439719859930165e+02 1.092258351877698160e-05
6.888444222111055524e+02 1.109336545173020983e-05
6.897448724362180883e+02 1.118819904682298824e-05
6.906453226613306242e+02 1.113764803491274943e-05
6.915457728864431601e+02 1.106686637111121369e-05
6.924462231115556961e+02 1.109834899515483854e-05
6.933466733366683457e+02 1.109419895562217888e-05
6.942471235617808816e+02 1.088983442433791601e-05
6.951475737868934175e+02 1.064321861713232782e-05
6.960480240120059534e+02 1.057575604280058084e-05
6.969484742371184893e+02 1.074604408467241916e-05
6.978489244622311389e+02 1.101766822850412090e-05
6.987493746873436749e+02 1.120663528753839467e-05
6.996498249124562108e+02 1.122774242639511254e-05
7.005502751375687467e+02 1.113181148598963341e-05
7.014507253626812826e+02 1.101118484702037740e-05
7.023511755877938185e+02 1.099810707391747171e-05
7.032516258129064681e+02 1.107574101518346725e-05
7.041520760380190040e+02 1.117714192883229854e-05
7.050525262631315400e+02 1.131947902060851474e-05
7.059529764882440759e+02 1.135581112836180960e-05
7.068534267133566118e+02 1.127322998101837059e-05
7.077538769384691477e+02 1.125709797141772586e-05
7.086543271635817973e+02 1.129846203897827567e-05
7.095547773886943332e+02 1.127754031084471623e-05
7.104552276138068692e+02 1.120193882509085781e-05
7.113556778389194051e+02 1.102378139955604684e-05
7.122561280640319410e+02 1.075585220989936219e-05
7.131565782891445906e+02 1.062673352329857741e-05
7.140570285142571265e+02 1.073742018024048264e-05
7.149574787393696624e+02 1.092333145148584110e-05
7.158579289644821984e+02 1.107012368061103817e-05
7.167583791895947343e+02 1.109695629033871689e-05
7.176588294147072702e+02 1.092346843183369222e-05
7.185592796398199198e+02 1.076113629062142690e-05
7.194597298649324557e+02 1.078479099920397456e-05
7.203601800900449916e+02 1.092042282828041861e-05
7.212606303151575275e+02 1.109065032232021103e-05
7.221610805402700635e+02 1.131952601530281410e-05
7.230615307653827131e+02 1.156226662569610076e-05
7.239619809904952490e+02 1.174451424521948981e-05
7.248624312156077849e+02 1.183142478322547480e-05
7.257628814407203208e+02 1.180662116620013830e-05
7.266633316658328567e+02 1.157723090578175685e-05
7.275637818909453927e+02 1.134126554806043423e-05
7.284642321160580423e+02 1.130051249945045400e-05
7.293646823411705782e+02 1.138968296460785373e-05
7.302651325662831141e+02 1.149169280437708146e-05
7.311655827913956500e+02 1.153517343423342289e-05
7.320660330165081859e+02 1.155105522188375724e-05
7.329664832416207219e+02 1.161753131211845102e-05
7.338669334667333715e+02 1.177402100090002015e-05
7.347673836918459074e+02 1.199397240513488028e-05
7.356678339169584433e+02 1.216827987415850239e-05
7.365682841420709792e+02 1.219908674611699283e-05
7.374687343671835151e+02 1.216996572150085482e-05
7.383691845922961647e+02 1.210473227881267719e-05
7.392696348174087007e+02 1.199459080094294840e-05
7.401700850425212366e+02 1.199663232835617990e-05
7.410705352676337725e+02 1.216730507124605358e-05
7.419709854927463084e+02 1.245787129179186645e-05
7.428714357178588443e+02 1.273431709058121129e-05
7.437718859429714939e+02 1.284417808024160078e-05
7.446723361680840299e+02 1.263101628932073746e-05
7.455727863931965658e+02 1.243928505257657876e-05
7.464732366183091017e+02 1.256720422291839039e-05
7.473736868434216376e+02 1.296698679393370173e-05
7.482741370685342872e+02 1.321576322144967799e-05
7.491745872936468231e+02 1.295875811631342466e-05
7.500750375187593590e+02 1.262591772612610608e-05
7.509754877438718950e+02 1.259500049858197221e-05
7.518759379689844309e+02 1.265888936770383452e-05
7.527763881940969668e+02 1.254441503279954237e-05
7.536768384192096164e+02 1.230998172868530099e-05
7.545772886443221523e+02 1.214738243965835920e-05
7.554777388694346882e+02 1.218764382876832258e-05
7.563781890945472242e+02 1.223685059947751710e-05
7.572786393196597601e+02 1.214406269781919353e-05
7.581790895447722960e+02 1.208571021276774850e-05
7.590795397698849456e+02 1.215470267840216832e-05
7.599799899949974815e+02 1.223061594161161831e-05
7.608804402201100174e+02 1.224168627663473496e-05
7.617808904452225534e+02 1.230207800004218579e-05
7.626813406703350893e+02 1.239479367637918937e-05
7.635817908954477389e+02 1.229652977204819779e-05
7.644822411205602748e+02 1.214083128496015108e-05
7.653826913456728107e+02 1.208539602250912156e-05
7.662831415707853466e+02 1.210004595961629328e-05
7.671835917958978825e+02 1.225684723780519740e-05
7.680840420210104185e+02 1.248887218293340582e-05
7.689844922461230681e+02 1.264049190080909792e-05
7.698849424712356040e+02 1.266862126253434181e-05
7.707853926963481399e+02 1.254416476727531270e-05
7.716858429214606758e+02 1.250215193797898623e-05
7.725862931465732117e+02 1.273314311228975791e-05
7.734867433716858613e+02 1.296008425599445053e-05
7.743871935967983973e+02 1.299024112392095260e-05
7.752876438219109332e+02 1.293876760786205468e-05
7.761880940470234691e+02 1.289488499397281657e-05
7.770885442721360050e+02 1.285404605210378341e-05
7.779889944972485409e+02 1.288860894428421596e-05
7.788894447223611905e+02 1.305219817592388085e-05
7.797898949474737265e+02 1.325331848755599630e-05
7.806903451725862624e+02 1.325911318772744323e-05
7.815907953976987983e+02 1.299733611116137870e-05
7.824912456228113342e+02 1.263726587550682142e-05
7.833916958479238701e+02 1.252302533744127548e-05
7.842921460730365197e+02 1.259433125465619043e-05
7.851925962981490557e+02 1.272133180278625963e-05
7.860930465232615916e+02 1.293185412600074332e-05
7.869934967483741275e+02 1.295726880076902367e-05
7.878939469734866634e+02 1.280135524695439651e-05
7.887943971985993130e+02 1.267715118067687491e-05
7.896948474237118489e+02 1.267868973361113191e-05
7.905952976488243849e+02 1.267382573523506304e-05
7.914957478739369208e+02 1.255713830967350847e-05
7.923961980990494567e+02 1.239131978434262910e-05
7.932966483241619926e+02 1.227988151882448581e-05
7.941970985492746422e+02 1.222522155658988996e-05
7.950975487743871781e+02 1.217026410256681389e-05
7.959979989994997140e+02 1.225797825938775327e-05
7.968984492246122500e+02 1.247078888077699984e-05
7.977988994497247859e+02 1.263740500227388943e-05
7.986993496748374355e+02 1.267081720496744379e-05
7.995997998999499714e+02 1.266687689687364148e-05
8.005002501250625073e+02 1.268084637799481710e-05
8.014007003501750432e+02 1.266007342064761414e-05
8.023011505752875792e+02 1.261899047518010131e-05
8.032016008004001151e+02 1.257065538303657596e-05
8.041020510255127647e+02 1.250977257811030350e-05
8.050025012506253006e+02 1.233519440850950992e-05
8.059029514757378365e+02 1.213212341836968106e-05
8.068034017008503724e+02 1.215762571727030714e-05
8.077038519259629084e+02 1.253467801166817219e-05
8.086043021510754443e+02 1.309827599183230925e-05
8.095047523761880939e+02 1.341567513999111480e-05
8.104052026013006298e+02 1.336489357852873145e-05
8.113056528264131657e+02 1.328478356743256750e-05
8.122061030515257016e+02 1.330935425439342761e-05
8.131065532766382375e+02 1.332262181241307686e-05
8.140070035017508872e+02 1.326920335183852104e-05
8.149074537268634231e+02 1.310914637339871023e-05
8.158079039519759590e+02 1.285285245558679501e-05
8.167083541770884949e+02 1.268370718903869493e-05
8.176088044022010308e+02 1.264588520319133810e-05
8.185092546273135667e+02 1.258325934259983949e-05
8.194097048524262163e+02 1.254873799696246998e-05
8.203101550775387523e+02 1.259779276593156664e-05
8.212106053026512882e+02 1.251056594322493715e-05
8.221110555277638241e+02 1.220774192725230250e-05
8.230115057528763600e+02 1.196328698540471826e-05
8.239119559779890096e+02 1.201614899674065524e-05
8.248124062031015455e+02 1.230346947181834641e-05
8.257128564282140815e+02 1.245600632878231023e-05
8.266133066533266174e+02 1.228345203181259127e-05
8.275137568784391533e+02 1.207982148507023752e-05
8.284142071035516892e+02 1.208911727888324891e-05
8.293146573286643388e+02 1.227327905913870105e-05
8.302151075537768747e+02 1.253773225292250436e-05
8.311155577788894107e+02 1.274591373872824153e-05
8.320160080040019466e+02 1.285160712707059854e-05
8.329164582291144825e+02 1.281294340192860896e-05
8.338169084542270184e+02 1.283468763585706124e-05
8.347173586793396680e+02 1.293435203048959949e-05
8.356178089044522039e+02 1.297863364802799593e-05
8.365182591295647399e+02 1.305150473752997245e-05
8.374187093546772758e+02 1.336340030752564512e-05
8.383191595797898117e+02 1.383132063573142780e-05
8.392196098049024613e+02 1.410708743974265548e-05
8.401200600300149972e+02 1.420223428833310081e-05
8.410205102551275331e+02 1.428513594761892855e-05
8.419209604802400690e+02 1.418930628816459267e-05
8.428214107053526050e+02 1.384291574502132564e-05
8.437218609304651409e+02 1.358559672111616492e-05
8.446223111555777905e+02 1.348505730529294750e-05
8.455227613806903264e+02 1.346199007783129966e-05
8.464232116058028623e+02 1.349988189323716878e-05
8.473236618309153982e+02 1.357751892863750841e-05
8.482241120560279342e+02 1.370421006083806253e-05
8.491245622811405838e+02 1.382763541971961655e-05
8.500250125062531197e+02 1.383594873192982006e-05
8.509254627313656556e+02 1.370141195233774927e-05
8.518259129564781915e+02 1.356424574038332983e-05
8.527263631815907274e+02 1.344811548872819709e-05
8.536268134067032634e+02 1.327983039782669266e-05
8.545272636318159130e+02 1.307898827619315303e-05
8.554277138569284489e+02 1.282683314249672289e-05
8.563281640820409848e+02 1.267441086198747742e-05
8.572286143071535207e+02 1.273776738104802887e-05
8.581290645322660566e+02 1.278492970821492949e-05
8.590295147573785925e+02 1.269114053435583113e-05
8.599299649824912422e+02 1.250900186839700138e-05
8.608304152076037781e+02 1.237015698850328918e-05
8.617308654327163140e+02 1.235321039308634533e-05
8.626313156578288499e+02 1.237044390708761063e-05
8.635317658829413858e+02 1.242133527258684055e-05
8.644322161080540354e+02 1.259321764075367342e-05
8.653326663331665713e+02 1.274841737126844868e-05
8.662331165582791073e+02 1.271948793622029909e-05
8.671335667833916432e+02 1.284772354477504245e-05
8.680340170085041791e+02 1.334650891723223958e-05
8.689344672336167150e+02 1.396551267431395062e-05
8.698349174587293646e+02 1.432149037643754148e-05
8.707353676838419005e+02 1.432131582435818590e-05
8.716358179089544365e+02 1.407081541650730502e-05
8.725362681340669724e+02 1.370580653181676274e-05
8.734367183591795083e+02 1.337775245927890050e-05
8.743371685842921579e+02 1.318563482551674772e-05
8.752376188094046938e+02 1.315541728353842876e-05
8.761380690345172297e+02 1.324599700020899016e-05
8.770385192596297657e+02 1.339136869553610310e-05
8.779389694847423016e+02 1.344932424690423668e-05
8.788394197098548375e+02 1.327210952561852896e-05
8.797398699349674871e+02 1.308392304151958974e-05
8.806403201600800230e+02 1.322916252516036601e-05
8.815407703851925589e+02 1.369435464255690481e-05
8.824412206103050949e+02 1.427105803100634211e-05
8.833416708354176308e+02 1.472518694497056352e-05
8.842421210605301667e+02 1.482923178321086804e-05
8.851425712856428163e+02 1.466485995217772400e-05
8.860430215107553522e+02 1.431911941926830708e-05
8.869434717358678881e+02 1.387240731546172942e-05
8.878439219609804240e+02 1.365456381971181328e-05
8.887443721860929600e+02 1.381538291379690306e-05
8.896448224112056096e+02 1.408504679344009593e-05
8.905452726363181455e+02 1.420673580523126799e-05
8.914457228614306814e+02 1.408150223333464041e-05
8.923461730865432173e+02 1.389663825808119376e-05
8.932466233116557532e+02 1.391198707069480404e-05
8.941470735367682892e+02 1.401292607353246878e-05
8.950475237618809388e+02 1.415152194001600503e-05
8.959479739869934747e+02 1.437608038912778784e-05
8.968484242121060106e+02 1.457531363635523285e-05
8.977488744372185465e+02 1.463615622993181171e-05
8.986493246623310824e+02 1.449124068849018268e-05
8.995497748874437320e+02 1.438519323799731847e-05
9.004502251125562680e+02 1.441347682376108244e-05
9.013506753376688039e+02 1.448168142186269970e-05
9.022511255627813398e+02 1.453632349477284212e-05
9.031515757878938757e+02 1.460349555133694852e-05
9.040520260130064116e+02 1.484197917884733958e-05
9.049524762381190612e+02 1.524797700948674779e-05
9.058529264632315972e+02 1.550665716713831060e-05
9.067533766883441331e+02 1.552716322843797383e-05
9.076538269134566690e+02 1.549278436084713644e-05
9.085542771385692049e+02 1.545031569557669813e-05
9.094547273636817408e+02 1.535700704676285400e-05
9.103551775887943904e+02 1.526971643075552987e-05
9.112556278139069263e+02 1.526745226663260338e-05
9.121560780390194623e+02 1.531332718929328838e-05
9.130565282641319982e+02 1.544829905021590077e-05
9.139569784892445341e+02 1.575559822357081252e-05
9.148574287143571837e+02 1.624121896932781035e-05
9.157578789394697196e+02 1.686348458193324593e-05
9.166583291645822555e+02 1.745784429550920679e-05
9.175587793896947915e+02 1.782207848302036520e-05
9.184592296148073274e+02 1.791673935227573500e-05
9.193596798399198633e+02 1.786925529935293481e-05
9.202601300650325129e+02 1.781365535714525425e-05
9.211605802901450488e+02 1.790555149753189588e-05
9.220610305152575847e+02 1.812342953019305253e-05
9.229614807403701207e+02 1.841537205161342068e-05
9.238619309654826566e+02 1.861351938996188605e-05
9.247623811905953062e+02 1.858633009553474274e-05
9.256628314157078421e+02 1.846496462737402935e-05
9.265632816408203780e+02 1.857989507643839218e-05
9.274637318659329139e+02 1.909916672845658002e-05
9.283641820910454499e+02 1.986603078971192507e-05
9.292646323161579858e+02 2.062477761117592162e-05
9.301650825412706354e+02 2.115675342788985233e-05
9.310655327663831713e+02 2.148377213530441545e-05
9.319659829914957072e+02 2.153652798231612333e-05
9.328664332166082431e+02 2.124287078939264399e-05
9.337668834417207790e+02 2.105242868095970197e-05
9.346673336668334287e+02 2.119828591353927963e-05
9.355677838919459646e+02 2.159216545842201763e-05
9.364682341170585005e+02 2.233122210931908600e-05
9.373686843421710364e+02 2.309892975235471407e-05
9.382691345672835723e+02 2.342735790887887602e-05
9.391695847923961082e+02 2.351487237019168132e-05
9.400700350175087578e+02 2.341817679343378302e-05
9.409704852426212938e+02 2.327427831043667891e-05
9.418709354677338297e+02 2.336671016736937875e-05
9.427713856928463656e+02 2.360891845831097042e-05
9.436718359179589015e+02 2.390112365066955475e-05
9.445722861430714374e+02 2.406585492401540141e-05
9.454727363681840870e+02 2.417262756057583718e-05
9.463731865932966230e+02 2.443315687466861494e-05
9.472736368184091589e+02 2.490650491402556952e-05
9.481740870435216948e+02 2.525142634988444294e-05
9.490745372686342307e+02 2.543270125857731621e-05
9.499749874937468803e+02 2.569305755217602349e-05
9.508754377188594162e+02 2.608697850450676479e-05
9.517758879439719522e+02 2.635063783920472903e-05
9.526763381690844881e+02 2.631570659563568529e-05
9.535767883941970240e+02 2.608814411638148891e-05
9.544772386193095599e+02 2.564482112209009874e-05
9.553776888444222095e+02 2.507415573942625584e-05
9.562781390695347454e+02 2.492051895238853721e-05
9.571785892946472813e+02 2.543471024872171409e-05
9.580790395197598173e+02 2.622622432526508889e-05
9.589794897448723532e+02 2.700302358945645714e-05
9.598799399699850028e+02 2.784535997225441936e-05
9.607803901950975387e+02 2.847391536549263264e-05
9.616808404202100746e+02 2.871882999366776358e-05
9.625812906453226105e+02 2.874199255466500233e-05
9.634817408704351465e+02 2.880586733311981426e-05
9.643821910955476824e+02 2.903232738950965971e-05
9.652826413206603320e+02 2.925801231321896665e-05
9.661830915457728679e+02 2.964059932206694725e-05
9.670835417708854038e+02 3.056060300055561462e-05
9.679839919959979397e+02 3.197013946033079633e-05
9.688844422211104757e+02 3.383697664462582792e-05
9.697848924462230116e+02 3.571366218044434287e-05
9.706853426713356612e+02 3.690919316612431962e-05
9.715857928964481971e+02 3.728849528410830156e-05
9.724862431215607330e+02 3.727905428551683018e-05
9.733866933466732689e+02 3.719555973221073432e-05
9.742871435717858049e+02 3.695887757179269447e-05
9.751875937968984545e+02 3.683873642764891901e-05
9.760880440220109904e+02 3.675787319398636955e-05
9.769884942471235263e+02 3.651432663546036803e-05
9.778889444722360622e+02 3.672823319416416521e-05
9.787893946973485981e+02 3.734343100504656512e-05
9.796898449224611340e+02 3.801700949849525754e-05
9.805902951475737837e+02 3.864494025515658924e-05
9.814907453726863196e+02 3.905759287535754098e-05
9.823911955977988555e+02 3.920113381851290414e-05
9.832916458229113914e+02 3.885506586640365324e-05
9.841920960480239273e+02 3.831818854013381055e-05
9.850925462731365769e+02 3.828394694131075039e-05
9.859929964982491128e+02 3.877677063536794750e-05
9.868934467233616488e+02 3.955624962038853317e-05
9.877938969484741847e+02 4.023967594861536424e-05
9.886943471735867206e+02 4.050708754365640299e-05
9.895947973986992565e+02 4.048326528462931821e-05
9.904952476238119061e+02 4.056611337600825909e-05
9.913956978489244420e+02 4.081711271378927623e-05
9.922961480740369780e+02 4.140962309915755316e-05
9.931965982991495139e+02 4.237841014480769018e-05
9.940970485242620498e+02 4.283583854664735401e-05
9.949974987493745857e+02 4.256737758517716242e-05
9.958979489744872353e+02 4.287346954433983220e-05
9.967983991995997712e+02 4.405292313318233361e-05
9.976988494247123072e+02 4.541881709310488518e-05
9.985992996498248431e+02 4.653353025460308740e-05
9.994997498749373790e+02 4.752365929421482904e-05
1.000400200100050029e+03 4.818827097679583878e-05
1.001300650325162565e+03 4.835803526945623999e-05
1.002201100550275100e+03 4.841056620953459978e-05
1.003101550775387636e+03 4.920775590305405666e-05
1.004002001000500172e+03 5.075823787075404991e-05
1.004902451225612708e+03 5.196916133116223223e-05
1.005802901450725358e+03 5.197930559035853111e-05
1.006703351675837894e+03 5.095674767431142467e-05
1.007603801900950430e+03 5.018104100468422600e-05
1.008504252126062966e+03 5.018360992433451882e-05
1.009404702351175501e+03 5.068696747526074139e-05
1.010305152576288151e+03 5.145563168835327850e-05
1.011205602801400687e+03 5.214422426142325498e-05
1.012106053026513223e+03 5.279008852259189997e-05
1.013006503251625759e+03 5.352144197472294488e-05
1.013906953476738295e+03 5.377956361318420774e-05
1.014807403701850831e+03 5.409358765549261206e-05
1.015707853926963480e+03 5.516196986579398836e-05
1.016608304152076016e+03 5.660315900009256539e-05
1.017508754377188552e+03 5.810499195069131017e-05
1.018409204602301088e+03 5.955270984072047268e-05
1.019309654827413624e+03 5.998487445754120212e-05
1.020210105052526160e+03 5.949364796539483523e-05
1.021110555277638809e+03 5.916429106537425433e-05
1.022011005502751345e+03 5.920070113161967035e-05
1.022911455727863881e+03 5.961385867759395408e-05
1.023811905952976417e+03 6.036334941193630598e-05
1.024712356178089067e+03 6.180764842726596889e-05
1.025612806403201603e+03 6.337801504155589349e-05
1.026513256628314139e+03 6.413793822465284832e-05
1.027413706853426675e+03 6.448089788331628765e-05
1.028314157078539210e+03 6.474637941426386167e-05
1.029214607303651746e+03 6.531105605170698920e-05
1.030115057528764282e+03 6.612325045115333675e-05
1.031015507753876818e+03 6.660281552997323435e-05
1.031915957978989354e+03 6.753747922218293316e-05
1.032816408204101890e+03 6.890892138598997754e-05
1.033716858429214653e+03 6.887028965425149446e-05
1.034617308654327189e+03 6.732154926634853769e-05
1.035517758879439725e+03 6.549608412899166684e-05
1.036418209104552261e+03 6.446091817053949331e-05
1.037318659329664797e+03 6.486729980079684616e-05
1.038219109554777333e+03 6.588359094510906925e-05
1.039119559779889869e+03 6.643155187944146662e-05
1.040020010005002405e+03 6.676525913387034241e-05
1.040920460230114941e+03 6.818444252610021932e-05
1.041820910455227477e+03 7.057622859852060262e-05
1.042721360680340013e+03 7.299549428730772737e-05
1.043621810905452776e+03 7.566199333776812573e-05
1.044522261130565312e+03 7.816720776958561978e-05
1.045422711355677848e+03 7.944386826989447792e-05
1.046323161580790384e+03 7.974938799402969810e-05
1.047223611805902920e+03 7.998129908411742239e-05
1.048124062031015455e+03 8.068492805264634404e-05
1.049024512256127991e+03 8.160812032057553316e-05
1.049924962481240527e+03 8.159409811634513187e-05
1.050825412706353063e+03 8.055418929762039990e-05
1.051725862931465599e+03 7.962978985707138313e-05
1.052626313156578135e+03 7.870183734555470103e-05
1.053526763381690898e+03 7.766520507082639126e-05
1.054427213606803434e+03 7.748904863846469164e-05
1.055327663831915970e+03 7.837410295976021636e-05
1.056228114057028506e+03 7.981557028291922967e-05
1.057128564282141042e+03 8.042824192775037157e-05
1.058029014507253578e+03 7.950179402170493665e-05
1.058929464732366114e+03 7.754847248611132211e-05
1.059829914957478650e+03 7.631353193189483895e-05
1.060730365182591186e+03 7.675621330354967704e-05
1.061630815407703722e+03 7.795381584762771344e-05
1.062531265632816257e+03 7.934751780410305964e-05
1.063431715857929021e+03 8.034898598628558894e-05
1.064332166083041557e+03 8.083373658702476278e-05
1.065232616308154093e+03 8.082583435737499206e-05
1.066133066533266629e+03 7.984203697316148338e-05
1.067033516758379164e+03 7.820964360997858145e-05
1.067933966983491700e+03 7.624009747839391601e-05
1.068834417208604236e+03 7.435702327517904541e-05
1.069734867433716772e+03 7.279843138049175587e-05
1.070635317658829308e+03 7.175148888615432222e-05
1.071535767883941844e+03 7.077178931577528763e-05
1.072436218109054380e+03 6.942326861065107203e-05
1.073336668334167143e+03 6.912975341749715409e-05
1.074237118559279679e+03 7.028985007927989446e-05
1.075137568784392215e+03 7.180389265763607214e-05
1.076038019009504751e+03 7.287184043095112430e-05
1.076938469234617287e+03 7.415321923081991920e-05
1.077838919459729823e+03 7.630729267717540948e-05
1.078739369684842359e+03 7.818548855829073117e-05
1.079639819909954895e+03 7.883468345227337035e-05
1.080540270135067431e+03 7.899104228660491203e-05
1.081440720360179967e+03 7.946323422392536512e-05
1.082341170585292502e+03 8.110347304793932019e-05
1.083241620810405038e+03 8.280452612480183536e-05
1.084142071035517802e+03 8.237152358946072978e-05
1.085042521260630338e+03 8.108583151731762074e-05
1.085942971485742873e+03 8.023441859931253889e-05
1.086843421710855409e+03 7.977764726877116584e-05
1.087743871935967945e+03 7.934144970993579232e-05
1.088644322161080481e+03 7.964893805659162610e-05
1.089544772386193017e+03 8.101172359326748549e-05
1.090445222611305553e+03 8.155982808812683375e-05
1.091345672836418089e+03 8.176920092478593316e-05
1.092246123061530625e+03 8.276040966273605316e-05
1.093146573286643161e+03 8.435614718961686217e-05
1.094047023511755924e+03 8.660009880504131500e-05
1.094947473736868460e+03 8.899250100041269636e-05
1.095847923961980996e+03 9.008730720540376825e-05
1.096748374187093532e+03 8.968488353483377326e-05
1.097648824412206068e+03 8.991437976387161516e-05
1.098549274637318604e+03 9.196982859659881830e-05
1.099449724862431140e+03 9.402721876826626503e-05
1.100350175087543676e+03 9.543604905481690244e-05
1.101250625312656211e+03 9.806053034233889879e-05
1.102151075537768747e+03 1.011733540012777155e-04
1.103051525762881283e+03 1.036785200221817073e-04
1.103951975987994047e+03 1.059128726294287300e-04
1.104852426213106583e+03 1.081841621525867473e-04
1.105752876438219118e+03 1.096810759313519948e-04
1.106653326663331654e+03 1.111996561840377740e-04
1.107553776888444190e+03 1.144948410753547538e-04
1.108454227113556726e+03 1.196661833100147394e-04
1.109354677338669262e+03 1.260125389454095398e-04
1.110255127563781798e+03 1.309111343141712157e-04
1.111155577788894334e+03 1.330351423908263326e-04
1.112056028014006870e+03 1.337656089522676979e-04
1.112956478239119406e+03 1.337953757288746375e-04
1.113856928464232169e+03 1.357705763735758296e-04
1.114757378689344705e+03 1.410219849578153858e-04
1.115657828914457241e+03 1.448417344594413625e-04
1.116558279139569777e+03 1.458888554679081510e-04
1.117458729364682313e+03 1.460631014418304003e-04
1.118359179589794849e+03 1.474316838028343209e-04
1.119259629814907385e+03 1.518694757528473880e-04
1.120160080040019920e+03 1.594330643254783509e-04
1.121060530265132456e+03 1.689651974901215930e-04
1.121960980490244992e+03 1.812671932252600223e-04
1.122861430715357528e+03 1.951434051206467986e-04
1.123761880940470292e+03 2.100350711712455098e-04
1.124662331165582827e+03 2.279643280520316537e-04
1.125562781390695363e+03 2.496417837803521344e-04
1.126463231615807899e+03 2.699894941315994544e-04
1.127363681840920435e+03 2.897951357251550455e-04
1.128264132066032971e+03 3.101038181804904761e-04
1.129164582291145507e+03 3.372133321932963609e-04
1.130065032516258043e+03 3.797332982752574574e-04
1.130965482741370579e+03 4.376466432275982776e-04
1.131865932966483115e+03 5.003595596529580077e-04
1.132766383191595651e+03 5.552413807539407923e-04
1.133666833416708187e+03 6.038458765195245945e-04
1.134567283641820950e+03 6.503575163090149179e-04
1.135467733866933486e+03 6.978519111096040872e-04
1.136368184092046022e+03 7.467577674365868468e-04
1.137268634317158558e+03 7.943980086141529898e-04
1.138169084542271094e+03 8.388807915931696668e-04
1.139069534767383630e+03 8.993552090381884629e-04
1.139969984992496165e+03 9.896449642223762323e-04
1.140870435217608701e+03 1.095399022268867678e-03
1.141770885442721237e+03 1.206507189975654891e-03
1.142671335667833773e+03 1.302263855464212824e-03
1.143571785892946309e+03 1.360447244960092230e-03
1.144472236118059072e+03 1.367411572471305403e-03
1.145372686343171608e+03 1.293305379007010474e-03
1.146273136568284144e+03 1.154116857750070793e-03
1.147173586793396680e+03 1.019390603384838848e-03
1.148074037018509216e+03 8.945307379004361096e-04
1.148974487243621752e+03 7.555488580982098763e-04
1.149874937468734288e+03 6.195686568078660446e-04
1.150775387693846824e+03 5.104530397421746255e-04
1.151675837918959360e+03 4.308672661625821882e-04
1.152576288144071896e+03 3.746896630502868117e-04
1.153476738369184432e+03 3.370546180888869727e-04
1.154377188594297195e+03 3.135923304109054116e-04
1.155277638819409731e+03 2.943248208583692832e-04
1.156178089044522267e+03 2.682263661701243763e-04
1.157078539269634803e+03 2.363422351521180821e-04
1.157978989494747339e+03 2.088503234594835437e-04
1.158879439719859874e+03 1.916447809360073045e-04
1.159779889944972410e+03 1.816120044215696866e-04
1.160680340170084946e+03 1.765292342347608498e-04
1.161580790395197482e+03 1.773467905609813085e-04
1.162481240620310018e+03 1.798778507853378500e-04
1.163381690845422554e+03 1.797168352868295973e-04
1.164282141070535317e+03 1.820748209382677554e-04
1.165182591295647853e+03 1.937075646968190300e-04
1.166083041520760389e+03 2.122133019287060181e-04
1.166983491745872925e+03 2.279253876805135298e-04
1.167883941970985461e+03 2.333056533745484515e-04
1.168784392196097997e+03 2.305188562370361657e-04
1.169684842421210533e+03 2.216065460318041415e-04
1.170585292646323069e+03 2.094329439429222365e-04
1.171485742871435605e+03 1.969076863294191772e-04
1.172386193096548141e+03 1.845126014550553680e-04
1.173286643321660677e+03 1.712609964626168305e-04
1.174187093546773440e+03 1.607754805465904399e-04
1.175087543771885976e+03 1.576598772919808307e-04
1.175987993996998512e+03 1.602763297991033592e-04
1.176888444222111048e+03 1.630685045304857133e-04
1.177788894447223583e+03 1.578032834555958349e-04
1.178689344672336119e+03 1.491736824235019880e-04
1.179589794897448655e+03 1.450183025843051999e-04
1.180490245122561191e+03 1.431001433868635351e-04
1.181390695347673727e+03 1.416230871089715752e-04
1.182291145572786263e+03 1.412425161715325731e-04
1.183191595797898799e+03 1.424253748878119617e-04
1.184092046023011562e+03 1.437252467753637446e-04
1.184992496248124098e+03 1.420485694429646846e-04
1.185892946473236634e+03 1.403849501811993904e-04
1.186793396698349170e+03 1.432418970282662619e-04
1.187693846923461706e+03 1.456373122301747136e-04
1.188594297148574242e+03 1.430830844347110798e-04
1.189494747373686778e+03 1.418203683209000863e-04
1.190395197598799314e+03 1.463537520743461045e-04
1.191295647823911850e+03 1.544895587418853374e-04
1.192196098049024386e+03 1.612232582332451963e-04
1.193096548274136921e+03 1.658109962644868554e-04
1.193996998499249457e+03 1.702153175564130594e-04
1.194897448724362221e+03 1.783060982279913707e-04
1.195797898949474757e+03 1.922284585616783109e-04
1.196698349174587293e+03 2.044883238186915718e-04
1.197598799399699828e+03 2.046837831285804217e-04
1.198499249624812364e+03 1.993132426233767463e-04
1.199399699849924900e+03 1.988370343126140503e-04
1.200300150075037436e+03 2.037736898873774519e-04
1.201200600300149972e+03 2.089468129281277014e-04
1.202101050525262508e+03 2.113916068624804162e-04
1.203001500750375044e+03 2.150338231371912200e-04
1.203901950975487580e+03 2.237353744625050832e-04
1.204802401200600343e+03 2.364864713952157481e-04
1.205702851425712879e+03 2.465962266832973180e-04
1.206603301650825415e+03 2.512014992445646302e-04
1.207503751875937951e+03 2.519859750368758176e-04
1.208404202101050487e+03 2.490112262628287228e-04
1.209304652326163023e+03 2.437014714591123675e-04
1.210205102551275559e+03 2.379802689223069710e-04
1.211105552776388095e+03 2.336553161188261959e-04
1.212006003001500630e+03 2.304796216228490748e-04
1.212906453226613166e+03 2.264840453529953616e-04
1.213806903451725702e+03 2.233187709324331723e-04
1.214707353676838466e+03 2.248546040421848949e-04
1.215607803901951002e+03 2.259201310150576948e-04
1.216508254127063537e+03 2.249354783278335597e-04
1.217408704352176073e+03 2.249614651575313113e-04
1.218309154577288609e+03 2.239425309663369023e-04
1.219209604802401145e+03 2.196737508301884780e-04
1.220110055027513681e+03 2.129797441902633631e-04
1.221010505252626217e+03 2.079326454329814215e-04
1.221910955477738753e+03 2.063121296803664066e-04
1.222811405702851289e+03 2.052168523649384047e-04
1.223711855927963825e+03 2.048991199915033915e-04
1.224612306153076588e+03 2.063614203491635833e-04
1.225512756378189124e+03 2.070714358490223972e-04
1.226413206603301660e+03 2.057326600801637608e-04
1.227313656828414196e+03 2.047993912095736626e-04
1.228214107053526732e+03 2.056390257147783706e-04
1.229114557278639268e+03 2.072983812281952993e-04
1.230015007503751804e+03 2.083139257352295581e-04
1.230915457728864340e+03 2.090458957584483070e-04
1.231815907953976875e+03 2.109697834282851683e-04
1.232716358179089411e+03 2.158414591545550979e-04
1.233616808404201947e+03 2.229940095747685901e-04
1.234517258629314711e+03 2.324401495809651989e-04
1.235417708854427246e+03 2.463701620845427692e-04
1.236318159079539782e+03 2.672136799120463464e-04
1.237218609304652318e+03 2.957025529404358520e-04
1.238119059529764854e+03 3.287645004554673759e-04
1.239019509754877390e+03 3.615729096577639909e-04
1.239919959979989926e+03 3.881979499203942535e-04
1.240820410205102462e+03 4.033481331155680354e-04
1.241720860430214998e+03 4.089533262974235283e-04
1.242621310655327534e+03 4.053679404720666080e-04
1.243521760880440070e+03 3.928105652737868734e-04
1.244422211105552606e+03 3.783336795776080113e-04
1.245322661330665369e+03 3.693481271154716063e-04
1.246223111555777905e+03 3.695237520301258003e-04
1.247123561780890441e+03 3.780055990943827150e-04
1.248024012006002977e+03 3.912685149896796529e-04
1.248924462231115513e+03 4.070849154218132704e-04
1.249824912456228049e+03 4.228205013117525475e-04
1.250725362681340584e+03 4.356481957199988698e-04
1.251625812906453120e+03 4.484710765111840354e-04
1.252526263131565656e+03 4.629331260417436189e-04
1.253426713356678192e+03 4.737580416060213216e-04
1.254327163581790728e+03 4.786384961792347777e-04
1.255227613806903491e+03 4.813950369955042837e-04
1.256128064032016027e+03 4.842009151609304955e-04
1.257028514257128563e+03 4.876655991213745011e-04
1.257928964482241099e+03 4.918674083936397596e-04
1.258829414707353635e+03 4.968862219322084904e-04
1.259729864932466171e+03 5.009848811343045171e-04
1.260630315157578707e+03 5.030955675308068078e-04
1.261530765382691243e+03 5.062905704733761721e-04
1.262431215607803779e+03 5.122368942325497771e-04
1.263331665832916315e+03 5.182978993519239078e-04
1.264232116058028851e+03 5.242392550747365263e-04
1.265132566283141614e+03 5.295858849444623874e-04
1.266033016508254150e+03 5.327421527411293177e-04
1.266933466733366686e+03 5.341167033757539696e-04
1.267833916958479222e+03 5.358755448888934472e-04
1.268734367183591758e+03 5.407548962140371800e-04
1.269634817408704293e+03 5.471801268636006547e-04
1.270535267633816829e+03 5.529597171287452782e-04
1.271435717858929365e+03 5.574874915833732481e-04
1.272336168084041901e+03 5.622309843254437878e-04
1.273236618309154437e+03 5.701182488235569112e-04
1.274137068534266973e+03 5.784143110062121796e-04
1.275037518759379736e+03 5.823679946827799115e-04
1.275937968984492272e+03 5.843903162028000076e-04
1.276838419209604808e+03 5.884931229501915231e-04
1.277738869434717344e+03 5.954685749618665678e-04
1.278639319659829880e+03 6.053905729558501118e-04
1.279539769884942416e+03 6.181666316567498718e-04
1.280440220110054952e+03 6.320452375949471048e-04
1.281340670335167488e+03 6.432789914384499496e-04
1.282241120560280024e+03 6.509229143293446176e-04
1.283141570785392560e+03 6.597881730805498033e-04
1.284042021010505096e+03 6.707845910507900236e-04
1.284942471235617859e+03 6.846281147694716551e-04
1.285842921460730395e+03 7.012484009333749520e-04
1.286743371685842931e+03 7.132526035927100414e-04
1.287643821910955467e+03 7.211391463722017755e-04
1.288544272136068003e+03 7.327376580977477526e-04
1.289444722361180538e+03 7.479424652435704779e-04
1.290345172586293074e+03 7.625914698837279191e-04
1.291245622811405610e+03 7.743831247740124270e-04
1.292146073036518146e+03 7.854358066717201077e-04
1.293046523261630682e+03 8.025942692854227435e-04
1.293946973486743218e+03 8.274986973696102713e-04
1.294847423711855754e+03 8.545723763007151462e-04
1.295747873936968517e+03 8.837626243950619806e-04
1.296648324162081053e+03 9.123948913944900877e-04
1.297548774387193589e+03 9.352011596656925390e-04
1.298449224612306125e+03 9.512034242909103146e-04
1.299349674837418661e+03 9.601190035993190314e-04
1.300250125062531197e+03 9.678878838702413860e-04
1.301150575287643733e+03 9.863719015581714263e-04
1.302051025512756269e+03 1.016053280919313037e-03
1.302951475737868805e+03 1.050564489888753403e-03
1.303851925962981340e+03 1.091057471460369971e-03
1.304752376188093876e+03 1.142297515618443792e-03
1.305652826413206640e+03 1.201700213827507557e-03
1.306553276638319176e+03 1.248775051647477673e-03
1.307453726863431712e+03 1.282595955553167280e-03
1.308354177088544247e+03 1.327269710377409519e-03
1.309254627313656783e+03 1.379484072822720125e-03
1.310155077538769319e+03 1.424109901537733798e-03
1.311055527763881855e+03 1.471147980222910776e-03
1.311955977988994391e+03 1.528423175009680250e-03
1.312856428214106927e+03 1.599103420836421206e-03
1.313756878439219463e+03 1.679606452171450177e-03
1.314657328664331999e+03 1.768495854369974861e-03
1.315557778889444762e+03 1.860022519644536623e-03
1.316458229114557298e+03 1.947134710291722462e-03
1.317358679339669834e+03 2.028299453458355401e-03
1.318259129564782370e+03 2.108896689805403197e-03
1.319159579789894906e+03 2.207460670885846941e-03
1.320060030015007442e+03 2.316761954583399386e-03
1.320960480240119978e+03 2.413533353339294713e-03
1.321860930465232514e+03 2.487706058599718079e-03
1.322761380690345050e+03 2.558266725019352726e-03
1.323661830915457585e+03 2.645569304689641965e-03
1.324562281140570121e+03 2.753184875176444002e-03
1.325462731365682885e+03 2.865936936096142792e-03
1.326363181590795421e+03 2.969661770540412034e-03
1.327263631815907956e+03 3.067603063453063026e-03
1.328164082041020492e+03 3.183728788897806708e-03
1.329064532266133028e+03 3.345391761818682433e-03
1.329964982491245564e+03 3.561843729848737736e-03
1.330865432716358100e+03 3.816953464852997774e-03
1.331765882941470636e+03 4.066131218712993635e-03
1.332666333166583172e+03 4.284140711088927841e-03
1.333566783391695708e+03 4.491434092437225287e-03
1.334467233616808244e+03 4.691574221931517005e-03
1.335367683841921007e+03 4.844374976559190533e-03
1.336268134067033543e+03 4.901864187702717653e-03
1.337168584292146079e+03 4.916876815554139558e-03
1.338069034517258615e+03 4.981653435344481767e-03
1.338969484742371151e+03 5.147146598722576738e-03
1.339869934967483687e+03 5.417487464105121865e-03
1.340770385192596223e+03 5.740927591704685085e-03
1.341670835417708759e+03 6.007114210222224207e-03
1.342571285642821294e+03 6.217810471244309030e-03
1.343471735867933830e+03 6.476068627646921171e-03
1.344372186093046366e+03 6.748781379538398677e-03
1.345272636318158902e+03 7.000745962806939268e-03
1.346173086543271666e+03 7.302401087447527549e-03
1.347073536768384201e+03 7.681774649459855407e-03
1.347973986993496737e+03 8.096086775277726300e-03
1.348874437218609273e+03 8.472525861953027898e-03
1.349774887443721809e+03 8.841715350373103785e-03
1.350675337668834345e+03 9.233328642271004458e-03
1.351575787893946881e+03 9.638804172489244190e-03
1.352476238119059417e+03 1.008906949322030053e-02
1.353376688344171953e+03 1.058036318863654797e-02
1.354277138569284489e+03 1.111354568319230032e-02
1.355177588794397025e+03 1.174464076447395526e-02
1.356078039019509788e+03 1.254076071627154357e-02
1.356978489244622324e+03 1.360374098362901289e-02
1.357878939469734860e+03 1.485146694088990832e-02
1.358779389694847396e+03 1.615882439228104317e-02
1.359679839919959932e+03 1.773820144192840564e-02
1.360580290145072468e+03 1.984653028875324465e-02
1.361480740370185003e+03 2.240002557373119152e-02
1.362381190595297539e+03 2.525267109285233777e-02
1.363281640820410075e+03 2.852928836547607983e-02
1.364182091045522611e+03 3.253706098964743998e-02
1.365082541270635147e+03 3.706378242508679560e-02
1.365982991495747910e+03 4.175632907966601165e-02
1.366883441720860446e+03 4.656389875201109863e-02
1.367783891945972982e+03 5.192603699871638917e-02
1.368684342171085518e+03 5.869491051278988292e-02
1.369584792396198054e+03 6.718760855221074524e-02
1.370485242621310590e+03 7.588431169504993024e-02
1.371385692846423126e+03 8.231804417910469629e-02
1.372286143071535662e+03 8.452842885284055086e-02
1.373186593296648198e+03 8.201571202580577868e-02
1.374087043521760734e+03 7.514549008752509363e-02
1.374987493746873270e+03 6.622568513728024908e-02
1.375887943971986033e+03 5.806870866664490261e-02
1.376788394197098569e+03 5.189706127224995996e-02
1.377688844422211105e+03 4.727741651708780579e-02
1.378589294647323641e+03 4.346749465822536546e-02
1.379489744872436177e+03 3.990287098346750883e-02
1.380390195097548713e+03 3.635897225724867010e-02
1.381290645322661248e+03 3.328413131121799040e-02
1.382191095547773784e+03 3.085004255248149571e-02
1.383091545772886320e+03 2.876280306411134122e-02
1.383991995997998856e+03 2.684204070106657042e-02
1.384892446223111392e+03 2.520920492479210642e-02
1.385792896448224155e+03 2.386171618931910016e-02
1.386693346673336691e+03 2.249155483267120670e-02
1.387593796898449227e+03 2.092257357785342123e-02
1.388494247123561763e+03 1.911703048270303046e-02
1.389394697348674299e+03 1.724845094201859011e-02
1.390295147573786835e+03 1.544848536632468898e-02
1.391195597798899371e+03 1.392632787507157473e-02
1.392096048024011907e+03 1.275434191026468024e-02
1.392996498249124443e+03 1.178937346465174993e-02
1.393896948474236979e+03 1.090917438343677950e-02
1.394797398699349515e+03 1.008499890634497950e-02
1.395697848924462278e+03 9.396801511041811064e-03
1.396598299149574814e+03 8.816094213267452323e-03
1.397498749374687350e+03 8.283481315458328387e-03
1.398399199599799886e+03 7.774339097613725165e-03
1.399299649824912422e+03 7.304518819404164608e-03
1.400200100050024957e+03 6.864254536875093182e-03
1.401100550275137493e+03 6.424487118718998600e-03
1.402001000500250029e+03 6.008608507410514131e-03
1.402901450725362565e+03 5.639218140470939229e-03
1.403801900950475101e+03 5.294122441323528133e-03
1.404702351175587637e+03 4.971356044589920857e-03
1.405602801400700173e+03 4.709076092852342542e-03
1.406503251625812936e+03 4.482804274872545687e-03
1.407403701850925472e+03 4.276291288993334244e-03
1.408304152076038008e+03 4.083337390479964586e-03
1.409204602301150544e+03 3.944601475795147909e-03
1.410105052526263080e+03 3.864276305040680037e-03
1.411005502751375616e+03 3.749909980130727068e-03
1.411905952976488152e+03 3.599805084291406079e-03
1.412806403201600688e+03 3.447235737466708676e-03
1.413706853426713224e+03 3.285324303217871875e-03
1.414607303651825760e+03 3.147978284160388423e-03
1.415507753876938295e+03 3.068476585409885167e-03
1.416408204102051059e+03 3.039648168922799622e-03
1.417308654327163595e+03 3.030105693640378593e-03
1.418209104552276131e+03 2.988844556292134368e-03
1.419109554777388666e+03 2.874958943585231158e-03
1.420010005002501202e+03 2.714436347717038948e-03
1.420910455227613738e+03 2.563527689703180758e-03
1.421810905452726274e+03 2.454138801026381749e-03
1.422711355677838810e+03 2.386984210649598873e-03
1.423611805902951346e+03 2.327941772085806785e-03
1.424512256128063882e+03 2.229800129190888554e-03
1.425412706353176418e+03 2.112085481025690291e-03
1.426313156578289181e+03 2.031690530916660520e-03
1.427213606803401717e+03 1.985570761765363765e-03
1.428114057028514253e+03 1.948729936313565482e-03
1.429014507253626789e+03 1.915119617899680273e-03
1.429914957478739325e+03 1.875202627431488784e-03
1.430815407703851861e+03 1.826024854456826784e-03
1.431715857928964397e+03 1.782673239336188264e-03
1.432616308154076933e+03 1.735283416351711579e-03
1.433516758379189469e+03 1.668086734983238164e-03
1.434417208604302004e+03 1.591301348548306797e-03
1.435317658829414540e+03 1.506311865456980582e-03
1.436218109054527304e+03 1.422216101251032533e-03
1.437118559279639840e+03 1.355446385311965011e-03
1.438019009504752376e+03 1.302680067221806751e-03
1.438919459729864911e+03 1.250514246670715634e-03
1.439819909954977447e+03 1.200572491192116939e-03
1.440720360180089983e+03 1.151420445718538037e-03
1.441620810405202519e+03 1.118527441405598290e-03
1.442521260630315055e+03 1.108900734215421654e-03
1.443421710855427591e+03 1.103478004647792752e-03
1.444322161080540127e+03 1.089992377271416712e-03
1.445222611305652663e+03 1.060810731989525989e-03
1.446123061530765426e+03 1.028566063137939177e-03
1.447023511755877962e+03 1.001367808218626759e-03
1.447923961980990498e+03 9.611078068341812790e-04
1.448824412206103034e+03 9.074257167435178422e-04
1.449724862431215570e+03 8.574114912486014567e-04
1.450625312656328106e+03 8.170161623614547374e-04
1.451525762881440642e+03 7.867791637331434003e-04
1.452426213106553178e+03 7.676454473568601741e-04
1.453326663331665713e+03 7.565501657597269473e-04
1.454227113556778249e+03 7.477507993629029523e-04
1.455127563781890785e+03 7.305015077921171024e-04
1.456028014007003321e+03 7.029224871082229284e-04
1.456928464232116085e+03 6.745360941147152557e-04
1.457828914457228620e+03 6.505228894472760886e-04
1.458729364682341156e+03 6.298026338969591733e-04
1.459629814907453692e+03 6.144421538933723123e-04
1.460530265132566228e+03 6.087352755316352733e-04
1.461430715357678764e+03 6.081630572421336655e-04
1.462331165582791300e+03 6.050985390209736746e-04
1.463231615807903836e+03 5.987738718357149851e-04
1.464132066033016372e+03 5.920347233779096191e-04
1.465032516258128908e+03 5.812208377310513260e-04
1.465932966483241444e+03 5.684853944469808046e-04
1.466833416708354207e+03 5.575210939839903533e-04
1.467733866933466743e+03 5.426285140005570381e-04
1.468634317158579279e+03 5.266326006906528944e-04
1.469534767383691815e+03 5.172143437939251843e-04
1.470435217608804351e+03 5.111748455908539379e-04
1.471335667833916887e+03 5.048854471829386297e-04
1.472236118059029423e+03 5.007602952385057857e-04
1.473136568284141958e+03 5.009290153995914338e-04
1.474037018509254494e+03 5.022498185476541050e-04
1.474937468734367030e+03 5.001388858266195368e-04
1.475837918959479566e+03 4.968366229018400916e-04
1.476738369184592329e+03 4.977973607823544221e-04
1.477638819409704865e+03 5.005791334449413146e-04
1.478539269634817401e+03 4.988817318031215286e-04
1.479439719859929937e+03 4.907742764676797237e-04
1.480340170085042473e+03 4.787223763086172440e-04
1.481240620310155009e+03 4.679685571739841720e-04
1.482141070535267545e+03 4.618701904278689160e-04
1.483041520760380081e+03 4.601045350711379755e-04
1.483941970985492617e+03 4.571615908410677854e-04
1.484842421210605153e+03 4.487103432296065796e-04
1.485742871435717689e+03 4.355105906673861597e-04
1.486643321660830452e+03 4.245983635172277562e-04
1.487543771885942988e+03 4.191517687066421082e-04
1.488444222111055524e+03 4.203004874141671033e-04
1.489344672336168060e+03 4.247252801373056969e-04
1.490245122561280596e+03 4.324405318735094548e-04
1.491145572786393132e+03 4.447925268956674566e-04
1.492046023011505667e+03 4.525927877395061454e-04
1.492946473236618203e+03 4.500883826559132672e-04
1.493846923461730739e+03 4.391093719482788444e-04
1.494747373686843275e+03 4.266269544293512981e-04
1.495647823911955811e+03 4.214376298046365404e-04
1.496548274137068574e+03 4.240319901048026220e-04
1.497448724362181110e+03 4.305452581419233699e-04
1.498349174587293646e+03 4.373521603057675309e-04
1.499249624812406182e+03 4.416940228814607945e-04
1.500150075037518718e+03 4.463550382833630838e-04
1.501050525262631254e+03 4.520367621222804388e-04
1.501950975487743790e+03 4.543276759932629149e-04
1.502851425712856326e+03 4.534187387702485095e-04
1.503751875937968862e+03 4.500239648268974913e-04
1.504652326163081398e+03 4.416332491344638505e-04
1.505552776388193934e+03 4.283516900586917123e-04
1.506453226613306470e+03 4.141864233747203001e-04
1.507353676838419233e+03 4.041452388346209856e-04
1.508254127063531769e+03 3.982094560441845209e-04
1.509154577288644305e+03 3.956653043935155073e-04
1.510055027513756841e+03 3.972291101901009956e-04
1.510955477738869376e+03 4.035922466325041679e-04
1.511855927963981912e+03 4.133086155444459070e-04
1.512756378189094448e+03 4.236429440422229283e-04
1.513656828414206984e+03 4.256832966456950925e-04
1.514557278639319520e+03 4.191766210117948304e-04
1.515457728864432056e+03 4.142968127322290968e-04
1.516358179089544592e+03 4.083947973026769715e-04
1.517258629314657355e+03 3.987440761794806138e-04
1.518159079539769891e+03 3.919335917600360090e-04
1.519059529764882427e+03 3.913285983840530057e-04
1.519959979989994963e+03 3.925029468561180650e-04
1.520860430215107499e+03 3.893129054551635942e-04
1.521760880440220035e+03 3.829495993764605146e-04
1.522661330665332571e+03 3.806703933532769248e-04
1.523561780890445107e+03 3.848708028447278659e-04
1.524462231115557643e+03 3.924623068191079324e-04
1.525362681340670179e+03 3.999157517442205657e-04
1.526263131565782714e+03 4.042331255435786157e-04
1.527163581790895478e+03 4.059364606611459182e-04
1.528064032016008014e+03 4.118714781555308634e-04
1.528964482241120550e+03 4.287915269458670762e-04
1.529864932466233086e+03 4.466881073134762372e-04
1.530765382691345621e+03 4.554513201344717751e-04
1.531665832916458157e+03 4.581010861056327528e-04
1.532566283141570693e+03 4.553427124456403707e-04
1.533466733366683229e+03 4.484588419688836057e-04
1.534367183591795765e+03 4.472184216158128865e-04
1.535267633816908301e+03 4.544900788796380040e-04
1.536168084042020837e+03 4.697253644112273693e-04
1.537068534267133600e+03 4.985405832243708238e-04
1.537968984492246136e+03 5.457113007156563084e-04
1.538869434717358672e+03 6.229488991072961151e-04
1.539769884942471208e+03 7.519412010204404220e-04
1.540670335167583744e+03 9.084358833447414008e-04
1.541570785392696280e+03 1.036921541883386580e-03
1.542471235617808816e+03 1.122761222176203331e-03
1.543371685842921352e+03 1.162088129063821185e-03
1.544272136068033888e+03 1.076389608203329792e-03
1.545172586293146423e+03 8.342698641229347786e-04
1.546073036518258959e+03 5.832787360407755374e-04
1.546973486743371723e+03 4.118847308576770606e-04
1.547873936968484259e+03 3.085703536928972174e-04
1.548774387193596795e+03 2.477054572859110427e-04
1.549674837418709330e+03 2.116350903933463207e-04
1.550575287643821866e+03 1.843715742179599518e-04
1.551475737868934402e+03 1.568773171728514145e-04
1.552376188094046938e+03 1.337369890805077850e-04
1.553276638319159474e+03 1.169386597366067732e-04
1.554177088544272010e+03 1.049626903820811632e-04
1.555077538769384546e+03 9.639932302613934869e-05
1.555977988994497082e+03 9.054094987535035624e-05
1.556878439219609618e+03 8.722307888213929326e-05
1.557778889444722381e+03 8.609955206442645775e-05
1.558679339669834917e+03 8.431357421018896342e-05
1.559579789894947453e+03 7.845438471493732066e-05
1.560480240120059989e+03 7.145448072688612498e-05
1.561380690345172525e+03 6.595304878391933809e-05
1.562281140570285061e+03 6.188673327968005568e-05
1.563181590795397597e+03 5.875091210397116623e-05
1.564082041020510133e+03 5.620756794773116839e-05
1.564982491245622668e+03 5.406303317388916661e-05
1.565882941470735204e+03 5.220412470659996964e-05
1.566783391695847740e+03 5.056076198519998460e-05
1.567683841920960504e+03 4.908681128498806618e-05
1.568584292146073039e+03 4.775019750049304651e-05
1.569484742371185575e+03 4.652757819796626837e-05
1.570385192596298111e+03 4.540132446388054206e-05
1.571285642821410647e+03 4.435771984905371968e-05
1.572186093046523183e+03 4.338583353869939938e-05
1.573086543271635719e+03 4.247678432705229162e-05
1.573986993496748255e+03 4.162324114799569415e-05
1.574887443721860791e+03 4.081907261544247782e-05
1.575787893946973327e+03 4.005909388206099688e-05
1.576688344172085863e+03 3.933887915455125747e-05
1.577588794397198626e+03 3.865461980612023895e-05
1.578489244622311162e+03 3.800301497917791377e-05
1.579389694847423698e+03 3.738118587034994770e-05
1.580290145072536234e+03 3.678660762667185447e-05
1.581190595297648770e+03 3.621705457132450565e-05
1.582091045522761306e+03 3.567055567650759046e-05
1.582991495747873842e+03 3.514535802301648295e-05
1.583891945972986377e+03 3.463989656115266908e-05
1.584792396198098913e+03 3.415276889757108182e-05
1.585692846423211449e+03 3.368271412992956883e-05
1.586593296648323985e+03 3.322859497013057095e-05
1.587493746873436749e+03 3.278938256047343307e-05
1.588394197098549284e+03 3.236414351072602533e-05
1.589294647323661820e+03 3.195202877881687606e-05
1.590195097548774356e+03 3.155226409109102866e-05
1.591095547773886892e+03 3.116414165528330323e-05
1.591995997998999428e+03 3.078701296445299256e-05
1.592896448224111964e+03 3.042028252594524893e-05
1.593796898449224500e+03 3.006340237811852613e-05
1.594697348674337036e+03 2.971586728069977061e-05
1.595597798899449572e+03 2.937721048336496674e-05
1.596498249124562108e+03 2.904699999245928061e-05
1.597398699349674871e+03 2.872483526831450700e-05
1.598299149574787407e+03 2.841034429598568713e-05
1.599199599799899943e+03 2.810318098079917279e-05
1.600100050025012479e+03 2.780302282726426362e-05
1.601000500250125015e+03 2.750956886586038646e-05
1.601900950475237551e+03 2.722253779723435922e-05
1.602801400700350086e+03 2.694166632756285704e-05
1.603701850925462622e+03 2.666670767241036193e-05
1.604602301150575158e+03 2.639743020944337144e-05
1.605502751375687694e+03 2.613361626294315751e-05
1.606403201600800230e+03 2.587506100525966359e-05
1.607303651825912766e+03 2.562157146224323617e-05
1.608204102051025529e+03 2.537296561130311231e-05
1.609104552276138065e+03 2.512907156214461696e-05
1.610005002501250601e+03 2.488972681143627349e-05
1.610905452726363137e+03 2.465477756370600351e-05
1.611805902951475673e+03 2.442407811166675763e-05
1.612706353176588209e+03 2.419749026996035341e-05
1.613606803401700745e+03 2.397488285699291347e-05
1.614507253626813281e+03 2.375613122013724182e-05
1.615407703851925817e+03 2.354111680009649460e-05
1.616308154077038353e+03 2.332972673068747882e-05
1.617208604302150889e+03 2.312185347070468022e-05
1.618109054527263652e+03 2.291739446487851080e-05
1.619009504752376188e+03 2.271625183126159761e-05
1.619909954977488724e+03 2.251833207264341419e-05
1.620810405202601260e+03 2.232354580985148438e-05
1.621710855427713796e+03 2.213180753500121838e-05
1.622611305652826331e+03 2.194303538295937962e-05
1.623511755877938867e+03 2.175715091945389041e-05
1.624412206103051403e+03 2.157407894441263602e-05
1.625312656328163939e+03 2.139374730925458869e-05
1.626213106553276475e+03 2.121608674697666544e-05
1.627113556778389011e+03 2.104103071398655424e-05
1.628014007003501774e+03 2.086851524273009771e-05
1.628914457228614310e+03 2.069847880425243180e-05
1.629814907453726846e+03 2.053086217990349229e-05
1.630715357678839382e+03 2.036560834147690662e-05
1.631615807903951918e+03 2.020266233912761610e-05
1.632516258129064454e+03 2.004197119647723683e-05
1.633416708354176990e+03 1.988348381236120917e-05
1.634317158579289526e+03 1.972715086872414610e-05
1.635217608804402062e+03 1.957292474420777148e-05
1.636118059029514598e+03 1.942075943301851970e-05
1.637018509254627133e+03 1.927061046868891906e-05
1.637918959479739897e+03 1.912243485238790454e-05
1.638819409704852433e+03 1.897619098545495189e-05
1.639719859929964969e+03 1.883183860586677222e-05
1.640620310155077505e+03 1.868933872835791020e-05
1.641520760380190040e+03 1.854865358795440734e-05
1.642421210605302576e+03 1.840974658668030839e-05
1.643321660830415112e+03 1.827258224323083282e-05
1.644222111055527648e+03 1.813712614541232191e-05
1.645122561280640184e+03 1.800334490516864152e-05
1.646023011505752720e+03 1.787120611602484755e-05
1.646923461730865256e+03 1.774067831279444525e-05
1.647823911955978019e+03 1.761173093340509156e-05
1.648724362181090555e+03 1.748433428270846862e-05
1.649624812406203091e+03 1.735845949815180371e-05
1.650525262631315627e+03 1.723407851719801405e-05
1.651425712856428163e+03 1.711116404638043212e-05
1.652326163081540699e+03 1.698968953190341016e-05
1.653226613306653235e+03 1.686962913168746817e-05
1.654127063531765771e+03 1.675095768877691137e-05
1.655027513756878307e+03 1.663365070603077715e-05
1.655927963981990843e+03 1.651768432201908274e-05
1.656828414207103378e+03 1.640303528805964680e-05
1.657728864432216142e+03 1.628968094632349733e-05
1.658629314657328678e+03 1.617759920895662419e-05
1.659529764882441214e+03 1.606676853815441672e-05
1.660430215107553749e+03 1.595716792713907571e-05
1.661330665332666285e+03 1.584877688198948280e-05
1.662231115557778821e+03 1.574157540427783137e-05
1.663131565782891357e+03 1.563554397446886165e-05
1.664032016008003893e+03 1.553066353603991059e-05
1.664932466233116429e+03 1.542691548028670952e-05
1.665832916458228965e+03 1.532428163177457006e-05
1.666733366683341501e+03 1.522274423440541550e-05
1.667633816908454037e+03 1.512228593806669840e-05
1.668534267133566800e+03 1.502288978583214834e-05
1.669434717358679336e+03 1.492453920168906915e-05
1.670335167583791872e+03 1.482721797876130293e-05
1.671235617808904408e+03 1.473091026800857054e-05
1.672136068034016944e+03 1.463560056737393301e-05
1.673036518259129480e+03 1.454127371136025332e-05
1.673936968484242016e+03 1.444791486101432820e-05
1.674837418709354552e+03 1.435550949429835968e-05
1.675737868934467087e+03 1.426404339683150388e-05
1.676638319159579623e+03 1.417350265298253683e-05
1.677538769384692159e+03 1.408387363729909404e-05
1.678439219609804923e+03 1.399514300625604831e-05
1.679339669834917459e+03 1.390729769030972237e-05
1.680240120060029994e+03 1.382032488624276590e-05
1.681140570285142530e+03 1.373421204978814184e-05
1.682041020510255066e+03 1.364894688851767661e-05
1.682941470735367602e+03 1.356451735498588066e-05
1.683841920960480138e+03 1.348091164011463643e-05
1.684742371185592674e+03 1.339811816681192653e-05
1.685642821410705210e+03 1.331612558381111073e-05
1.686543271635817746e+03 1.323492275972342139e-05
1.687443721860930282e+03 1.315449877729357243e-05
1.688344172086043045e+03 1.307484292785000786e-05
1.689244622311155581e+03 1.299594470594232269e-05
1.690145072536268117e+03 1.291779380415725694e-05
1.691045522761380653e+03 1.284038010810543799e-05
1.691945972986493189e+03 1.276369369157420402e-05
1.692846423211605725e+03 1.268772481183624428e-05
1.693746873436718261e+03 1.261246390511114405e-05
1.694647323661830796e+03 1.253790158217168752e-05
1.695547773886943332e+03 1.246402862408956365e-05
1.696448224112055868e+03 1.239083597811522007e-05
1.697348674337168404e+03 1.231831475368728245e-05
1.698249124562281168e+03 1.224645621856414488e-05
1.699149574787393703e+03 1.217525179507655555e-05
1.700050025012506239e+03 1.210469305649356242e-05
1.700950475237618775e+03 1.203477172349890535e-05
1.701850925462731311e+03 1.196547966077285187e-05
1.702751375687843847e+03 1.189680887367795550e-05
1.703651825912956383e+03 1.182875150504058123e-05
1.704552276138068919e+03 1.176129983202907417e-05
1.705452726363181455e+03 1.169444626312236238e-05
1.706353176588293991e+03 1.162818333516621254e-05
1.707253626813406527e+03 1.156250371051500191e-05
1.708154077038519290e+03 1.149740017425433628e-05
1.709054527263631826e+03 1.143286563150349565e-05
1.709954977488744362e+03 1.136889310479285765e-05
1.710855427713856898e+03 1.130547573151543962e-05
1.711755877938969434e+03 1.124260676144883260e-05
1.712656328164081970e+03 1.118027955434617863e-05
1.713556778389194506e+03 1.111848757759247295e-05
1.714457228614307041e+03 1.105722440392502382e-05
1.715357678839419577e+03 1.099648370921551373e-05
1.716258129064532113e+03 1.093625927031191360e-05
1.717158579289644649e+03 1.087654496293727013e-05
1.718059029514757185e+03 1.081733475964502761e-05
1.718959479739869948e+03 1.075862272782834630e-05
1.719859929964982484e+03 1.070040302777973294e-05
1.720760380190095020e+03 1.064266991080412743e-05
1.721660830415207556e+03 1.058541771737747188e-05
1.722561280640320092e+03 1.052864087535539514e-05
1.723461730865432628e+03 1.047233389822586687e-05
1.724362181090545164e+03 1.041649138340640038e-05
1.725262631315657700e+03 1.036110801058525047e-05
1.726163081540770236e+03 1.030617854010239122e-05
1.727063531765882772e+03 1.025169781137274557e-05
1.727963981990995308e+03 1.019766074134660800e-05
1.728864432216108071e+03 1.014406232300924432e-05
1.729764882441220607e+03 1.009089762391682569e-05
1.730665332666333143e+03 1.003816178476763986e-05
1.731565782891445679e+03 9.985850018007991894e-06
1.732466233116558215e+03 9.933957606471914925e-06
1.733366683341670750e+03 9.882479902053041180e-06
1.734267133566783286e+03 9.831412324408262080e-06
1.735167583791895822e+03 9.780750359691507158e-06
1.736068034017008358e+03 9.730489559317929770e-06
1.736968484242120894e+03 9.680625538756719122e-06
1.737868934467233430e+03 9.631153976351674656e-06
1.738769384692346193e+03 9.582070612169364909e-06
1.739669834917458729e+03 9.533371246873612154e-06
1.740570285142571265e+03 9.485051740625967401e-06
1.741470735367683801e+03 9.437108012010446119e-06
1.742371185592796337e+03 9.389536036983525864e-06
1.743271635817908873e+03 9.342331847847105278e-06
1.744172086043021409e+03 9.295491532244753104e-06
1.745072536268133945e+03 9.249011232179991923e-06
1.745972986493246481e+03 9.202887143056706382e-06
1.746873436718359017e+03 9.157115512740517186e-06
1.747773886943471553e+03 9.111692640640605857e-06
1.748674337168584316e+03 9.066614876811617555e-06
1.749574787393696852e+03 9.021878621075404804e-06
1.750475237618809388e+03 8.977480322161112867e-06
1.751375687843921924e+03 8.933416476864087890e-06
1.752276138069034459e+03 8.889683629223052151e-06
1.753176588294146995e+03 8.846278369714280967e-06
1.754077038519259531e+03 8.803197334462823585e-06
1.754977488744372067e+03 8.760437204471142465e-06
1.755877938969484603e+03 8.717994704862624771e-06
1.756778389194597139e+03 8.675866604142244573e-06
1.757678839419709675e+03 8.634049713471631402e-06
1.758579289644822438e+03 8.592540885959370136e-06
1.759479739869934974e+03 8.551337015966427210e-06
1.760380190095047510e+03 8.510435038424888791e-06
1.761280640320160046e+03 8.469831928171318747e-06
1.762181090545272582e+03 8.429524699293581042e-06
1.763081540770385118e+03 8.389510404490371027e-06
1.763981990995497654e+03 8.349786134444067158e-06
1.764882441220610190e+03 8.310349017206245865e-06
1.765782891445722726e+03 8.271196217595026077e-06
1.766683341670835262e+03 8.232324936604582232e-06
1.767583791895947797e+03 8.193732410826915535e-06
1.768484242121060333e+03 8.155415911883696448e-06
1.769384692346173097e+03 8.117372745870406092e-06
1.770285142571285633e+03 8.079600252810987640e-06
1.771185592796398169e+03 8.042095806123016158e-06
1.772086043021510704e+03 8.004856812093163291e-06
1.772986493246623240e+03 7.967880709362709448e-06
1.773886943471735776e+03 7.931164968423754018e-06
1.774787393696848312e+03 7.894707091123646884e-06
1.775687843921960848e+03 7.858504610180006161e-06
1.776588294147073384e+03 7.822555088704418008e-06
1.777488744372185920e+03 7.786856119735421637e-06
1.778389194597298456e+03 7.751405325780010366e-06
1.779289644822411219e+03 7.716200358363614883e-06
1.780190095047523755e+03 7.681238897589163296e-06
1.781090545272636291e+03 7.646518651703523939e-06
1.781990995497748827e+03 7.612037356672555713e-06
1.782891445722861363e+03 7.577792775763530159e-06
1.783791895947973899e+03 7.543782699135788395e-06
1.784692346173086435e+03 7.510004943438310671e-06
1.785592796398198971e+03 7.476457351415183674e-06
1.786493246623311506e+03 7.443137791517634875e-06
1.787393696848424042e+03 7.410044157523732519e-06
1.788294147073536578e+03 7.377174368164360442e-06
1.789194597298649342e+03 7.344526366756295260e-06
1.790095047523761878e+03 7.312098120841850594e-06
1.790995497748874413e+03 7.279887621834547947e-06
1.791895947973986949e+03 7.247892884671723926e-06
1.792796398199099485e+03 7.216111947472659277e-06
1.793696848424212021e+03 7.184542871203150446e-06
1.794597298649324557e+03 7.153183739345769818e-06
1.795497748874437093e+03 7.122032657576154291e-06
1.796398199099549629e+03 7.091087753444536979e-06
1.797298649324662165e+03 7.060347176063359767e-06
1.798199099549774701e+03 7.029809095799728355e-06
1.799099549774887464e+03 6.999471703973526325e-06
1.800000000000000000e+03 6.969333212560731691e-06
