0.000000000000000000e+00 6.629596956011701630e-04
9.004502251125562351e-01 8.616530487065308724e-04
1.800900450225112470e+00 1.046951579235018198e-03
2.701350675337668594e+00 1.128366883620571248e-03
3.601800900450224940e+00 1.085150071431742252e-03
4.502251125562780842e+00 1.006001255920391723e-03
5.402701350675337189e+00 9.744534253938750895e-04
6.303151575787893535e+00 1.008420312082085758e-03
7.203601800900449881e+00 1.060095284366538828e-03
8.104052026013006227e+00 1.045040308972426755e-03
9.004502251125561685e+00 9.299664349446167336e-04
9.904952476238118919e+00 7.586797593164932045e-04
1.080540270135067438e+01 5.882817158944268158e-04
1.170585292646323161e+01 4.497421957953210282e-04
1.260630315157578707e+01 3.471869260412462684e-04
1.350675337668834430e+01 2.733556981173401691e-04
1.440720360180089976e+01 2.199959529330173635e-04
1.530765382691345522e+01 1.808346338305549057e-04
1.620810405202601245e+01 1.515781901770949425e-04
1.710855427713856969e+01 1.293072714928735119e-04
1.800900450225112337e+01 1.119338873688190502e-04
1.890945472736368060e+01 9.796572656400076465e-05
1.980990495247623784e+01 8.648379622579175263e-05
2.071035517758879507e+01 7.696017940103738275e-05
2.161080540270134875e+01 6.901610431135999648e-05
2.251125562781390599e+01 6.224469223275899774e-05
2.341170585292646322e+01 5.629028211598205596e-05
2.431215607803901690e+01 5.108054553887450365e-05
2.521260630315157414e+01 4.667024529081828185e-05
2.611305652826413137e+01 4.302174895963033094e-05
2.701350675337668861e+01 3.999653148351727943e-05
2.791395697848924229e+01 3.740029937059609019e-05
2.881440720360179952e+01 3.504030942697028964e-05
2.971485742871435676e+01 3.280607334668468014e-05
3.061530765382691044e+01 3.068071195041651274e-05
3.151575787893946767e+01 2.868117005245246143e-05
3.241620810405202491e+01 2.684233504379607017e-05
3.331665832916458214e+01 2.520162342782450251e-05
3.421710855427713938e+01 2.377430396570777421e-05
3.511755877938969661e+01 2.254810138939120472e-05
3.601800900450224674e+01 2.148415075561915593e-05
3.691845922961480397e+01 2.055276721977766408e-05
3.781890945472736121e+01 1.976378488122970187e-05
3.871935967983991844e+01 1.911641286719357311e-05
3.961980990495247568e+01 1.857986600115434507e-05
4.052026013006503291e+01 1.815310941676449144e-05
4.142071035517759015e+01 1.785322679750724750e-05
4.232116058029014027e+01 1.767234184011709503e-05
4.322161080540269751e+01 1.758558416108928094e-05
4.412206103051525474e+01 1.753025840941511889e-05
4.502251125562781198e+01 1.741915562780790944e-05
4.592296148074036921e+01 1.721272914530710081e-05
4.682341170585292645e+01 1.699368946075486720e-05
4.772386193096548368e+01 1.687800597698135765e-05
4.862431215607803381e+01 1.688868429492479287e-05
4.952476238119059104e+01 1.695056287592953658e-05
5.042521260630314828e+01 1.693479326978323621e-05
5.132566283141570551e+01 1.677196523505115728e-05
5.222611305652826275e+01 1.655492541253665800e-05
5.312656328164081998e+01 1.641849654994823103e-05
5.402701350675337721e+01 1.638101378723415261e-05
5.492746373186592734e+01 1.639636871806020421e-05
5.582791395697848458e+01 1.645548206171160792e-05
5.672836418209104181e+01 1.659240763892960312e-05
5.762881440720359905e+01 1.675448017076212903e-05
5.852926463231615628e+01 1.672033900035838964e-05
5.942971485742871351e+01 1.641450625854537547e-05
6.033016508254127075e+01 1.604376465836544383e-05
6.123061530765382088e+01 1.580153536011222231e-05
6.213106553276637811e+01 1.573462302176317971e-05
6.303151575787893535e+01 1.579897007581554093e-05
6.393196598299149258e+01 1.590580411786519401e-05
6.483241620810404982e+01 1.595889892767234577e-05
6.573286643321659994e+01 1.594652064563860773e-05
6.663331665832916428e+01 1.591106585410212340e-05
6.753376688344171441e+01 1.586269888047191163e-05
6.843421710855427875e+01 1.580829739945721176e-05
6.933466733366682888e+01 1.579755011125089892e-05
7.023511755877939322e+01 1.592036956976426354e-05
7.113556778389194335e+01 1.626862765799355973e-05
7.203601800900449348e+01 1.682918331797262940e-05
7.293646823411705782e+01 1.742557465653944907e-05
7.383691845922960795e+01 1.785581721122215225e-05
7.473736868434217229e+01 1.808490984942107013e-05
7.563781890945472242e+01 1.822496565298020296e-05
7.653826913456728676e+01 1.838866827706711786e-05
7.743871935967983688e+01 1.862065862999667321e-05
7.833916958479238701e+01 1.882953268293482925e-05
7.923961980990495135e+01 1.885200555513474348e-05
8.014007003501750148e+01 1.863689140294250729e-05
8.104052026013006582e+01 1.834391598366375608e-05
8.194097048524261595e+01 1.811734664093092812e-05
8.284142071035518029e+01 1.791513351427657323e-05
8.374187093546773042e+01 1.758758669433487806e-05
8.464232116058028055e+01 1.713049592607994337e-05
8.554277138569284489e+01 1.675699008023333751e-05
8.644322161080539502e+01 1.664835474257902841e-05
8.734367183591795936e+01 1.683180088835239724e-05
8.824412206103050949e+01 1.728972066699965477e-05
8.914457228614307382e+01 1.795528258855925245e-05
9.004502251125562395e+01 1.856679866158371408e-05
9.094547273636817408e+01 1.888231341756387778e-05
9.184592296148073842e+01 1.902025976951322986e-05
9.274637318659328855e+01 1.926741749830712918e-05
9.364682341170585289e+01 1.969920331254758938e-05
9.454727363681840302e+01 2.005628846461900852e-05
9.544772386193096736e+01 2.001937500047023719e-05
9.634817408704351749e+01 1.963380712421225287e-05
9.724862431215606762e+01 1.920788541093745684e-05
9.814907453726863196e+01 1.899126136545754105e-05
9.904952476238118209e+01 1.904994147226472492e-05
9.994997498749374643e+01 1.933110972914185802e-05
1.008504252126062966e+02 1.979379838101058968e-05
1.017508754377188609e+02 2.044177976561669660e-05
1.026513256628314110e+02 2.127301565264953694e-05
1.035517758879439612e+02 2.216409308535109972e-05
1.044522261130565255e+02 2.277633078697598992e-05
1.053526763381690756e+02 2.280289310689733232e-05
1.062531265632816400e+02 2.229701951559013960e-05
1.071535767883941901e+02 2.160100961307366855e-05
1.080540270135067544e+02 2.111914069479593439e-05
1.089544772386193046e+02 2.101304075173394425e-05
1.098549274637318547e+02 2.111213738225053808e-05
1.107553776888444190e+02 2.122056216453531733e-05
1.116558279139569692e+02 2.135991654010386287e-05
1.125562781390695335e+02 2.162137148677724792e-05
1.134567283641820836e+02 2.194108551863145466e-05
1.143571785892946480e+02 2.202627939863022422e-05
1.152576288144071981e+02 2.168011390059022546e-05
1.161580790395197482e+02 2.108993136462456412e-05
1.170585292646323126e+02 2.059148070641880974e-05
1.179589794897448627e+02 2.037527704612407967e-05
1.188594297148574270e+02 2.047320159187448896e-05
1.197598799399699772e+02 2.088747630438398368e-05
1.206603301650825415e+02 2.161202726858983071e-05
1.215607803901950916e+02 2.261191200133276801e-05
1.224612306153076418e+02 2.378457339152904219e-05
1.233616808404202061e+02 2.482740257174006433e-05
1.242621310655327562e+02 2.535669358440177765e-05
1.251625812906453206e+02 2.528965651959215715e-05
1.260630315157578707e+02 2.486734633911411352e-05
1.269634817408704350e+02 2.437237075265487801e-05
1.278639319659829852e+02 2.396472078322125175e-05
1.287643821910955353e+02 2.368162607360071027e-05
1.296648324162080996e+02 2.350374469622531446e-05
1.305652826413206640e+02 2.337896290329511550e-05
1.314657328664331999e+02 2.321849828330226745e-05
1.323661830915457642e+02 2.306734299258783778e-05
1.332666333166583286e+02 2.313449638865324725e-05
1.341670835417708929e+02 2.345682116166754373e-05
1.350675337668834288e+02 2.385192021048154385e-05
1.359679839919959932e+02 2.416711252244869594e-05
1.368684342171085575e+02 2.428139487238118195e-05
1.377688844422210934e+02 2.414139182041867841e-05
1.386693346673336578e+02 2.386453292717320349e-05
1.395697848924462221e+02 2.359499972999600360e-05
1.404702351175587864e+02 2.330811762439923210e-05
1.413706853426713224e+02 2.293440921807123075e-05
1.422711355677838867e+02 2.266130146800780288e-05
1.431715857928964510e+02 2.277487122476157331e-05
1.440720360180089870e+02 2.328005675293077224e-05
1.449724862431215513e+02 2.385820169957868109e-05
1.458729364682341156e+02 2.418168429874264087e-05
1.467733866933466800e+02 2.418058062876295034e-05
1.476738369184592159e+02 2.401404777687454929e-05
1.485742871435717802e+02 2.395739140800527163e-05
1.494747373686843446e+02 2.421991311542733851e-05
1.503751875937968805e+02 2.469685136071545864e-05
1.512756378189094448e+02 2.502519842483574445e-05
1.521760880440220092e+02 2.502345491627019222e-05
1.530765382691345735e+02 2.484327642057219132e-05
1.539769884942471094e+02 2.471007695134687428e-05
1.548774387193596738e+02 2.474668255328636859e-05
1.557778889444722381e+02 2.492584571805241556e-05
1.566783391695847740e+02 2.512597240622018254e-05
1.575787893946973384e+02 2.524878190610607118e-05
1.584792396198099027e+02 2.528940711069453592e-05
1.593796898449224670e+02 2.534712301364244771e-05
1.602801400700350030e+02 2.558326458777068128e-05
1.611805902951475673e+02 2.612537153776259326e-05
1.620810405202601316e+02 2.695751991044282569e-05
1.629814907453726676e+02 2.791232853206157774e-05
1.638819409704852319e+02 2.876502047092389252e-05
1.647823911955977962e+02 2.934174166808264730e-05
1.656828414207103606e+02 2.969534923063631504e-05
1.665832916458228965e+02 3.005202156130319817e-05
1.674837418709354608e+02 3.061202057825834679e-05
1.683841920960480252e+02 3.134035726430403889e-05
1.692846423211605611e+02 3.195069692843770047e-05
1.701850925462731254e+02 3.215447688237633165e-05
1.710855427713856898e+02 3.189032201882515354e-05
1.719859929964982541e+02 3.144055911203264979e-05
1.728864432216107900e+02 3.117605204649101936e-05
1.737868934467233544e+02 3.113725963315153633e-05
1.746873436718359187e+02 3.113891849509736135e-05
1.755877938969484546e+02 3.114248116051105970e-05
1.764882441220610190e+02 3.129514359579604524e-05
1.773886943471735833e+02 3.166963248381661364e-05
1.782891445722861476e+02 3.216884084750970362e-05
1.791895947973986836e+02 3.266682236384610318e-05
1.800900450225112479e+02 3.321316170777098889e-05
1.809904952476238122e+02 3.392560977451774905e-05
1.818909454727363482e+02 3.463550448859603593e-05
1.827913956978489125e+02 3.497635986154530563e-05
1.836918459229614768e+02 3.487433523194740422e-05
1.845922961480740412e+02 3.450963006495971682e-05
1.854927463731865771e+02 3.400841363401328873e-05
1.863931965982991414e+02 3.350141291686709050e-05
1.872936468234117058e+02 3.307834729543443291e-05
1.881940970485242417e+02 3.274252364917390777e-05
1.890945472736368060e+02 3.254962975142485908e-05
1.899949974987493704e+02 3.249389668425326552e-05
1.908954477238619347e+02 3.244059299181906094e-05
1.917958979489744706e+02 3.230481391579934249e-05
1.926963481740870350e+02 3.201806988788015516e-05
1.935967983991995993e+02 3.156490951177633560e-05
1.944972486243121352e+02 3.111894207008750342e-05
1.953976988494246996e+02 3.076278148195090936e-05
1.962981490745372639e+02 3.044970233888159850e-05
1.971985992996498283e+02 3.036252975341138027e-05
1.980990495247623642e+02 3.074692997668105156e-05
1.989994997498749285e+02 3.143176646654670940e-05
1.998999499749874929e+02 3.196551557248381096e-05
2.008004002001000288e+02 3.210895052615031432e-05
2.017008504252125931e+02 3.194732160797515263e-05
2.026013006503251574e+02 3.150541977786436239e-05
2.035017508754377218e+02 3.070191655183208062e-05
2.044022011005502577e+02 2.965650842427276050e-05
2.053026513256628220e+02 2.857148752944806765e-05
2.062031015507753864e+02 2.763173041964295517e-05
2.071035517758879223e+02 2.711726802058213949e-05
2.080040020010004866e+02 2.718123553111631132e-05
2.089044522261130510e+02 2.773008228479277663e-05
2.098049024512256153e+02 2.854744496058600543e-05
2.107053526763381512e+02 2.931338547146007857e-05
2.116058029014507156e+02 2.974527518489684634e-05
2.125062531265632799e+02 2.983398707234758150e-05
2.134067033516758158e+02 2.968437040495543170e-05
2.143071535767883802e+02 2.938611284277389880e-05
2.152076038019009445e+02 2.907051072249125655e-05
2.161080540270135089e+02 2.893178750666577204e-05
2.170085042521260448e+02 2.906589053223030466e-05
2.179089544772386091e+02 2.941686133747507980e-05
2.188094047023511735e+02 2.990478172291121596e-05
2.197098549274637094e+02 3.041644599010449849e-05
2.206103051525762737e+02 3.074382868068125182e-05
2.215107553776888381e+02 3.075171862851562631e-05
2.224112056028014024e+02 3.052697942497754804e-05
2.233116558279139383e+02 3.024189225405949659e-05
2.242121060530265027e+02 3.008656154742214472e-05
2.251125562781390670e+02 3.013393128503252046e-05
2.260130065032516029e+02 3.027172997217262540e-05
2.269134567283641672e+02 3.042161755124451900e-05
2.278139069534767316e+02 3.060161316527370304e-05
2.287143571785892959e+02 3.080998873914790435e-05
2.296148074037018318e+02 3.097662240502264529e-05
2.305152576288143962e+02 3.108733458611927702e-05
2.314157078539269605e+02 3.123800301414938346e-05
2.323161580790394964e+02 3.145585561229194361e-05
2.332166083041520608e+02 3.164955020419868382e-05
2.341170585292646251e+02 3.173123045389716776e-05
2.350175087543771895e+02 3.176724423063502002e-05
2.359179589794897254e+02 3.192020325512650799e-05
2.368184092046022897e+02 3.219165828013689990e-05
2.377188594297148541e+02 3.258516807705205979e-05
2.386193096548273900e+02 3.323089510699354297e-05
2.395197598799399543e+02 3.405478411424350186e-05
2.404202101050525187e+02 3.472226875568651242e-05
2.413206603301650830e+02 3.504488017894756091e-05
2.422211105552776189e+02 3.513291977524413584e-05
2.431215607803901833e+02 3.512923317550745535e-05
2.440220110055027476e+02 3.513313827987839645e-05
2.449224612306152835e+02 3.532009102138994978e-05
2.458229114557278479e+02 3.578670902803121238e-05
2.467233616808404122e+02 3.639042534435044823e-05
2.476238119059529765e+02 3.682347240727560701e-05
2.485242621310655124e+02 3.688209928921882494e-05
2.494247123561780768e+02 3.670811231970811490e-05
2.503251625812906411e+02 3.671534291022148877e-05
2.512256128064031770e+02 3.725049322454427307e-05
2.521260630315157414e+02 3.824801800193141770e-05
2.530265132566283057e+02 3.936993125274663080e-05
2.539269634817408701e+02 4.037888492659283786e-05
2.548274137068534060e+02 4.118328961982085093e-05
2.557278639319659703e+02 4.167397210926301963e-05
2.566283141570785347e+02 4.184056982214174811e-05
2.575287643821910706e+02 4.186661622097817049e-05
2.584292146073036633e+02 4.190933038506009103e-05
2.593296648324161993e+02 4.197406291384258751e-05
2.602301150575287352e+02 4.202650516349368476e-05
2.611305652826413279e+02 4.192854440596182133e-05
2.620310155077538639e+02 4.146909016843510203e-05
2.629314657328663998e+02 4.072069846348862161e-05
2.638319159579789925e+02 4.008562837883013018e-05
2.647323661830915285e+02 4.000837990803734828e-05
2.656328164082040644e+02 4.064760566480980124e-05
2.665332666333166571e+02 4.178295823370714547e-05
2.674337168584291931e+02 4.305357481720579278e-05
2.683341670835417858e+02 4.418767809202625059e-05
2.692346173086543217e+02 4.498589329317148605e-05
2.701350675337668577e+02 4.526984882283984597e-05
2.710355177588794504e+02 4.490224583282844350e-05
2.719359679839919863e+02 4.391526035354337330e-05
2.728364182091045222e+02 4.267862451275911340e-05
2.737368684342171150e+02 4.180197665924602568e-05
2.746373186593296509e+02 4.156738307097973263e-05
2.755377688844421868e+02 4.185510399276350216e-05
2.764382191095547796e+02 4.245143999648572222e-05
2.773386693346673155e+02 4.324906115157241135e-05
2.782391195597798514e+02 4.428355803743327511e-05
2.791395697848924442e+02 4.552460266309647655e-05
2.800400200100049801e+02 4.682284100089258351e-05
2.809404702351175729e+02 4.806033871716099913e-05
2.818409204602301088e+02 4.926513769855982660e-05
2.827413706853426447e+02 5.044965508740129393e-05
2.836418209104552375e+02 5.148341729660199222e-05
2.845422711355677734e+02 5.222909282967759032e-05
2.854427213606803093e+02 5.277460261232632462e-05
2.863431715857929021e+02 5.336252686685830283e-05
2.872436218109054380e+02 5.395088303927763495e-05
2.881440720360179739e+02 5.427813144986088836e-05
2.890445222611305667e+02 5.415714516068631073e-05
2.899449724862431026e+02 5.386973509703539580e-05
2.908454227113556385e+02 5.414155192127120695e-05
2.917458729364682313e+02 5.534017339730386200e-05
2.926463231615807672e+02 5.696786692106380387e-05
2.935467733866933600e+02 5.826582780655758045e-05
2.944472236118058959e+02 5.898890291077661408e-05
2.953476738369184318e+02 5.898530419638245783e-05
2.962481240620310246e+02 5.824448223132670896e-05
2.971485742871435605e+02 5.725379648254658562e-05
2.980490245122560964e+02 5.632773512641723658e-05
2.989494747373686891e+02 5.549221970102844397e-05
2.998499249624812251e+02 5.487953034789593763e-05
3.007503751875937610e+02 5.451764276291835008e-05
3.016508254127063537e+02 5.428358251243421185e-05
3.025512756378188897e+02 5.408315832064724540e-05
3.034517258629314256e+02 5.382389830792416345e-05
3.043521760880440183e+02 5.357302435876300288e-05
3.052526263131565543e+02 5.346834407542507000e-05
3.061530765382691470e+02 5.344934043699139844e-05
3.070535267633816829e+02 5.341587627111007156e-05
3.079539769884942189e+02 5.340705787696153645e-05
3.088544272136068116e+02 5.337116747754680588e-05
3.097548774387193475e+02 5.307802851251915068e-05
3.106553276638318835e+02 5.257275486124184365e-05
3.115557778889444762e+02 5.228400418548934000e-05
3.124562281140570121e+02 5.243260955017659133e-05
3.133566783391695481e+02 5.290464512114633643e-05
3.142571285642821408e+02 5.356058416918198310e-05
3.151575787893946767e+02 5.434204215015578436e-05
3.160580290145072127e+02 5.510088072053766851e-05
3.169584792396198054e+02 5.554608302258872901e-05
3.178589294647323413e+02 5.578786723253959185e-05
3.187593796898449341e+02 5.618998904489608585e-05
3.196598299149574700e+02 5.676271327984381583e-05
3.205602801400700059e+02 5.732723091555346509e-05
3.214607303651825987e+02 5.786532113014424119e-05
3.223611805902951346e+02 5.846948746143111603e-05
3.232616308154076705e+02 5.910738421955165703e-05
3.241620810405202633e+02 5.959704892172052810e-05
3.250625312656327992e+02 5.999699034841484048e-05
3.259629814907453351e+02 6.057342752122050333e-05
3.268634317158579279e+02 6.136531914983587839e-05
3.277638819409704638e+02 6.210234610243772096e-05
3.286643321660829997e+02 6.237872946746035889e-05
3.295647823911955925e+02 6.200416611554709695e-05
3.304652326163081284e+02 6.114491784644333558e-05
3.313656828414207212e+02 6.017240053418772505e-05
3.322661330665332571e+02 5.946094613186770641e-05
3.331665832916457930e+02 5.914075357045821729e-05
3.340670335167583858e+02 5.908824131858614732e-05
3.349674837418709217e+02 5.928004360645557915e-05
3.358679339669834576e+02 5.980049199105930558e-05
3.367683841920960504e+02 6.057157849920403883e-05
3.376688344172085863e+02 6.111561882654080523e-05
3.385692846423211222e+02 6.083206496566486977e-05
3.394697348674337150e+02 5.982603048563795963e-05
3.403701850925462509e+02 5.879513756413793258e-05
3.412706353176587868e+02 5.829292713682188864e-05
3.421710855427713796e+02 5.836105577671872591e-05
3.430715357678839155e+02 5.872123033631089945e-05
3.439719859929965082e+02 5.913705762145970036e-05
3.448724362181090441e+02 5.937867632999766204e-05
3.457728864432215801e+02 5.904160961891157070e-05
3.466733366683341728e+02 5.796133669408410835e-05
3.475737868934467087e+02 5.646107810332652739e-05
3.484742371185592447e+02 5.509296271496088530e-05
3.493746873436718374e+02 5.436976376507240743e-05
3.502751375687843733e+02 5.441500584517960557e-05
3.511755877938969093e+02 5.494399642250927371e-05
3.520760380190095020e+02 5.564687015913613409e-05
3.529764882441220379e+02 5.632389959537167457e-05
3.538769384692345739e+02 5.672099083884562219e-05
3.547773886943471666e+02 5.673578127208589640e-05
3.556778389194597025e+02 5.646892030507660751e-05
3.565782891445722953e+02 5.612062360771562843e-05
3.574787393696848312e+02 5.603358016366104667e-05
3.583791895947973671e+02 5.644255352839277828e-05
3.592796398199099599e+02 5.733331740607032094e-05
3.601800900450224958e+02 5.843774094714539148e-05
3.610805402701350317e+02 5.925348162331591894e-05
3.619809904952476245e+02 5.918496508465477762e-05
3.628814407203601604e+02 5.821534572920328618e-05
3.637818909454726963e+02 5.691496767575754168e-05
3.646823411705852891e+02 5.560806290029060101e-05
3.655827913956978250e+02 5.426171732858103012e-05
3.664832416208103609e+02 5.298837027986065513e-05
3.673836918459229537e+02 5.222668049187151530e-05
3.682841420710354896e+02 5.226005123338751170e-05
3.691845922961480824e+02 5.287403611943201903e-05
3.700850425212606183e+02 5.362994241239581991e-05
3.709854927463731542e+02 5.420543203721800630e-05
3.718859429714857470e+02 5.454234263829226475e-05
3.727863931965982829e+02 5.486717164343756300e-05
3.736868434217108188e+02 5.534794194371716854e-05
3.745872936468234116e+02 5.577709524327996280e-05
3.754877438719359475e+02 5.587027974308285009e-05
3.763881940970484834e+02 5.564528580172256600e-05
3.772886443221610762e+02 5.536232993022983403e-05
3.781890945472736121e+02 5.519653212512702059e-05
3.790895447723861480e+02 5.506855083059531726e-05
3.799899949974987408e+02 5.482629975463317013e-05
3.808904452226112767e+02 5.458103919803359059e-05
3.817908954477238694e+02 5.451747573650636845e-05
3.826913456728364054e+02 5.447831874909037753e-05
3.835917958979489413e+02 5.428287569997238790e-05
3.844922461230615340e+02 5.398634998107150912e-05
3.853926963481740700e+02 5.364879184898362595e-05
3.862931465732866059e+02 5.329939016771953627e-05
3.871935967983991986e+02 5.297985818131405243e-05
3.880940470235117346e+02 5.275350360513512727e-05
3.889944972486242705e+02 5.262801367774412977e-05
3.898949474737368632e+02 5.268897999443080765e-05
3.907953976988493991e+02 5.308336159413430731e-05
3.916958479239619351e+02 5.368568233853936102e-05
3.925962981490745278e+02 5.433185453570921452e-05
3.934967483741870637e+02 5.501256583514951549e-05
3.943971985992996565e+02 5.555290824634170086e-05
3.952976488244121924e+02 5.570787015496261126e-05
3.961980990495247283e+02 5.538190056146033506e-05
3.970985492746373211e+02 5.455627804708933768e-05
3.979989994997498570e+02 5.338029207718116031e-05
3.988994497248623929e+02 5.210426580705283572e-05
3.997998999499749857e+02 5.094698451939431641e-05
4.007003501750875216e+02 5.014517290208019446e-05
4.016008004002000575e+02 4.974808015480162478e-05
4.025012506253126503e+02 4.953330875471357014e-05
4.034017008504251862e+02 4.937606259478239442e-05
4.043021510755377221e+02 4.937745633496459910e-05
4.052026013006503149e+02 4.961194173795972583e-05
4.061030515257628508e+02 4.994618079524579832e-05
4.070035017508754436e+02 5.005863694025527305e-05
4.079039519759879795e+02 4.960543151034400085e-05
4.088044022011005154e+02 4.861917635907854853e-05
4.097048524262131082e+02 4.750966376260411386e-05
4.106053026513256441e+02 4.671870725809001366e-05
4.115057528764381800e+02 4.647771434064115276e-05
4.124062031015507728e+02 4.663480385604150619e-05
4.133066533266633087e+02 4.689492776570855953e-05
4.142071035517758446e+02 4.722447387686349039e-05
4.151075537768884374e+02 4.778965915047615054e-05
4.160080040020009733e+02 4.856961175517532771e-05
4.169084542271135092e+02 4.930395033083558287e-05
4.178089044522261020e+02 4.978160219471147854e-05
4.187093546773386379e+02 5.014980658369596922e-05
4.196098049024512306e+02 5.078534238215417227e-05
4.205102551275637666e+02 5.185819733225583886e-05
4.214107053526763025e+02 5.312532699304514623e-05
4.223111555777888952e+02 5.408057944536518141e-05
4.232116058029014312e+02 5.438653243690784700e-05
4.241120560280139671e+02 5.409281347473101340e-05
4.250125062531265598e+02 5.347061281761420767e-05
4.259129564782390958e+02 5.284110835854593613e-05
4.268134067033516317e+02 5.245842481226285265e-05
4.277138569284642244e+02 5.238971676359245122e-05
4.286143071535767604e+02 5.252783166666739835e-05
4.295147573786892963e+02 5.282120046978728997e-05
4.304152076038018890e+02 5.333470925288721659e-05
4.313156578289144250e+02 5.401450962644919692e-05
4.322161080540270177e+02 5.461690649725361757e-05
4.331165582791395536e+02 5.484164796738893153e-05
4.340170085042520896e+02 5.469061593624519030e-05
4.349174587293646823e+02 5.448514199094248633e-05
4.358179089544772182e+02 5.448771930107293687e-05
4.367183591795897541e+02 5.481439205061572058e-05
4.376188094047023469e+02 5.549532841461684110e-05
4.385192596298148828e+02 5.638154655926969327e-05
4.394197098549274187e+02 5.714553160444150678e-05
4.403201600800400115e+02 5.766605010547178696e-05
4.412206103051525474e+02 5.814787711981853953e-05
4.421210605302650833e+02 5.856234408590782340e-05
4.430215107553776761e+02 5.862569699115807573e-05
4.439219609804902120e+02 5.831017010044641251e-05
4.448224112056028048e+02 5.786380584734186376e-05
4.457228614307153407e+02 5.744701939822844663e-05
4.466233116558278766e+02 5.712226469651267356e-05
4.475237618809404694e+02 5.699774613907124688e-05
4.484242121060530053e+02 5.718017859517342461e-05
4.493246623311655412e+02 5.758388578427047063e-05
4.502251125562781340e+02 5.796809072921762097e-05
4.511255627813906699e+02 5.819553231088431689e-05
4.520260130065032058e+02 5.822032330803189165e-05
4.529264632316157986e+02 5.795138094646611185e-05
4.538269134567283345e+02 5.736095875911841540e-05
4.547273636818408704e+02 5.675219021561110627e-05
4.556278139069534632e+02 5.658332666234724067e-05
4.565282641320659991e+02 5.692484948369704126e-05
4.574287143571785919e+02 5.744065504884943093e-05
4.583291645822911278e+02 5.779205295787789512e-05
4.592296148074036637e+02 5.805321863504882810e-05
4.601300650325162565e+02 5.846381630504399933e-05
4.610305152576287924e+02 5.896433787457736953e-05
4.619309654827413283e+02 5.938744839506594943e-05
4.628314157078539210e+02 5.967232708136499736e-05
4.637318659329664570e+02 5.993990736195522117e-05
4.646323161580789929e+02 6.049993740702427572e-05
4.655327663831915856e+02 6.149772280119516902e-05
4.664332166083041216e+02 6.269976706158139797e-05
4.673336668334167143e+02 6.367996938469215812e-05
4.682341170585292502e+02 6.409796891591755714e-05
4.691345672836417862e+02 6.393282792116636792e-05
4.700350175087543789e+02 6.354842524842883216e-05
4.709354677338669148e+02 6.334677612730455496e-05
4.718359179589794508e+02 6.349356529186557377e-05
4.727363681840920435e+02 6.406890913462730524e-05
4.736368184092045794e+02 6.507471605273122228e-05
4.745372686343171154e+02 6.638362982904336183e-05
4.754377188594297081e+02 6.760135911089014578e-05
4.763381690845422440e+02 6.804507485446046971e-05
4.772386193096547800e+02 6.749965663972146384e-05
4.781390695347673727e+02 6.658813227595759593e-05
4.790395197598799086e+02 6.599552954229747042e-05
4.799399699849925014e+02 6.583833045644794729e-05
4.808404202101050373e+02 6.566996408833688441e-05
4.817408704352175732e+02 6.507529526306345255e-05
4.826413206603301660e+02 6.418378491441859566e-05
4.835417708854427019e+02 6.342922570693323785e-05
4.844422211105552378e+02 6.302558127947453293e-05
4.853426713356678306e+02 6.282382006826918300e-05
4.862431215607803665e+02 6.257848901253795163e-05
4.871435717858929024e+02 6.217063793038097425e-05
4.880440220110054952e+02 6.167433128667552087e-05
4.889444722361180311e+02 6.132015733227959894e-05
4.898449224612305670e+02 6.137154748630101078e-05
4.907453726863431598e+02 6.189829800496895052e-05
4.916458229114556957e+02 6.267700510034013631e-05
4.925462731365682885e+02 6.336701568465162126e-05
4.934467233616808244e+02 6.377068570343707272e-05
4.943471735867933603e+02 6.386908834681938373e-05
4.952476238119059531e+02 6.388549436988880559e-05
4.961480740370184890e+02 6.412624032887538736e-05
4.970485242621310249e+02 6.456035233253913956e-05
4.979489744872436177e+02 6.495775640675118066e-05
4.988494247123561536e+02 6.518537102744576656e-05
4.997498749374686895e+02 6.522527436150672567e-05
5.006503251625812823e+02 6.508635550486252042e-05
5.015507753876938182e+02 6.481410105085931008e-05
5.024512256128063541e+02 6.454952289493346958e-05
5.033516758379189469e+02 6.456590165032727942e-05
5.042521260630314828e+02 6.509867413063364565e-05
5.051525762881440755e+02 6.589103625391314382e-05
5.060530265132566115e+02 6.636548264456844154e-05
5.069534767383691474e+02 6.631849973451667789e-05
5.078539269634817401e+02 6.605020150937424310e-05
5.087543771885942760e+02 6.597362421028265156e-05
5.096548274137068120e+02 6.639834062512722215e-05
5.105552776388194047e+02 6.725009878293342026e-05
5.114557278639319406e+02 6.806531453214274211e-05
5.123561780890445334e+02 6.852462190539054452e-05
5.132566283141570693e+02 6.870255968254448487e-05
5.141570785392696052e+02 6.882978831099033877e-05
5.150575287643821412e+02 6.903962080264101117e-05
5.159579789894946771e+02 6.952310437618005375e-05
5.168584292146073267e+02 7.061440238223058838e-05
5.177588794397198626e+02 7.224389130922537954e-05
5.186593296648323985e+02 7.395211418336604945e-05
5.195597798899449344e+02 7.532236333957440519e-05
5.204602301150574704e+02 7.601865686213449855e-05
5.213606803401700063e+02 7.596075025398981839e-05
5.222611305652826559e+02 7.542235756673474961e-05
5.231615807903951918e+02 7.458996760015010959e-05
5.240620310155077277e+02 7.348387241546124418e-05
5.249624812406202636e+02 7.232480437751019088e-05
5.258629314657327996e+02 7.134615026635590836e-05
5.267633816908454492e+02 7.060430782833240803e-05
5.276638319159579851e+02 7.022126484740146034e-05
5.285642821410705210e+02 7.027275894165437530e-05
5.294647323661830569e+02 7.054664825708131413e-05
5.303651825912955928e+02 7.080620828394824776e-05
5.312656328164081287e+02 7.112056332066970285e-05
5.321660830415207784e+02 7.162736081381914071e-05
5.330665332666333143e+02 7.228196553283933092e-05
5.339669834917458502e+02 7.291716270395717976e-05
5.348674337168583861e+02 7.342296542956652078e-05
5.357678839419709220e+02 7.376245266219908176e-05
5.366683341670835716e+02 7.393711227191368334e-05
5.375687843921961075e+02 7.396573533727055373e-05
5.384692346173086435e+02 7.396196467676966445e-05
5.393696848424211794e+02 7.407116247166654866e-05
5.402701350675337153e+02 7.433165582686474253e-05
5.411705852926462512e+02 7.468891807448819087e-05
5.420710355177589008e+02 7.495905201405307010e-05
5.429714857428714367e+02 7.508659539583408167e-05
5.438719359679839727e+02 7.526234263428553954e-05
5.447723861930965086e+02 7.555156005132756137e-05
5.456728364182090445e+02 7.587025477882712197e-05
5.465732866433215804e+02 7.618382651065749368e-05
5.474737368684342300e+02 7.645861754158932242e-05
5.483741870935467659e+02 7.671687027114916003e-05
5.492746373186593019e+02 7.709447645067457210e-05
5.501750875437718378e+02 7.774726505036460384e-05
5.510755377688843737e+02 7.872595173005675947e-05
5.519759879939970233e+02 7.988524711869409063e-05
5.528764382191095592e+02 8.093202132749372987e-05
5.537768884442220951e+02 8.151350262809924725e-05
5.546773386693346310e+02 8.162507613701641533e-05
5.555777888944471670e+02 8.158678987988380498e-05
5.564782391195597029e+02 8.159736457342724517e-05
5.573786893446723525e+02 8.180458067347587403e-05
5.582791395697848884e+02 8.234263635084368795e-05
5.591795897948974243e+02 8.332148784118576651e-05
5.600800400200099602e+02 8.457571009743270038e-05
5.609804902451224962e+02 8.567295647272052687e-05
5.618809404702351458e+02 8.627598313357133476e-05
5.627813906953476817e+02 8.621129734645498568e-05
5.636818409204602176e+02 8.550277934313502549e-05
5.645822911455727535e+02 8.446332577097101144e-05
5.654827413706852894e+02 8.346770146696564177e-05
5.663831915957978254e+02 8.263912797171130478e-05
5.672836418209104750e+02 8.176129960204500137e-05
5.681840920460230109e+02 8.054960824277471372e-05
5.690845422711355468e+02 7.909591980077596441e-05
5.699849924962480827e+02 7.789101302462914892e-05
5.708854427213606186e+02 7.733419365809044734e-05
5.717858929464731546e+02 7.732445848829021457e-05
5.726863431715858042e+02 7.757863147076533448e-05
5.735867933966983401e+02 7.795004174969893734e-05
5.744872436218108760e+02 7.835652365044226914e-05
5.753876938469234119e+02 7.881470416688400376e-05
5.762881440720359478e+02 7.939962570927669894e-05
5.771885942971485974e+02 7.995909863826798874e-05
5.780890445222611334e+02 8.004129917215308985e-05
5.789894947473736693e+02 7.948200585813207668e-05
5.798899449724862052e+02 7.857232166456944384e-05
5.807903951975987411e+02 7.734632398059532296e-05
5.816908454227112770e+02 7.576042919186384513e-05
5.825912956478239266e+02 7.438779241986910671e-05
5.834917458729364625e+02 7.385672186193313561e-05
5.843921960980489985e+02 7.407292352957759211e-05
5.852926463231615344e+02 7.459342065375054319e-05
5.861930965482740703e+02 7.516117899473435243e-05
5.870935467733867199e+02 7.554518927165460593e-05
5.879939969984992558e+02 7.552389609968368847e-05
5.888944472236117917e+02 7.516602062545970568e-05
5.897948974487243277e+02 7.475155646352913503e-05
5.906953476738368636e+02 7.444319994463767488e-05
5.915957978989493995e+02 7.413563384877070556e-05
5.924962481240620491e+02 7.367879176209435907e-05
5.933966983491745850e+02 7.315416772768124271e-05
5.942971485742871209e+02 7.280828785269794759e-05
5.951975987993996569e+02 7.275145181080400192e-05
5.960980490245121928e+02 7.292216420399830310e-05
5.969984992496247287e+02 7.311494934820081892e-05
5.978989494747373783e+02 7.310666056710878513e-05
5.987993996998499142e+02 7.285701071987442108e-05
5.996998499249624501e+02 7.230010634065300792e-05
6.006003001500749860e+02 7.145251074032318232e-05
6.015007503751875220e+02 7.063492506700043351e-05
6.024012006003001716e+02 7.015867187541991172e-05
6.033016508254127075e+02 6.992675012628062450e-05
6.042021010505252434e+02 6.973500335509553452e-05
6.051025512756377793e+02 6.963390418568915984e-05
6.060030015007503152e+02 6.951460934379277527e-05
6.069034517258628512e+02 6.899691139266584652e-05
6.078039019509755008e+02 6.815866548626306779e-05
6.087043521760880367e+02 6.763013619277583543e-05
6.096048024012005726e+02 6.774422390774128655e-05
6.105052526263131085e+02 6.808704911442396766e-05
6.114057028514256444e+02 6.814049584403508307e-05
6.123061530765382940e+02 6.802388597719389478e-05
6.132066033016508300e+02 6.804006564326703236e-05
6.141070535267633659e+02 6.816043478609719222e-05
6.150075037518759018e+02 6.831000430176874098e-05
6.159079539769884377e+02 6.850086177263815194e-05
6.168084042021009736e+02 6.874152806524028245e-05
6.177088544272136232e+02 6.904718628127984857e-05
6.186093046523261592e+02 6.941040668594779088e-05
6.195097548774386951e+02 6.963573696632143059e-05
6.204102051025512310e+02 6.948410930979919591e-05
6.213106553276637669e+02 6.888427068669305783e-05
6.222111055527763028e+02 6.796942578857066057e-05
6.231115557778889524e+02 6.700521005185996570e-05
6.240120060030014884e+02 6.627386866076204869e-05
6.249124562281140243e+02 6.601178476796965868e-05
6.258129064532265602e+02 6.638251198657390737e-05
6.267133566783390961e+02 6.737250814956592790e-05
6.276138069034517457e+02 6.862507735439086533e-05
6.285142571285642816e+02 6.970901802014308260e-05
6.294147073536768175e+02 7.045178171953625035e-05
6.303151575787893535e+02 7.074831252135767735e-05
6.312156078039018894e+02 7.055980674594896165e-05
6.321160580290144253e+02 7.011984883496642459e-05
6.330165082541270749e+02 6.973411876129281264e-05
6.339169584792396108e+02 6.956370347654792672e-05
6.348174087043521467e+02 6.958876039046791532e-05
6.357178589294646827e+02 6.970679164046785945e-05
6.366183091545772186e+02 6.987523537243506126e-05
6.375187593796898682e+02 7.001748258150599659e-05
6.384192096048024041e+02 7.012732710001185919e-05
6.393196598299149400e+02 7.029576129195313301e-05
6.402201100550274759e+02 7.051294127119250507e-05
6.411205602801400119e+02 7.076014328755660435e-05
6.420210105052525478e+02 7.094191832379038054e-05
6.429214607303651974e+02 7.083805527770426359e-05
6.438219109554777333e+02 7.051441362678849661e-05
6.447223611805902692e+02 7.020200150628769209e-05
6.456228114057028051e+02 6.992231156096462156e-05
6.465232616308153411e+02 6.954033923059102062e-05
6.474237118559278770e+02 6.895461891753871077e-05
6.483241620810405266e+02 6.829715710493191498e-05
6.492246123061530625e+02 6.791688381478462795e-05
6.501250625312655984e+02 6.802825241327126714e-05
6.510255127563781343e+02 6.847536815949011469e-05
6.519259629814906702e+02 6.900228882087485090e-05
6.528264132066033198e+02 6.960476397025780308e-05
6.537268634317158558e+02 7.023485614954766518e-05
6.546273136568283917e+02 7.067998103881389796e-05
6.555277638819409276e+02 7.085731614468824408e-05
6.564282141070534635e+02 7.076330067590073545e-05
6.573286643321659994e+02 7.038391453534294283e-05
6.582291145572786490e+02 6.983411199671552699e-05
6.591295647823911850e+02 6.924066742482818109e-05
6.600300150075037209e+02 6.860137423364594668e-05
6.609304652326162568e+02 6.796938943917201761e-05
6.618309154577287927e+02 6.749755275904195618e-05
6.627313656828414423e+02 6.721951722941860499e-05
6.636318159079539782e+02 6.714570171681977771e-05
6.645322661330665142e+02 6.743724910336225766e-05
6.654327163581790501e+02 6.808563672487225906e-05
6.663331665832915860e+02 6.879326516756595475e-05
6.672336168084041219e+02 6.935923790954190470e-05
6.681340670335167715e+02 6.972931837768993042e-05
6.690345172586293074e+02 6.977542119027994806e-05
6.699349674837418434e+02 6.943031263477023572e-05
6.708354177088543793e+02 6.898698924485787060e-05
6.717358679339669152e+02 6.882462823894658658e-05
6.726363181590794511e+02 6.884950831811573971e-05
6.735367683841921007e+02 6.872031780663724111e-05
6.744372186093046366e+02 6.839083202914165700e-05
6.753376688344171725e+02 6.811804407837521429e-05
6.762381190595297085e+02 6.803788808987030589e-05
6.771385692846422444e+02 6.799627922020901071e-05
6.780390195097548940e+02 6.789196758870554666e-05
6.789394697348674299e+02 6.789026372782049513e-05
6.798399199599799658e+02 6.803428106460844246e-05
6.807403701850925017e+02 6.822694625500341054e-05
6.816408204102050377e+02 6.839875851079543789e-05
6.825412706353175736e+02 6.838230749441607560e-05
6.834417208604302232e+02 6.806019226861472111e-05
6.843421710855427591e+02 6.750160223804703235e-05
6.852426213106552950e+02 6.685758398689881055e-05
6.861430715357678309e+02 6.619005797968121121e-05
6.870435217608803669e+02 6.555356209569174273e-05
6.879439719859930165e+02 6.500083154844890794e-05
6.888444222111055524e+02 6.458886759633353345e-05
6.897448724362180883e+02 6.454202058051841575e-05
6.906453226613306242e+02 6.500576035829727195e-05
6.915457728864431601e+02 6.580772832784615551e-05
6.924462231115556961e+02 6.678073179528006150e-05
6.933466733366683457e+02 6.792858669210532943e-05
6.942471235617808816e+02 6.926885450441576809e-05
6.951475737868934175e+02 7.070175644163139220e-05
6.960480240120059534e+02 7.189945164860693885e-05
6.969484742371184893e+02 7.266722580933364817e-05
6.978489244622311389e+02 7.314716646009585259e-05
6.987493746873436749e+02 7.352591405458280837e-05
6.996498249124562108e+02 7.383248258198268292e-05
7.005502751375687467e+02 7.389757706033373583e-05
7.014507253626812826e+02 7.345125955223609341e-05
7.023511755877938185e+02 7.231090924937821289e-05
7.032516258129064681e+02 7.064957393776747719e-05
7.041520760380190040e+02 6.910048355387401109e-05
7.050525262631315400e+02 6.826096234419317158e-05
7.059529764882440759e+02 6.815170428002746369e-05
7.068534267133566118e+02 6.839087155582586949e-05
7.077538769384691477e+02 6.872889988313602154e-05
7.086543271635817973e+02 6.902893301130062840e-05
7.095547773886943332e+02 6.895330864200359899e-05
7.104552276138068692e+02 6.833867881514930909e-05
7.113556778389194051e+02 6.749181721801592276e-05
7.122561280640319410e+02 6.677558783681486617e-05
7.131565782891445906e+02 6.621030414027056317e-05
7.140570285142571265e+02 6.563930883397202658e-05
7.149574787393696624e+02 6.509268334563264916e-05
7.158579289644821984e+02 6.464447813923220011e-05
7.167583791895947343e+02 6.424428329329088833e-05
7.176588294147072702e+02 6.390988717339879182e-05
7.185592796398199198e+02 6.377193252094485879e-05
7.194597298649324557e+02 6.384166083011030596e-05
7.203601800900449916e+02 6.399761837005144352e-05
7.212606303151575275e+02 6.420328352276645728e-05
7.221610805402700635e+02 6.455990770502498439e-05
7.230615307653827131e+02 6.508565003420576115e-05
7.239619809904952490e+02 6.558106844630969023e-05
7.248624312156077849e+02 6.583254175695500059e-05
7.257628814407203208e+02 6.590791736749132871e-05
7.266633316658328567e+02 6.605203931722904858e-05
7.275637818909453927e+02 6.640665665135163495e-05
7.284642321160580423e+02 6.693562831926358383e-05
7.293646823411705782e+02 6.749305260519775768e-05
7.302651325662831141e+02 6.807050088976421265e-05
7.311655827913956500e+02 6.885900438374000648e-05
7.320660330165081859e+02 6.990809461979601610e-05
7.329664832416207219e+02 7.089974324813820615e-05
7.338669334667333715e+02 7.139691613382360730e-05
7.347673836918459074e+02 7.120175425043192554e-05
7.356678339169584433e+02 7.054456393501703192e-05
7.365682841420709792e+02 6.981280802664372495e-05
7.374687343671835151e+02 6.928622121316711509e-05
7.383691845922961647e+02 6.934489562589090717e-05
7.392696348174087007e+02 7.021300406577775746e-05
7.401700850425212366e+02 7.153057449916609548e-05
7.410705352676337725e+02 7.260066176147862596e-05
7.419709854927463084e+02 7.312881449568069429e-05
7.428714357178588443e+02 7.327423523795871378e-05
7.437718859429714939e+02 7.305937934060235278e-05
7.446723361680840299e+02 7.231201263211193110e-05
7.455727863931965658e+02 7.106716905359749853e-05
7.464732366183091017e+02 6.974153906514497499e-05
7.473736868434216376e+02 6.889313442815372739e-05
7.482741370685342872e+02 6.875545234885958390e-05
7.491745872936468231e+02 6.906321966558448175e-05
7.500750375187593590e+02 6.935665383325575746e-05
7.509754877438718950e+02 6.953407046729053343e-05
7.518759379689844309e+02 6.982641424929035253e-05
7.527763881940969668e+02 7.026550974603951963e-05
7.536768384192096164e+02 7.069478903757941230e-05
7.545772886443221523e+02 7.090494067045561622e-05
7.554777388694346882e+02 7.082440825596931220e-05
7.563781890945472242e+02 7.073480300376739315e-05
7.572786393196597601e+02 7.087347105699330879e-05
7.581790895447722960e+02 7.122972233338965430e-05
7.590795397698849456e+02 7.165090140522836629e-05
7.599799899949974815e+02 7.183825080345704881e-05
7.608804402201100174e+02 7.173575900054972407e-05
7.617808904452225534e+02 7.186770530752655678e-05
7.626813406703350893e+02 7.262450703344928515e-05
7.635817908954477389e+02 7.377071732359672816e-05
7.644822411205602748e+02 7.477306849124733875e-05
7.653826913456728107e+02 7.526367646022830127e-05
7.662831415707853466e+02 7.525564245961909797e-05
7.671835917958978825e+02 7.506583802917705895e-05
7.680840420210104185e+02 7.506559239539136786e-05
7.689844922461230681e+02 7.547766378651572577e-05
7.698849424712356040e+02 7.620536510578469606e-05
7.707853926963481399e+02 7.689549640769926327e-05
7.716858429214606758e+02 7.721566736801260323e-05
7.725862931465732117e+02 7.722554473029490866e-05
7.734867433716858613e+02 7.732076078382607207e-05
7.743871935967983973e+02 7.758471081493034779e-05
7.752876438219109332e+02 7.777413281244440987e-05
7.761880940470234691e+02 7.783093790760862540e-05
7.770885442721360050e+02 7.783032941181000923e-05
7.779889944972485409e+02 7.790666200062248796e-05
7.788894447223611905e+02 7.818748561013123745e-05
7.797898949474737265e+02 7.862846009491071769e-05
7.806903451725862624e+02 7.896743515796251155e-05
7.815907953976987983e+02 7.908572491846427896e-05
7.824912456228113342e+02 7.925386482621702290e-05
7.833916958479238701e+02 7.964537695743481756e-05
7.842921460730365197e+02 7.987267078663238618e-05
7.851925962981490557e+02 7.944981474923742796e-05
7.860930465232615916e+02 7.853484479999322935e-05
7.869934967483741275e+02 7.780996984733622971e-05
7.878939469734866634e+02 7.769863580002536730e-05
7.887943971985993130e+02 7.798153511619755293e-05
7.896948474237118489e+02 7.816360821363001709e-05
7.905952976488243849e+02 7.799794415269700222e-05
7.914957478739369208e+02 7.773985498561111361e-05
7.923961980990494567e+02 7.786441136236345567e-05
7.932966483241619926e+02 7.871515592746213918e-05
7.941970985492746422e+02 8.025358311858522961e-05
7.950975487743871781e+02 8.177636423018463908e-05
7.959979989994997140e+02 8.235081031703128456e-05
7.968984492246122500e+02 8.162933146454010144e-05
7.977988994497247859e+02 7.996758702931399526e-05
7.986993496748374355e+02 7.806357400967291096e-05
7.995997998999499714e+02 7.651050985171135757e-05
8.005002501250625073e+02 7.561216114483270084e-05
8.014007003501750432e+02 7.539340038046358008e-05
8.023011505752875792e+02 7.568577075408768745e-05
8.032016008004001151e+02 7.632082552804304767e-05
8.041020510255127647e+02 7.715728988628685683e-05
8.050025012506253006e+02 7.804226560373781114e-05
8.059029514757378365e+02 7.891728917721809063e-05
8.068034017008503724e+02 7.980037421630920057e-05
8.077038519259629084e+02 8.059534003455584756e-05
8.086043021510754443e+02 8.121689787084886765e-05
8.095047523761880939e+02 8.172371560763626178e-05
8.104052026013006298e+02 8.226542010796985475e-05
8.113056528264131657e+02 8.296715112798905007e-05
8.122061030515257016e+02 8.373437117222023280e-05
8.131065532766382375e+02 8.441292400897650126e-05
8.140070035017508872e+02 8.480112895657874951e-05
8.149074537268634231e+02 8.488165396018478091e-05
8.158079039519759590e+02 8.510723280778106589e-05
8.167083541770884949e+02 8.589407607490078824e-05
8.176088044022010308e+02 8.720522022129935608e-05
8.185092546273135667e+02 8.862628083993799003e-05
8.194097048524262163e+02 8.960144030490234542e-05
8.203101550775387523e+02 8.988720522562128887e-05
8.212106053026512882e+02 8.991561584252197965e-05
8.221110555277638241e+02 9.022909557210664509e-05
8.230115057528763600e+02 9.072808266169941471e-05
8.239119559779890096e+02 9.138073425097707227e-05
8.248124062031015455e+02 9.283907303853997507e-05
8.257128564282140815e+02 9.547332264474933607e-05
8.266133066533266174e+02 9.831368118635385692e-05
8.275137568784391533e+02 9.988712421056251782e-05
8.284142071035516892e+02 9.979873736389560494e-05
8.293146573286643388e+02 9.841332092989194956e-05
8.302151075537768747e+02 9.610197231708995425e-05
8.311155577788894107e+02 9.367387956992285949e-05
8.320160080040019466e+02 9.194037522315784655e-05
8.329164582291144825e+02 9.094715469434936630e-05
8.338169084542270184e+02 9.026366780806630529e-05
8.347173586793396680e+02 8.954584485037253333e-05
8.356178089044522039e+02 8.876254836414070471e-05
8.365182591295647399e+02 8.816963049337865914e-05
8.374187093546772758e+02 8.812078691211072581e-05
8.383191595797898117e+02 8.866997852389883229e-05
8.392196098049024613e+02 8.936417303379462929e-05
8.401200600300149972e+02 8.951571758019654279e-05
8.410205102551275331e+02 8.899593445352378045e-05
8.419209604802400690e+02 8.841886077611441444e-05
8.428214107053526050e+02 8.848679616802643765e-05
8.437218609304651409e+02 8.953538845414034386e-05
8.446223111555777905e+02 9.145582302984451033e-05
8.455227613806903264e+02 9.378877432919047923e-05
8.464232116058028623e+02 9.617382909504761004e-05
8.473236618309153982e+02 9.847719986411302470e-05
8.482241120560279342e+02 1.004136025192159187e-04
8.491245622811405838e+02 1.016513726200942645e-04
8.500250125062531197e+02 1.020513618243473281e-04
8.509254627313656556e+02 1.015894462677705191e-04
8.518259129564781915e+02 1.008930450870968820e-04
8.527263631815907274e+02 1.011526918689858458e-04
8.536268134067032634e+02 1.027909686287370846e-04
8.545272636318159130e+02 1.051916629939815903e-04
8.554277138569284489e+02 1.075704138237990417e-04
8.563281640820409848e+02 1.092092044526843603e-04
8.572286143071535207e+02 1.093367564597363473e-04
8.581290645322660566e+02 1.078218628121331649e-04
8.590295147573785925e+02 1.051112623365788826e-04
8.599299649824912422e+02 1.018978708293464218e-04
8.608304152076037781e+02 9.923105983098192415e-05
8.617308654327163140e+02 9.788233261251773766e-05
8.626313156578288499e+02 9.768123827596281899e-05
8.635317658829413858e+02 9.787949892120699036e-05
8.644322161080540354e+02 9.804788611412636168e-05
8.653326663331665713e+02 9.838541883475396212e-05
8.662331165582791073e+02 9.932102358736161706e-05
8.671335667833916432e+02 1.007319712884541067e-04
8.680340170085041791e+02 1.019939956645593017e-04
8.689344672336167150e+02 1.031024236768296660e-04
8.698349174587293646e+02 1.047414286005358188e-04
8.707353676838419005e+02 1.073083953515483705e-04
8.716358179089544365e+02 1.105958378988497172e-04
8.725362681340669724e+02 1.140364610715135737e-04
8.734367183591795083e+02 1.168668622930959784e-04
8.743371685842921579e+02 1.182627493275497033e-04
8.752376188094046938e+02 1.179937510053196120e-04
8.761380690345172297e+02 1.170076105724936194e-04
8.770385192596297657e+02 1.164676914157998256e-04
8.779389694847423016e+02 1.167176577482484189e-04
8.788394197098548375e+02 1.175582433333193975e-04
8.797398699349674871e+02 1.183731786659966971e-04
8.806403201600800230e+02 1.185393782682670356e-04
8.815407703851925589e+02 1.184795410413706969e-04
8.824412206103050949e+02 1.190978060954665828e-04
8.833416708354176308e+02 1.205303257429860242e-04
8.842421210605301667e+02 1.221480219333199980e-04
8.851425712856428163e+02 1.235392592290793755e-04
8.860430215107553522e+02 1.250933587270152726e-04
8.869434717358678881e+02 1.271208909935745638e-04
8.878439219609804240e+02 1.294669299570822983e-04
8.887443721860929600e+02 1.319050574748323529e-04
8.896448224112056096e+02 1.339488174290850314e-04
8.905452726363181455e+02 1.351958480636872913e-04
8.914457228614306814e+02 1.357651660415799117e-04
8.923461730865432173e+02 1.358735513991595997e-04
8.932466233116557532e+02 1.360502199835595533e-04
8.941470735367682892e+02 1.366794055798077590e-04
8.950475237618809388e+02 1.369903694888247373e-04
8.959479739869934747e+02 1.361572502037671330e-04
8.968484242121060106e+02 1.345112726699170815e-04
8.977488744372185465e+02 1.329383416921648580e-04
8.986493246623310824e+02 1.321685274870993548e-04
8.995497748874437320e+02 1.326689339186553935e-04
9.004502251125562680e+02 1.343054004440173102e-04
9.013506753376688039e+02 1.363553954561626941e-04
9.022511255627813398e+02 1.379465582749210941e-04
9.031515757878938757e+02 1.383118114056691738e-04
9.040520260130064116e+02 1.375989014179884089e-04
9.049524762381190612e+02 1.367113450134015281e-04
9.058529264632315972e+02 1.358060953696310364e-04
9.067533766883441331e+02 1.342935056240803751e-04
9.076538269134566690e+02 1.320213309416159509e-04
9.085542771385692049e+02 1.294807665794929312e-04
9.094547273636817408e+02 1.276223895055528170e-04
9.103551775887943904e+02 1.274081025298691677e-04
9.112556278139069263e+02 1.290120921619409926e-04
9.121560780390194623e+02 1.319449657660667777e-04
9.130565282641319982e+02 1.358079944006390844e-04
9.139569784892445341e+02 1.400992789693527468e-04
9.148574287143571837e+02 1.436461327554751377e-04
9.157578789394697196e+02 1.455320908765948254e-04
9.166583291645822555e+02 1.462251462118469817e-04
9.175587793896947915e+02 1.468658979217497688e-04
9.184592296148073274e+02 1.479612900457565115e-04
9.193596798399198633e+02 1.493660503681212739e-04
9.202601300650325129e+02 1.509084906760626329e-04
9.211605802901450488e+02 1.524393562170097826e-04
9.220610305152575847e+02 1.538051754835731975e-04
9.229614807403701207e+02 1.551776915298129272e-04
9.238619309654826566e+02 1.568821377514388702e-04
9.247623811905953062e+02 1.590037992124705452e-04
9.256628314157078421e+02 1.612023345141537283e-04
9.265632816408203780e+02 1.629274702335169677e-04
9.274637318659329139e+02 1.638976300764489211e-04
9.283641820910454499e+02 1.637601237241542577e-04
9.292646323161579858e+02 1.624427665448926388e-04
9.301650825412706354e+02 1.608358353615557679e-04
9.310655327663831713e+02 1.600383531179502871e-04
9.319659829914957072e+02 1.603694851741478689e-04
9.328664332166082431e+02 1.612283908672281732e-04
9.337668834417207790e+02 1.616797345844063732e-04
9.346673336668334287e+02 1.615101117758124729e-04
9.355677838919459646e+02 1.614447491518292567e-04
9.364682341170585005e+02 1.622587443933679952e-04
9.373686843421710364e+02 1.642463539246097521e-04
9.382691345672835723e+02 1.671599559290123287e-04
9.391695847923961082e+02 1.706280066966907620e-04
9.400700350175087578e+02 1.747400558470599112e-04
9.409704852426212938e+02 1.797001923909514001e-04
9.418709354677338297e+02 1.848463635315394915e-04
9.427713856928463656e+02 1.885883217135874963e-04
9.436718359179589015e+02 1.900359045391764089e-04
9.445722861430714374e+02 1.892711015121898463e-04
9.454727363681840870e+02 1.861795486263086294e-04
9.463731865932966230e+02 1.818089066805415909e-04
9.472736368184091589e+02 1.783923380737162205e-04
9.481740870435216948e+02 1.771144069320813462e-04
9.490745372686342307e+02 1.774562540416659213e-04
9.499749874937468803e+02 1.786483006978356646e-04
9.508754377188594162e+02 1.807371471024191818e-04
9.517758879439719522e+02 1.835317017034299148e-04
9.526763381690844881e+02 1.861392858968831951e-04
9.535767883941970240e+02 1.878779308884270284e-04
9.544772386193095599e+02 1.887265984796664684e-04
9.553776888444222095e+02 1.897168001263587888e-04
9.562781390695347454e+02 1.920594766762629270e-04
9.571785892946472813e+02 1.957090605272896616e-04
9.580790395197598173e+02 1.998158429563501185e-04
9.589794897448723532e+02 2.036974774743497156e-04
9.598799399699850028e+02 2.066886288128526013e-04
9.607803901950975387e+02 2.085082158465225029e-04
9.616808404202100746e+02 2.098833901568566203e-04
9.625812906453226105e+02 2.116516887038366189e-04
9.634817408704351465e+02 2.142130593478620913e-04
9.643821910955476824e+02 2.175801044017465935e-04
9.652826413206603320e+02 2.210958348537758831e-04
9.661830915457728679e+02 2.236996831828559368e-04
9.670835417708854038e+02 2.251969976309015986e-04
9.679839919959979397e+02 2.260584047825653863e-04
9.688844422211104757e+02 2.265476087539020349e-04
9.697848924462230116e+02 2.268964564683518365e-04
9.706853426713356612e+02 2.278718949845331943e-04
9.715857928964481971e+02 2.299853647132741089e-04
9.724862431215607330e+02 2.324624988451410689e-04
9.733866933466732689e+02 2.339791876045298831e-04
9.742871435717858049e+02 2.338506595802627953e-04
9.751875937968984545e+02 2.322420798455089922e-04
9.760880440220109904e+02 2.299860293379663587e-04
9.769884942471235263e+02 2.282743215060890755e-04
9.778889444722360622e+02 2.279025928470197542e-04
9.787893946973485981e+02 2.289738182619492917e-04
9.796898449224611340e+02 2.309649483369623777e-04
9.805902951475737837e+02 2.331846750021914253e-04
9.814907453726863196e+02 2.351151185015617139e-04
9.823911955977988555e+02 2.369905253127699740e-04
9.832916458229113914e+02 2.387944385286225855e-04
9.841920960480239273e+02 2.396843593421592907e-04
9.850925462731365769e+02 2.402560954521717183e-04
9.859929964982491128e+02 2.425924379549408380e-04
9.868934467233616488e+02 2.474316762105799859e-04
9.877938969484741847e+02 2.533790421009359927e-04
9.886943471735867206e+02 2.584413684622884999e-04
9.895947973986992565e+02 2.610454038666895540e-04
9.904952476238119061e+02 2.606666448158830355e-04
9.913956978489244420e+02 2.583209834505067201e-04
9.922961480740369780e+02 2.558951833669412214e-04
9.931965982991495139e+02 2.552016700744723474e-04
9.940970485242620498e+02 2.569463123240456706e-04
9.949974987493745857e+02 2.601066567403263665e-04
9.958979489744872353e+02 2.631573474672349719e-04
9.967983991995997712e+02 2.653968259686274693e-04
9.976988494247123072e+02 2.665136561612556072e-04
9.985992996498248431e+02 2.667691042321283876e-04
9.994997498749373790e+02 2.674246483190642794e-04
1.000400200100050029e+03 2.696944658082215947e-04
1.001300650325162565e+03 2.736943965653282091e-04
1.002201100550275100e+03 2.782852609972568162e-04
1.003101550775387636e+03 2.823584740201717162e-04
1.004002001000500172e+03 2.861534425421756304e-04
1.004902451225612708e+03 2.904119124049584118e-04
1.005802901450725358e+03 2.952140867823277123e-04
1.006703351675837894e+03 2.994511833966339827e-04
1.007603801900950430e+03 3.020973859376449382e-04
1.008504252126062966e+03 3.041142468374826054e-04
1.009404702351175501e+03 3.063530278942901077e-04
1.010305152576288151e+03 3.082963276597320873e-04
1.011205602801400687e+03 3.099664010180885887e-04
1.012106053026513223e+03 3.116502510260700607e-04
1.013006503251625759e+03 3.131581273388430960e-04
1.013906953476738295e+03 3.145644905552751991e-04
1.014807403701850831e+03 3.157192518367959414e-04
1.015707853926963480e+03 3.160617652076514968e-04
1.016608304152076016e+03 3.150620475993614776e-04
1.017508754377188552e+03 3.129257078207252395e-04
1.018409204602301088e+03 3.113000997634738807e-04
1.019309654827413624e+03 3.115175365605084051e-04
1.020210105052526160e+03 3.136300678909834344e-04
1.021110555277638809e+03 3.169487956290206764e-04
1.022011005502751345e+03 3.202596117341077980e-04
1.022911455727863881e+03 3.230061288869374493e-04
1.023811905952976417e+03 3.253848176191358752e-04
1.024712356178089067e+03 3.273309166440167384e-04
1.025612806403201603e+03 3.280270897959351685e-04
1.026513256628314139e+03 3.269682596581873846e-04
1.027413706853426675e+03 3.250845751102765741e-04
1.028314157078539210e+03 3.234239640848584241e-04
1.029214607303651746e+03 3.217620901356106318e-04
1.030115057528764282e+03 3.191914020870407738e-04
1.031015507753876818e+03 3.167397854366931875e-04
1.031915957978989354e+03 3.171852829626870202e-04
1.032816408204101890e+03 3.216953956100195586e-04
1.033716858429214653e+03 3.284204489444801189e-04
1.034617308654327189e+03 3.336557647828371329e-04
1.035517758879439725e+03 3.354689130467021084e-04
1.036418209104552261e+03 3.356695659663824034e-04
1.037318659329664797e+03 3.362815236915521607e-04
1.038219109554777333e+03 3.382484515255501623e-04
1.039119559779889869e+03 3.422569035517073963e-04
1.040020010005002405e+03 3.479959013738566083e-04
1.040920460230114941e+03 3.546339922364855524e-04
1.041820910455227477e+03 3.608527001807238324e-04
1.042721360680340013e+03 3.649548451938124691e-04
1.043621810905452776e+03 3.665769761188310770e-04
1.044522261130565312e+03 3.669903323536843768e-04
1.045422711355677848e+03 3.676040325577542892e-04
1.046323161580790384e+03 3.694196578791841346e-04
1.047223611805902920e+03 3.727659308992800776e-04
1.048124062031015455e+03 3.769722736327781065e-04
1.049024512256127991e+03 3.814075533567580414e-04
1.049924962481240527e+03 3.861047163424046261e-04
1.050825412706353063e+03 3.908772858234961425e-04
1.051725862931465599e+03 3.939350638569387680e-04
1.052626313156578135e+03 3.938716918628327687e-04
1.053526763381690898e+03 3.922563348293444329e-04
1.054427213606803434e+03 3.917181095527198071e-04
1.055327663831915970e+03 3.938005429025898856e-04
1.056228114057028506e+03 3.983385127521277378e-04
1.057128564282141042e+03 4.040763132625160912e-04
1.058029014507253578e+03 4.098222249132643983e-04
1.058929464732366114e+03 4.148743063009026366e-04
1.059829914957478650e+03 4.191601869531043833e-04
1.060730365182591186e+03 4.225366390321425177e-04
1.061630815407703722e+03 4.247199278381604123e-04
1.062531265632816257e+03 4.257441822837144713e-04
1.063431715857929021e+03 4.256308827129827617e-04
1.064332166083041557e+03 4.251823575067555593e-04
1.065232616308154093e+03 4.263402982373913131e-04
1.066133066533266629e+03 4.299220322940133917e-04
1.067033516758379164e+03 4.348640911359162261e-04
1.067933966983491700e+03 4.397429306660343828e-04
1.068834417208604236e+03 4.438417332479729135e-04
1.069734867433716772e+03 4.472736766999273607e-04
1.070635317658829308e+03 4.512012021283188894e-04
1.071535767883941844e+03 4.563181427268973487e-04
1.072436218109054380e+03 4.617213385667241418e-04
1.073336668334167143e+03 4.670643696562172022e-04
1.074237118559279679e+03 4.738776371597723069e-04
1.075137568784392215e+03 4.836946831292810692e-04
1.076038019009504751e+03 4.956480814942713009e-04
1.076938469234617287e+03 5.072778551489610715e-04
1.077838919459729823e+03 5.170615713557776601e-04
1.078739369684842359e+03 5.235110683603378398e-04
1.079639819909954895e+03 5.253279513944727726e-04
1.080540270135067431e+03 5.236131747713243956e-04
1.081440720360179967e+03 5.198450630608717447e-04
1.082341170585292502e+03 5.141485460786131799e-04
1.083241620810405038e+03 5.070360704610309870e-04
1.084142071035517802e+03 5.012524129521806881e-04
1.085042521260630338e+03 4.993205560665757436e-04
1.085942971485742873e+03 5.018882043787654609e-04
1.086843421710855409e+03 5.086010359274453904e-04
1.087743871935967945e+03 5.172366978936651866e-04
1.088644322161080481e+03 5.236826485224473646e-04
1.089544772386193017e+03 5.252914884506964437e-04
1.090445222611305553e+03 5.234054223122531005e-04
1.091345672836418089e+03 5.207742851345791403e-04
1.092246123061530625e+03 5.184526690749408258e-04
1.093146573286643161e+03 5.173431605231300226e-04
1.094047023511755924e+03 5.193487311683311642e-04
1.094947473736868460e+03 5.260345613592794668e-04
1.095847923961980996e+03 5.375736891477994389e-04
1.096748374187093532e+03 5.533629126829485911e-04
1.097648824412206068e+03 5.730901334889228812e-04
1.098549274637318604e+03 5.945883761016120461e-04
1.099449724862431140e+03 6.135508097993553180e-04
1.100350175087543676e+03 6.272678839535613185e-04
1.101250625312656211e+03 6.352849518477709156e-04
1.102151075537768747e+03 6.371461853200140017e-04
1.103051525762881283e+03 6.331000286038738741e-04
1.103951975987994047e+03 6.260341444067341055e-04
1.104852426213106583e+03 6.193136936408383687e-04
1.105752876438219118e+03 6.142093551179708373e-04
1.106653326663331654e+03 6.111102951050567059e-04
1.107553776888444190e+03 6.103337784245380570e-04
1.108454227113556726e+03 6.108637303231207816e-04
1.109354677338669262e+03 6.102122464177030334e-04
1.110255127563781798e+03 6.068385493126459947e-04
1.111155577788894334e+03 6.020489089061613732e-04
1.112056028014006870e+03 5.970019026754299534e-04
1.112956478239119406e+03 5.907460380062761439e-04
1.113856928464232169e+03 5.835652325765301653e-04
1.114757378689344705e+03 5.792178810789473577e-04
1.115657828914457241e+03 5.819199740829480603e-04
1.116558279139569777e+03 5.926182333075716638e-04
1.117458729364682313e+03 6.097127313271707982e-04
1.118359179589794849e+03 6.314583417978567254e-04
1.119259629814907385e+03 6.553534207889757240e-04
1.120160080040019920e+03 6.764666564772285054e-04
1.121060530265132456e+03 6.901318536047867588e-04
1.121960980490244992e+03 6.978480770820665773e-04
1.122861430715357528e+03 7.049539157325955714e-04
1.123761880940470292e+03 7.138587551863109955e-04
1.124662331165582827e+03 7.232852630529706256e-04
1.125562781390695363e+03 7.307391522287952140e-04
1.126463231615807899e+03 7.347097050399330675e-04
1.127363681840920435e+03 7.351702663007047374e-04
1.128264132066032971e+03 7.339117188033800589e-04
1.129164582291145507e+03 7.326329311407738486e-04
1.130065032516258043e+03 7.308095118809724124e-04
1.130965482741370579e+03 7.288698125313538764e-04
1.131865932966483115e+03 7.312837583200222256e-04
1.132766383191595651e+03 7.430577816042460444e-04
1.133666833416708187e+03 7.627693372114999898e-04
1.134567283641820950e+03 7.836137603265277106e-04
1.135467733866933486e+03 7.995785654199178165e-04
1.136368184092046022e+03 8.089584590545350826e-04
1.137268634317158558e+03 8.135266601846809741e-04
1.138169084542271094e+03 8.149516128930130989e-04
1.139069534767383630e+03 8.153875415450410067e-04
1.139969984992496165e+03 8.205626229270052748e-04
1.140870435217608701e+03 8.359961011956681476e-04
1.141770885442721237e+03 8.632775584556930072e-04
1.142671335667833773e+03 9.007710308280657665e-04
1.143571785892946309e+03 9.467231719308786143e-04
1.144472236118059072e+03 9.984788273380961615e-04
1.145372686343171608e+03 1.051639660559955522e-03
1.146273136568284144e+03 1.104097859524828546e-03
1.147173586793396680e+03 1.157253017388528999e-03
1.148074037018509216e+03 1.213434593941767727e-03
1.148974487243621752e+03 1.272801920737719628e-03
1.149874937468734288e+03 1.334319258987917527e-03
1.150775387693846824e+03 1.399858878624747312e-03
1.151675837918959360e+03 1.470399704663736054e-03
1.152576288144071896e+03 1.541606409333135582e-03
1.153476738369184432e+03 1.610752834229741077e-03
1.154377188594297195e+03 1.679955741413528781e-03
1.155277638819409731e+03 1.751738888945301564e-03
1.156178089044522267e+03 1.825573590890348409e-03
1.157078539269634803e+03 1.897962293207237786e-03
1.157978989494747339e+03 1.969396880206810210e-03
1.158879439719859874e+03 2.046001335838876656e-03
1.159779889944972410e+03 2.124841811215415731e-03
1.160680340170084946e+03 2.192710140505298860e-03
1.161580790395197482e+03 2.236895353366599899e-03
1.162481240620310018e+03 2.254199397322701783e-03
1.163381690845422554e+03 2.247973532191301776e-03
1.164282141070535317e+03 2.221190873940936169e-03
1.165182591295647853e+03 2.181910725025140198e-03
1.166083041520760389e+03 2.142171480646171307e-03
1.166983491745872925e+03 2.102374472998368507e-03
1.167883941970985461e+03 2.053170067841364466e-03
1.168784392196097997e+03 1.991744444082717801e-03
1.169684842421210533e+03 1.922616034807747001e-03
1.170585292646323069e+03 1.850286351399239382e-03
1.171485742871435605e+03 1.782069954835249987e-03
1.172386193096548141e+03 1.724917041347103115e-03
1.173286643321660677e+03 1.676058933362997803e-03
1.174187093546773440e+03 1.626383016749492110e-03
1.175087543771885976e+03 1.575270009471145365e-03
1.175987993996998512e+03 1.530648980266420892e-03
1.176888444222111048e+03 1.496513123255182199e-03
1.177788894447223583e+03 1.468910551841790717e-03
1.178689344672336119e+03 1.443128550552254729e-03
1.179589794897448655e+03 1.420675930517775179e-03
1.180490245122561191e+03 1.404176474390340197e-03
1.181390695347673727e+03 1.390387961648371050e-03
1.182291145572786263e+03 1.370579546474497840e-03
1.183191595797898799e+03 1.340850980826184579e-03
1.184092046023011562e+03 1.308299159236377303e-03
1.184992496248124098e+03 1.280352202891042518e-03
1.185892946473236634e+03 1.256358287059639468e-03
1.186793396698349170e+03 1.233925842555473823e-03
1.187693846923461706e+03 1.217779940296931027e-03
1.188594297148574242e+03 1.215512999330524120e-03
1.189494747373686778e+03 1.229634062518864717e-03
1.190395197598799314e+03 1.256364294783554169e-03
1.191295647823911850e+03 1.288220949786313043e-03
1.192196098049024386e+03 1.317705232604419411e-03
1.193096548274136921e+03 1.336846203599906290e-03
1.193996998499249457e+03 1.337723469180359575e-03
1.194897448724362221e+03 1.320541719975539202e-03
1.195797898949474757e+03 1.295046415725917884e-03
1.196698349174587293e+03 1.270574305934996746e-03
1.197598799399699828e+03 1.248421689549891571e-03
1.198499249624812364e+03 1.224832009438271696e-03
1.199399699849924900e+03 1.200171331108928346e-03
1.200300150075037436e+03 1.179201945325077062e-03
1.201200600300149972e+03 1.167453547482409822e-03
1.202101050525262508e+03 1.167801926600850080e-03
1.203001500750375044e+03 1.176072093783374958e-03
1.203901950975487580e+03 1.183566825813218634e-03
1.204802401200600343e+03 1.185583333818031847e-03
1.205702851425712879e+03 1.182900394047026529e-03
1.206603301650825415e+03 1.175837159274965502e-03
1.207503751875937951e+03 1.165607577509577848e-03
1.208404202101050487e+03 1.154414644583144113e-03
1.209304652326163023e+03 1.141939859554031269e-03
1.210205102551275559e+03 1.127773451344330933e-03
1.211105552776388095e+03 1.114576921469571588e-03
1.212006003001500630e+03 1.103233558238764581e-03
1.212906453226613166e+03 1.091885333135511052e-03
1.213806903451725702e+03 1.082885828693927292e-03
1.214707353676838466e+03 1.080920263557908325e-03
1.215607803901951002e+03 1.084718065371843929e-03
1.216508254127063537e+03 1.086745933492011627e-03
1.217408704352176073e+03 1.081550840893942067e-03
1.218309154577288609e+03 1.072137479930101219e-03
1.219209604802401145e+03 1.067723428067507462e-03
1.220110055027513681e+03 1.074205137649942611e-03
1.221010505252626217e+03 1.087674832462783014e-03
1.221910955477738753e+03 1.099891585134122989e-03
1.222811405702851289e+03 1.109090037431938701e-03
1.223711855927963825e+03 1.119542272890220033e-03
1.224612306153076588e+03 1.133773789088697408e-03
1.225512756378189124e+03 1.149991331118047858e-03
1.226413206603301660e+03 1.164147986587145888e-03
1.227313656828414196e+03 1.171104986143686310e-03
1.228214107053526732e+03 1.169662012311542760e-03
1.229114557278639268e+03 1.164400782751943021e-03
1.230015007503751804e+03 1.161542967172575101e-03
1.230915457728864340e+03 1.164816199925672964e-03
1.231815907953976875e+03 1.173044990147779345e-03
1.232716358179089411e+03 1.182569269804911987e-03
1.233616808404201947e+03 1.190753517393460447e-03
1.234517258629314711e+03 1.196029037810420305e-03
1.235417708854427246e+03 1.193527619735554757e-03
1.236318159079539782e+03 1.178339836481258644e-03
1.237218609304652318e+03 1.154965161310468006e-03
1.238119059529764854e+03 1.135963804334124728e-03
1.239019509754877390e+03 1.130181781255680876e-03
1.239919959979989926e+03 1.137849368904170254e-03
1.240820410205102462e+03 1.156982953525276291e-03
1.241720860430214998e+03 1.184030687955114078e-03
1.242621310655327534e+03 1.211043326929671458e-03
1.243521760880440070e+03 1.231501140221063356e-03
1.244422211105552606e+03 1.243991448701705412e-03
1.245322661330665369e+03 1.251414069681488833e-03
1.246223111555777905e+03 1.256404569156203315e-03
1.247123561780890441e+03 1.257194629804769424e-03
1.248024012006002977e+03 1.253028361399978951e-03
1.248924462231115513e+03 1.246804591182434615e-03
1.249824912456228049e+03 1.243885138092533198e-03
1.250725362681340584e+03 1.248291871842891832e-03
1.251625812906453120e+03 1.258425452538241554e-03
1.252526263131565656e+03 1.268342503461495361e-03
1.253426713356678192e+03 1.273363401489709763e-03
1.254327163581790728e+03 1.275318113881833111e-03
1.255227613806903491e+03 1.278289544543925954e-03
1.256128064032016027e+03 1.284161132985969051e-03
1.257028514257128563e+03 1.292503209142670164e-03
1.257928964482241099e+03 1.300726535227422157e-03
1.258829414707353635e+03 1.307994641369327480e-03
1.259729864932466171e+03 1.316923897638736353e-03
1.260630315157578707e+03 1.329276008390051136e-03
1.261530765382691243e+03 1.344685912509238938e-03
1.262431215607803779e+03 1.364416458140644802e-03
1.263331665832916315e+03 1.389117743211166914e-03
1.264232116058028851e+03 1.416566155724413578e-03
1.265132566283141614e+03 1.442353677783240508e-03
1.266033016508254150e+03 1.462486624430908060e-03
1.266933466733366686e+03 1.476708677789443681e-03
1.267833916958479222e+03 1.487241868037816363e-03
1.268734367183591758e+03 1.496861387269336763e-03
1.269634817408704293e+03 1.508480812681195320e-03
1.270535267633816829e+03 1.524481083116213838e-03
1.271435717858929365e+03 1.545120858765495651e-03
1.272336168084041901e+03 1.569311568437051652e-03
1.273236618309154437e+03 1.594854003897937245e-03
1.274137068534266973e+03 1.618975878925455565e-03
1.275037518759379736e+03 1.641345643261113646e-03
1.275937968984492272e+03 1.662875868378989449e-03
1.276838419209604808e+03 1.683657506639508854e-03
1.277738869434717344e+03 1.704716270014821483e-03
1.278639319659829880e+03 1.726673556830046882e-03
1.279539769884942416e+03 1.748866552686974274e-03
1.280440220110054952e+03 1.772520496442714713e-03
1.281340670335167488e+03 1.799086756436695488e-03
1.282241120560280024e+03 1.827416005433205861e-03
1.283141570785392560e+03 1.856289346168909626e-03
1.284042021010505096e+03 1.887241299061071919e-03
1.284942471235617859e+03 1.921672554785886855e-03
1.285842921460730395e+03 1.958928788600458777e-03
1.286743371685842931e+03 1.997183438382009110e-03
1.287643821910955467e+03 2.032009571239480616e-03
1.288544272136068003e+03 2.058852828777172229e-03
1.289444722361180538e+03 2.079071971118270044e-03
1.290345172586293074e+03 2.096373188020881750e-03
1.291245622811405610e+03 2.111012204148568060e-03
1.292146073036518146e+03 2.121352860142922559e-03
1.293046523261630682e+03 2.129458093095708531e-03
1.293946973486743218e+03 2.142491835816604569e-03
1.294847423711855754e+03 2.165129822795690533e-03
1.295747873936968517e+03 2.194838483082128724e-03
1.296648324162081053e+03 2.229818978005005704e-03
1.297548774387193589e+03 2.273776555328845764e-03
1.298449224612306125e+03 2.329213197610628498e-03
1.299349674837418661e+03 2.390895329001009682e-03
1.300250125062531197e+03 2.449101433537605090e-03
1.301150575287643733e+03 2.499059532115505394e-03
1.302051025512756269e+03 2.541974689729109126e-03
1.302951475737868805e+03 2.577374180783635789e-03
1.303851925962981340e+03 2.601158307102704927e-03
1.304752376188093876e+03 2.612297092534579795e-03
1.305652826413206640e+03 2.615960037335097760e-03
1.306553276638319176e+03 2.619081895842315360e-03
1.307453726863431712e+03 2.628698882023755307e-03
1.308354177088544247e+03 2.650052350905375467e-03
1.309254627313656783e+03 2.680452862024634234e-03
1.310155077538769319e+03 2.712831015043112338e-03
1.311055527763881855e+03 2.744583996299334357e-03
1.311955977988994391e+03 2.776320086801229055e-03
1.312856428214106927e+03 2.807121913916659026e-03
1.313756878439219463e+03 2.837434879322820510e-03
1.314657328664331999e+03 2.872236843768537044e-03
1.315557778889444762e+03 2.918482201417921425e-03
1.316458229114557298e+03 2.977885585559166687e-03
1.317358679339669834e+03 3.044829999758977626e-03
1.318259129564782370e+03 3.112688755870081109e-03
1.319159579789894906e+03 3.176551597832272950e-03
1.320060030015007442e+03 3.234551202991912348e-03
1.320960480240119978e+03 3.289155607305009003e-03
1.321860930465232514e+03 3.342015703650577305e-03
1.322761380690345050e+03 3.388623883678784556e-03
1.323661830915457585e+03 3.421504438391683323e-03
1.324562281140570121e+03 3.443330834033740597e-03
1.325462731365682885e+03 3.470980834101525508e-03
1.326363181590795421e+03 3.521248593080153391e-03
1.327263631815907956e+03 3.602846079337852087e-03
1.328164082041020492e+03 3.719313462414059000e-03
1.329064532266133028e+03 3.862632925476584649e-03
1.329964982491245564e+03 4.008576767019138114e-03
1.330865432716358100e+03 4.130580403209055569e-03
1.331765882941470636e+03 4.219220463629739723e-03
1.332666333166583172e+03 4.286494069906064512e-03
1.333566783391695708e+03 4.348036653182791277e-03
1.334467233616808244e+03 4.410293247812816300e-03
1.335367683841921007e+03 4.475584173883971791e-03
1.336268134067033543e+03 4.547346967098473206e-03
1.337168584292146079e+03 4.625346057018519044e-03
1.338069034517258615e+03 4.709495650462047246e-03
1.338969484742371151e+03 4.801711634450686605e-03
1.339869934967483687e+03 4.907915945681465969e-03
1.340770385192596223e+03 5.033878851039052041e-03
1.341670835417708759e+03 5.174450363527055390e-03
1.342571285642821294e+03 5.315736588237819291e-03
1.343471735867933830e+03 5.445930482300988945e-03
1.344372186093046366e+03 5.574078999992476517e-03
1.345272636318158902e+03 5.718148435981226969e-03
1.346173086543271666e+03 5.880171680562720771e-03
1.347073536768384201e+03 6.046640575698570240e-03
1.347973986993496737e+03 6.203375824198874636e-03
1.348874437218609273e+03 6.343510065037328075e-03
1.349774887443721809e+03 6.471843303967698795e-03
1.350675337668834345e+03 6.606519965588867477e-03
1.351575787893946881e+03 6.757928997570265828e-03
1.352476238119059417e+03 6.915195997076891386e-03
1.353376688344171953e+03 7.073619848727120442e-03
1.354277138569284489e+03 7.256312382336921676e-03
1.355177588794397025e+03 7.491201329911955677e-03
1.356078039019509788e+03 7.771712817634326628e-03
1.356978489244622324e+03 8.053056114533753418e-03
1.357878939469734860e+03 8.288971047274211468e-03
1.358779389694847396e+03 8.476282347976279649e-03
1.359679839919959932e+03 8.642734997415827888e-03
1.360580290145072468e+03 8.799957088441558509e-03
1.361480740370185003e+03 8.936230834757700331e-03
1.362381190595297539e+03 9.045645270491517800e-03
1.363281640820410075e+03 9.146868239779566701e-03
1.364182091045522611e+03 9.267641973224700555e-03
1.365082541270635147e+03 9.416520471776669218e-03
1.365982991495747910e+03 9.591454697472072410e-03
1.366883441720860446e+03 9.806334255419964577e-03
1.367783891945972982e+03 1.006947340862286190e-02
1.368684342171085518e+03 1.033898574344195749e-02
1.369584792396198054e+03 1.055800007770474683e-02
1.370485242621310590e+03 1.072439344675731564e-02
1.371385692846423126e+03 1.087122126825290289e-02
1.372286143071535662e+03 1.102172733611674060e-02
1.373186593296648198e+03 1.120511248595861507e-02
1.374087043521760734e+03 1.146344704848206893e-02
1.374987493746873270e+03 1.179089282557585494e-02
1.375887943971986033e+03 1.213019944662385372e-02
1.376788394197098569e+03 1.246208286709970733e-02
1.377688844422211105e+03 1.280422056860839979e-02
1.378589294647323641e+03 1.314072121848833437e-02
1.379489744872436177e+03 1.341869561254912906e-02
1.380390195097548713e+03 1.361952557951393895e-02
1.381290645322661248e+03 1.379874122323889243e-02
1.382191095547773784e+03 1.402322477423160151e-02
1.383091545772886320e+03 1.430620195460179794e-02
1.383991995997998856e+03 1.462393698290371906e-02
1.384892446223111392e+03 1.495018960973712105e-02
1.385792896448224155e+03 1.525861675741039571e-02
1.386693346673336691e+03 1.552697649280298901e-02
1.387593796898449227e+03 1.576982821609803145e-02
1.388494247123561763e+03 1.603409616537882290e-02
1.389394697348674299e+03 1.630398514704034171e-02
1.390295147573786835e+03 1.650557924399246798e-02
1.391195597798899371e+03 1.662929403929457386e-02
1.392096048024011907e+03 1.673072209063874646e-02
1.392996498249124443e+03 1.684376516960481990e-02
1.393896948474236979e+03 1.697204801701953508e-02
1.394797398699349515e+03 1.708238553201391063e-02
1.395697848924462278e+03 1.713544476652182486e-02
1.396598299149574814e+03 1.714554664829167491e-02
1.397498749374687350e+03 1.715257652003322059e-02
1.398399199599799886e+03 1.717254796823553323e-02
1.399299649824912422e+03 1.717280343702453846e-02
1.400200100050024957e+03 1.709762447137454233e-02
1.401100550275137493e+03 1.696888324034211831e-02
1.402001000500250029e+03 1.687793565325933567e-02
1.402901450725362565e+03 1.683639344678726849e-02
1.403801900950475101e+03 1.677495855206636091e-02
1.404702351175587637e+03 1.665850398066957491e-02
1.405602801400700173e+03 1.650441252283819590e-02
1.406503251625812936e+03 1.635639992913941188e-02
1.407403701850925472e+03 1.625521667672142484e-02
1.408304152076038008e+03 1.620296591099937636e-02
1.409204602301150544e+03 1.615137384752908523e-02
1.410105052526263080e+03 1.603447891826813992e-02
1.411005502751375616e+03 1.581880262606582058e-02
1.411905952976488152e+03 1.552992795351141632e-02
1.412806403201600688e+03 1.523219737426554678e-02
1.413706853426713224e+03 1.498109782523499890e-02
1.414607303651825760e+03 1.477528500514438750e-02
1.415507753876938295e+03 1.455781597244702394e-02
1.416408204102051059e+03 1.428393327867522392e-02
1.417308654327163595e+03 1.395972150566960474e-02
1.418209104552276131e+03 1.361500122695447762e-02
1.419109554777388666e+03 1.325311506598018767e-02
1.420010005002501202e+03 1.286047853881516247e-02
1.420910455227613738e+03 1.245116396717140493e-02
1.421810905452726274e+03 1.205076631505453549e-02
1.422711355677838810e+03 1.165816376365599004e-02
1.423611805902951346e+03 1.126318182840555134e-02
1.424512256128063882e+03 1.087242409966293968e-02
1.425412706353176418e+03 1.051233527232287891e-02
1.426313156578289181e+03 1.019503907111695036e-02
1.427213606803401717e+03 9.902128922126779073e-03
1.428114057028514253e+03 9.620215769804658923e-03
1.429014507253626789e+03 9.360058986917177415e-03
1.429914957478739325e+03 9.125292506337756571e-03
1.430815407703851861e+03 8.906515932045449765e-03
1.431715857928964397e+03 8.711363986618253855e-03
1.432616308154076933e+03 8.552729475478469331e-03
1.433516758379189469e+03 8.419182804451011762e-03
1.434417208604302004e+03 8.278059501040649013e-03
1.435317658829414540e+03 8.106294230578875437e-03
1.436218109054527304e+03 7.912022582405031645e-03
1.437118559279639840e+03 7.726016905630599639e-03
1.438019009504752376e+03 7.579963565622190903e-03
1.438919459729864911e+03 7.487610638381686501e-03
1.439819909954977447e+03 7.429278697589879188e-03
1.440720360180089983e+03 7.356033328677665482e-03
1.441620810405202519e+03 7.239202774029079683e-03
1.442521260630315055e+03 7.090472324179315777e-03
1.443421710855427591e+03 6.928482767638537501e-03
1.444322161080540127e+03 6.754890099062753166e-03
1.445222611305652663e+03 6.573175999831988581e-03
1.446123061530765426e+03 6.398194831935695090e-03
1.447023511755877962e+03 6.229211378993911898e-03
1.447923961980990498e+03 6.051041018735021405e-03
1.448824412206103034e+03 5.870341313156504474e-03
1.449724862431215570e+03 5.719520948012738262e-03
1.450625312656328106e+03 5.610584954436235831e-03
1.451525762881440642e+03 5.524508543212017057e-03
1.452426213106553178e+03 5.441370272022830537e-03
1.453326663331665713e+03 5.352651127612525518e-03
1.454227113556778249e+03 5.257321859938257451e-03
1.455127563781890785e+03 5.154429910151595885e-03
1.456028014007003321e+03 5.032275068356855882e-03
1.456928464232116085e+03 4.881360922054866873e-03
1.457828914457228620e+03 4.722506893286924912e-03
1.458729364682341156e+03 4.586736627772630866e-03
1.459629814907453692e+03 4.477415735899109225e-03
1.460530265132566228e+03 4.375619435323424740e-03
1.461430715357678764e+03 4.264575368996155295e-03
1.462331165582791300e+03 4.137644688573381690e-03
1.463231615807903836e+03 3.996690926296819421e-03
1.464132066033016372e+03 3.851517130348034064e-03
1.465032516258128908e+03 3.713533925333875260e-03
1.465932966483241444e+03 3.587903018485736305e-03
1.466833416708354207e+03 3.470587953851431238e-03
1.467733866933466743e+03 3.359186037050535499e-03
1.468634317158579279e+03 3.256053124070189958e-03
1.469534767383691815e+03 3.163716942519465263e-03
1.470435217608804351e+03 3.083917111164791603e-03
1.471335667833916887e+03 3.014885466079040514e-03
1.472236118059029423e+03 2.945708450406600478e-03
1.473136568284141958e+03 2.864256036032915721e-03
1.474037018509254494e+03 2.767628281865030290e-03
1.474937468734367030e+03 2.660546511614460610e-03
1.475837918959479566e+03 2.556795073474560798e-03
1.476738369184592329e+03 2.474124611336215012e-03
1.477638819409704865e+03 2.425290052975042406e-03
1.478539269634817401e+03 2.411687510624611636e-03
1.479439719859929937e+03 2.423523250733191931e-03
1.480340170085042473e+03 2.444892406519974960e-03
1.481240620310155009e+03 2.459290219369861513e-03
1.482141070535267545e+03 2.455232092737128207e-03
1.483041520760380081e+03 2.428876369306667230e-03
1.483941970985492617e+03 2.381946371982714399e-03
1.484842421210605153e+03 2.318463349655036036e-03
1.485742871435717689e+03 2.246340117116101855e-03
1.486643321660830452e+03 2.174860066188890120e-03
1.487543771885942988e+03 2.111229735436230201e-03
1.488444222111055524e+03 2.061433431795929843e-03
1.489344672336168060e+03 2.026387221298448036e-03
1.490245122561280596e+03 2.004062385939665240e-03
1.491145572786393132e+03 1.994341530566819815e-03
1.492046023011505667e+03 1.994251274365772125e-03
1.492946473236618203e+03 1.992193012941267157e-03
1.493846923461730739e+03 1.977671261103758696e-03
1.494747373686843275e+03 1.953098418159982669e-03
1.495647823911955811e+03 1.924072854050209438e-03
1.496548274137068574e+03 1.892031649381015939e-03
1.497448724362181110e+03 1.860474041417739879e-03
1.498349174587293646e+03 1.830233045690198707e-03
1.499249624812406182e+03 1.797554357857455293e-03
1.500150075037518718e+03 1.762864574214901376e-03
1.501050525262631254e+03 1.729791822734756028e-03
1.501950975487743790e+03 1.700474327601976358e-03
1.502851425712856326e+03 1.677190869386511844e-03
1.503751875937968862e+03 1.664600832916380418e-03
1.504652326163081398e+03 1.664679906631747830e-03
1.505552776388193934e+03 1.670454618001428930e-03
1.506453226613306470e+03 1.669411212328530394e-03
1.507353676838419233e+03 1.655916290686509484e-03
1.508254127063531769e+03 1.636333474482066933e-03
1.509154577288644305e+03 1.618964581416228177e-03
1.510055027513756841e+03 1.604869442560163300e-03
1.510955477738869376e+03 1.589212399454569468e-03
1.511855927963981912e+03 1.569785354905453957e-03
1.512756378189094448e+03 1.549672949210678576e-03
1.513656828414206984e+03 1.530722766284206430e-03
1.514557278639319520e+03 1.512449960947813421e-03
1.515457728864432056e+03 1.495257667819378626e-03
1.516358179089544592e+03 1.478798717391764618e-03
1.517258629314657355e+03 1.459954105820505423e-03
1.518159079539769891e+03 1.437917823314358674e-03
1.519059529764882427e+03 1.413754860413027857e-03
1.519959979989994963e+03 1.383775975046187953e-03
1.520860430215107499e+03 1.343224515895696672e-03
1.521760880440220035e+03 1.296215333117044450e-03
1.522661330665332571e+03 1.254158289267534197e-03
1.523561780890445107e+03 1.225393427040614644e-03
1.524462231115557643e+03 1.208423743258552497e-03
1.525362681340670179e+03 1.196423229257452276e-03
1.526263131565782714e+03 1.183223237621713062e-03
1.527163581790895478e+03 1.166224188243064792e-03
1.528064032016008014e+03 1.148576450014959435e-03
1.528964482241120550e+03 1.133955087102326512e-03
1.529864932466233086e+03 1.120900570328806078e-03
1.530765382691345621e+03 1.106068356627807345e-03
1.531665832916458157e+03 1.090297931960317783e-03
1.532566283141570693e+03 1.076269567033970916e-03
1.533466733366683229e+03 1.067303854700935159e-03
1.534367183591795765e+03 1.067100191126773992e-03
1.535267633816908301e+03 1.075846391606681638e-03
1.536168084042020837e+03 1.086793786816009008e-03
1.537068534267133600e+03 1.088255026245942914e-03
1.537968984492246136e+03 1.074267367892686427e-03
1.538869434717358672e+03 1.049083269167188671e-03
1.539769884942471208e+03 1.019199440091249614e-03
1.540670335167583744e+03 9.891700108770960353e-04
1.541570785392696280e+03 9.586631289769540149e-04
1.542471235617808816e+03 9.230392995061693874e-04
1.543371685842921352e+03 8.811485601999040438e-04
1.544272136068033888e+03 8.369569837837152184e-04
1.545172586293146423e+03 7.960964796774476536e-04
1.546073036518258959e+03 7.626780570488114535e-04
1.546973486743371723e+03 7.374459000446467608e-04
1.547873936968484259e+03 7.170256354924523217e-04
1.548774387193596795e+03 6.978066184490678159e-04
1.549674837418709330e+03 6.811862235428819794e-04
1.550575287643821866e+03 6.696703564788716260e-04
1.551475737868934402e+03 6.634352213921686833e-04
1.552376188094046938e+03 6.587984253304135117e-04
1.553276638319159474e+03 6.517266114689180753e-04
1.554177088544272010e+03 6.422909087418912037e-04
1.555077538769384546e+03 6.332904937722329567e-04
1.555977988994497082e+03 6.264394874559626493e-04
1.556878439219609618e+03 6.204048455259556383e-04
1.557778889444722381e+03 6.135783366317484498e-04
1.558679339669834917e+03 6.019274483640966490e-04
1.559579789894947453e+03 5.803365529391459488e-04
1.560480240120059989e+03 5.521623509621135682e-04
1.561380690345172525e+03 5.263015399434549249e-04
1.562281140570285061e+03 5.082602660469812822e-04
1.563181590795397597e+03 4.981501405064565598e-04
1.564082041020510133e+03 4.927625289487081806e-04
1.564982491245622668e+03 4.871862700200062127e-04
1.565882941470735204e+03 4.758565615939808245e-04
1.566783391695847740e+03 4.568639946091415270e-04
1.567683841920960504e+03 4.326450048717475931e-04
1.568584292146073039e+03 4.037358008983949766e-04
1.569484742371185575e+03 3.698250982349925186e-04
1.570385192596298111e+03 3.350089953798819002e-04
1.571285642821410647e+03 3.050706932407891057e-04
1.572186093046523183e+03 2.813019510574255987e-04
1.573086543271635719e+03 2.607204610374276197e-04
1.573986993496748255e+03 2.399162540443675854e-04
1.574887443721860791e+03 2.179950316253678679e-04
1.575787893946973327e+03 1.962302717184182020e-04
1.576688344172085863e+03 1.760303219106297784e-04
1.577588794397198626e+03 1.586618453057986561e-04
1.578489244622311162e+03 1.446231750925470159e-04
1.579389694847423698e+03 1.334469088280122056e-04
1.580290145072536234e+03 1.244646113229799962e-04
1.581190595297648770e+03 1.172816897598965696e-04
1.582091045522761306e+03 1.116294177834463859e-04
1.582991495747873842e+03 1.072722987062547440e-04
1.583891945972986377e+03 1.040391887364773723e-04
1.584792396198098913e+03 1.018167806928748509e-04
1.585692846423211449e+03 1.004862809571811582e-04
1.586593296648323985e+03 9.992841044865436264e-05
1.587493746873436749e+03 1.002609365812739132e-04
1.588394197098549284e+03 1.018883284603504957e-04
1.589294647323661820e+03 1.050105130591908207e-04
1.590195097548774356e+03 1.091111219346649672e-04
1.591095547773886892e+03 1.128315626624360027e-04
1.591995997998999428e+03 1.141506559979256952e-04
1.592896448224111964e+03 1.117333941496409402e-04
1.593796898449224500e+03 1.069221973529562873e-04
1.594697348674337036e+03 1.024815664742102149e-04
1.595597798899449572e+03 1.002360951801074281e-04
1.596498249124562108e+03 1.002636032141830566e-04
1.597398699349674871e+03 1.008060265777542086e-04
1.598299149574787407e+03 9.915947578660503725e-05
1.599199599799899943e+03 9.455364781163770778e-05
1.600100050025012479e+03 8.879572984547030726e-05
1.601000500250125015e+03 8.355442412536962416e-05
1.601900950475237551e+03 7.930163288617486899e-05
1.602801400700350086e+03 7.569089298357606994e-05
1.603701850925462622e+03 7.242839504307753320e-05
1.604602301150575158e+03 6.970353540780127154e-05
1.605502751375687694e+03 6.763378920354597395e-05
1.606403201600800230e+03 6.593995347731819749e-05
1.607303651825912766e+03 6.421849002963123977e-05
1.608204102051025529e+03 6.241863085803640778e-05
1.609104552276138065e+03 6.083835761424124844e-05
1.610005002501250601e+03 5.972932136283854506e-05
1.610905452726363137e+03 5.918606344505204694e-05
1.611805902951475673e+03 5.919553718672774292e-05
1.612706353176588209e+03 5.953268771043408297e-05
1.613606803401700745e+03 5.956872017252644129e-05
1.614507253626813281e+03 5.865425027878227516e-05
1.615407703851925817e+03 5.700461812877040971e-05
1.616308154077038353e+03 5.537700270468633710e-05
1.617208604302150889e+03 5.423187431761056237e-05
1.618109054527263652e+03 5.370042033391845307e-05
1.619009504752376188e+03 5.379892631452148216e-05
1.619909954977488724e+03 5.445000370967272821e-05
1.620810405202601260e+03 5.533028725282926411e-05
1.621710855427713796e+03 5.592313759095150359e-05
1.622611305652826331e+03 5.606957994207977994e-05
1.623511755877938867e+03 5.586082584674359464e-05
1.624412206103051403e+03 5.486443047448561546e-05
1.625312656328163939e+03 5.276092245409842046e-05
1.626213106553276475e+03 5.017338390725233782e-05
1.627113556778389011e+03 4.783576448685929335e-05
1.628014007003501774e+03 4.598730660931982087e-05
1.628914457228614310e+03 4.457996336299775394e-05
1.629814907453726846e+03 4.350974170007273090e-05
1.630715357678839382e+03 4.269479109605119700e-05
1.631615807903951918e+03 4.208673089094054685e-05
1.632516258129064454e+03 4.166734100534072449e-05
1.633416708354176990e+03 4.144606405840195712e-05
1.634317158579289526e+03 4.146045988414878079e-05
1.635217608804402062e+03 4.177394244213951434e-05
1.636118059029514598e+03 4.244660939780646133e-05
1.637018509254627133e+03 4.341338978395692106e-05
1.637918959479739897e+03 4.422926046427583198e-05
1.638819409704852433e+03 4.409593076226006825e-05
1.639719859929964969e+03 4.276752214796496708e-05
1.640620310155077505e+03 4.092604619649502158e-05
1.641520760380190040e+03 3.922681916239149024e-05
1.642421210605302576e+03 3.786773225102967006e-05
1.643321660830415112e+03 3.681348573322680134e-05
1.644222111055527648e+03 3.598457646040810801e-05
1.645122561280640184e+03 3.531626290506180096e-05
1.646023011505752720e+03 3.476586212857973830e-05
1.646923461730865256e+03 3.430845070252464918e-05
1.647823911955978019e+03 3.393139832988094503e-05
1.648724362181090555e+03 3.362664031247666500e-05
1.649624812406203091e+03 3.337321264631067601e-05
1.650525262631315627e+03 3.311049749128574268e-05
1.651425712856428163e+03 3.275742495417861518e-05
1.652326163081540699e+03 3.230966985962794284e-05
1.653226613306653235e+03 3.184071334210303842e-05
1.654127063531765771e+03 3.140356450733452424e-05
1.655027513756878307e+03 3.100888519631992920e-05
1.655927963981990843e+03 3.065000760096625631e-05
1.656828414207103378e+03 3.031815080042464465e-05
1.657728864432216142e+03 3.000644264621278175e-05
1.658629314657328678e+03 2.971010180738480351e-05
1.659529764882441214e+03 2.942587861864022554e-05
1.660430215107553749e+03 2.915154247029021764e-05
1.661330665332666285e+03 2.888552706904167961e-05
1.662231115557778821e+03 2.862670225716312659e-05
1.663131565782891357e+03 2.837422942495179416e-05
1.664032016008003893e+03 2.812746924293560514e-05
1.664932466233116429e+03 2.788592181638146515e-05
1.665832916458228965e+03 2.764918708645462404e-05
1.666733366683341501e+03 2.741693806976466149e-05
1.667633816908454037e+03 2.718890239089793819e-05
1.668534267133566800e+03 2.696484927780448953e-05
1.669434717358679336e+03 2.674458022687624349e-05
1.670335167583791872e+03 2.652792218044157282e-05
1.671235617808904408e+03 2.631472245587338039e-05
1.672136068034016944e+03 2.610484491704687619e-05
1.673036518259129480e+03 2.589816704130780653e-05
1.673936968484242016e+03 2.569457764179978134e-05
1.674837418709354552e+03 2.549397507625763607e-05
1.675737868934467087e+03 2.529626582171908773e-05
1.676638319159579623e+03 2.510136332791656629e-05
1.677538769384692159e+03 2.490918708538706689e-05
1.678439219609804923e+03 2.471966186082098327e-05
1.679339669834917459e+03 2.453271706400243928e-05
1.680240120060029994e+03 2.434828621928531413e-05
1.681140570285142530e+03 2.416630652085219658e-05
1.682041020510255066e+03 2.398671845570102645e-05
1.682941470735367602e+03 2.380946548180348454e-05
1.683841920960480138e+03 2.363449375155538630e-05
1.684742371185592674e+03 2.346175187266408854e-05
1.685642821410705210e+03 2.329119070019006278e-05
1.686543271635817746e+03 2.312276315467780158e-05
1.687443721860930282e+03 2.295642406226671158e-05
1.688344172086043045e+03 2.279213001342470337e-05
1.689244622311155581e+03 2.262983923754583785e-05
1.690145072536268117e+03 2.246951149113211432e-05
1.691045522761380653e+03 2.231110795766375757e-05
1.691945972986493189e+03 2.215459115757647160e-05
1.692846423211605725e+03 2.199992486701369033e-05
1.693746873436718261e+03 2.184707404423332611e-05
1.694647323661830796e+03 2.169600476271853339e-05
1.695547773886943332e+03 2.154668415018132116e-05
1.696448224112055868e+03 2.139908033276812340e-05
1.697348674337168404e+03 2.125316238387267654e-05
1.698249124562281168e+03 2.110890027704384039e-05
1.699149574787393703e+03 2.096626484254494760e-05
1.700050025012506239e+03 2.082522772718265291e-05
1.700950475237618775e+03 2.068576135706583194e-05
1.701850925462731311e+03 2.054783890300598958e-05
1.702751375687843847e+03 2.041143424829969092e-05
1.703651825912956383e+03 2.027652195866843266e-05
1.704552276138068919e+03 2.014307725415649883e-05
1.705452726363181455e+03 2.001107598280902917e-05
1.706353176588293991e+03 1.988049459597672264e-05
1.707253626813406527e+03 1.975131012510604375e-05
1.708154077038519290e+03 1.962350015988900139e-05
1.709054527263631826e+03 1.949704282766710566e-05
1.709954977488744362e+03 1.937191677398260369e-05
1.710855427713856898e+03 1.924810114419385991e-05
1.711755877938969434e+03 1.912557556607045534e-05
1.712656328164081970e+03 1.900432013329678718e-05
1.713556778389194506e+03 1.888431538981830710e-05
1.714457228614307041e+03 1.876554231496932007e-05
1.715357678839419577e+03 1.864798230933160334e-05
1.716258129064532113e+03 1.853161718126899492e-05
1.717158579289644649e+03 1.841642913409880511e-05
1.718059029514757185e+03 1.830240075385472821e-05
1.718959479739869948e+03 1.818951499760662738e-05
1.719859929964982484e+03 1.807775518229880887e-05
1.720760380190095020e+03 1.796710497408085262e-05
1.721660830415207556e+03 1.785754837809529170e-05
1.722561280640320092e+03 1.774906972870160196e-05
1.723461730865432628e+03 1.764165368010599486e-05
1.724362181090545164e+03 1.753528519737932088e-05
1.725262631315657700e+03 1.742994954783782827e-05
1.726163081540770236e+03 1.732563229277005333e-05
1.727063531765882772e+03 1.722231927948976419e-05
1.727963981990995308e+03 1.711999663369964366e-05
1.728864432216108071e+03 1.701865075214852328e-05
1.729764882441220607e+03 1.691826829556903266e-05
1.730665332666333143e+03 1.681883618188133913e-05
1.731565782891445679e+03 1.672034157964987245e-05
1.732466233116558215e+03 1.662277190178284981e-05
1.733366683341670750e+03 1.652611479946197352e-05
1.734267133566783286e+03 1.643035815629261483e-05
1.735167583791895822e+03 1.633549008266525453e-05
1.736068034017008358e+03 1.624149891031935082e-05
1.736968484242120894e+03 1.614837318709944303e-05
1.737868934467233430e+03 1.605610167189881898e-05
1.738769384692346193e+03 1.596467332978044254e-05
1.739669834917458729e+03 1.587407732727038796e-05
1.740570285142571265e+03 1.578430302781607292e-05
1.741470735367683801e+03 1.569533998740404551e-05
1.742371185592796337e+03 1.560717795033234111e-05
1.743271635817908873e+03 1.551980684513033147e-05
1.744172086043021409e+03 1.543321678062333852e-05
1.745072536268133945e+03 1.534739804213704580e-05
1.745972986493246481e+03 1.526234108783645948e-05
1.746873436718359017e+03 1.517803654519745365e-05
1.747773886943471553e+03 1.509447520760607708e-05
1.748674337168584316e+03 1.501164803108352067e-05
1.749574787393696852e+03 1.492954613113235113e-05
1.750475237618809388e+03 1.484816077970390440e-05
1.751375687843921924e+03 1.476748340228287957e-05
1.752276138069034459e+03 1.468750557508632111e-05
1.753176588294146995e+03 1.460821902237895315e-05
1.754077038519259531e+03 1.452961561389926817e-05
1.754977488744372067e+03 1.445168736239850672e-05
1.755877938969484603e+03 1.437442642129005795e-05
1.756778389194597139e+03 1.429782508240999260e-05
1.757678839419709675e+03 1.422187577388781869e-05
1.758579289644822438e+03 1.414657105812854069e-05
1.759479739869934974e+03 1.407190362990655929e-05
1.760380190095047510e+03 1.399786631457148449e-05
1.761280640320160046e+03 1.392445206636914524e-05
1.762181090545272582e+03 1.385165396687855778e-05
1.763081540770385118e+03 1.377946522356699931e-05
1.763981990995497654e+03 1.370787916846752354e-05
1.764882441220610190e+03 1.363688925698055141e-05
1.765782891445722726e+03 1.356648906680531020e-05
1.766683341670835262e+03 1.349667229700488196e-05
1.767583791895947797e+03 1.342743276721032287e-05
1.768484242121060333e+03 1.335876441697041980e-05
1.769384692346173097e+03 1.329066130525435489e-05
1.770285142571285633e+03 1.322311761011453051e-05
1.771185592796398169e+03 1.315612762851909056e-05
1.772086043021510704e+03 1.308968577636471066e-05
1.772986493246623240e+03 1.302378658868062293e-05
1.773886943471735776e+03 1.295842472003724000e-05
1.774787393696848312e+03 1.289359494517288988e-05
1.775687843921960848e+03 1.282929215985690360e-05
1.776588294147073384e+03 1.276551138200612998e-05
1.777488744372185920e+03 1.270224775307442711e-05
1.778389194597298456e+03 1.263949653974106670e-05
1.779289644822411219e+03 1.257725313592128024e-05
1.780190095047523755e+03 1.251551306512982487e-05
1.781090545272636291e+03 1.245427198322812634e-05
1.781990995497748827e+03 1.239352568159565844e-05
1.782891445722861363e+03 1.233327009076279961e-05
1.783791895947973899e+03 1.227350128455449603e-05
1.784692346173086435e+03 1.221421548479751512e-05
1.785592796398198971e+03 1.215540906664855891e-05
1.786493246623311506e+03 1.209707856461474892e-05
1.787393696848424042e+03 1.203922067933852775e-05
1.788294147073536578e+03 1.198183228523666980e-05
1.789194597298649342e+03 1.192491043909124008e-05
1.790095047523761878e+03 1.186845238970325073e-05
1.790995497748874413e+03 1.181245558873945322e-05
1.791895947973986949e+03 1.175691770291565711e-05
1.792796398199099485e+03 1.170183662768548716e-05
1.793696848424212021e+03 1.164721050262462267e-05
1.794597298649324557e+03 1.159303772873234836e-05
1.795497748874437093e+03 1.153931698790134014e-05
1.796398199099549629e+03 1.148604726485005701e-05
1.797298649324662165e+03 1.143322787185376523e-05
1.798199099549774701e+03 1.138085847666560558e-05
1.799099549774887464e+03 1.132893913408320568e-05
1.800000000000000000e+03 1.127747032168875239e-05
