0.000000000000000000e+00 7.946558531212868448e-04
9.004502251125562351e-01 1.045139185730670044e-03
1.800900450225112470e+00 1.301230934189378857e-03
2.701350675337668594e+00 1.465191179840961370e-03
3.601800900450224940e+00 1.483688981084562699e-03
4.502251125562780842e+00 1.394183272376446278e-03
5.402701350675337189e+00 1.248311077228970176e-03
6.303151575787893535e+00 1.062525423408488320e-03
7.203601800900449881e+00 8.516552146340695137e-04
8.104052026013006227e+00 6.560697555949767876e-04
9.004502251125561685e+00 5.015964842140332221e-04
9.904952476238118919e+00 3.882000520234864336e-04
1.080540270135067438e+01 3.062813063112148813e-04
1.170585292646323161e+01 2.464982645795794338e-04
1.260630315157578707e+01 2.021505746238200783e-04
1.350675337668834430e+01 1.687576377837891439e-04
1.440720360180089976e+01 1.432152066813103077e-04
1.530765382691345522e+01 1.232741507611784021e-04
1.620810405202601245e+01 1.073226203003922958e-04
1.710855427713856969e+01 9.432690720519211762e-05
1.800900450225112337e+01 8.359659933906649846e-05
1.890945472736368060e+01 7.460958378173789278e-05
1.980990495247623784e+01 6.703740609875572648e-05
2.071035517758879507e+01 6.069298883249193635e-05
2.161080540270134875e+01 5.537592095746951716e-05
2.251125562781390599e+01 5.084026253509808666e-05
2.341170585292646322e+01 4.687357842809533495e-05
2.431215607803901690e+01 4.336555497826429488e-05
2.521260630315157414e+01 4.035635127067663366e-05
2.611305652826413137e+01 3.791246416906134711e-05
2.701350675337668861e+01 3.597141780412015653e-05
2.791395697848924229e+01 3.431258461739004716e-05
2.881440720360179952e+01 3.265328282412316446e-05
2.971485742871435676e+01 3.083590369452151637e-05
3.061530765382691044e+01 2.893408186259186442e-05
3.151575787893946767e+01 2.713991394002800644e-05
3.241620810405202491e+01 2.557738520677221031e-05
3.331665832916458214e+01 2.423217842488104845e-05
3.421710855427713938e+01 2.300063244299322258e-05
3.511755877938969661e+01 2.181972691206351039e-05
3.601800900450224674e+01 2.070703441528330639e-05
3.691845922961480397e+01 1.968654003064820472e-05
3.781890945472736121e+01 1.878126120575427676e-05
3.871935967983991844e+01 1.800522906342052568e-05
3.961980990495247568e+01 1.731561979585153301e-05
4.052026013006503291e+01 1.665540785327237046e-05
4.142071035517759015e+01 1.605299641417642700e-05
4.232116058029014027e+01 1.559401333508521987e-05
4.322161080540269751e+01 1.534002996650116922e-05
4.412206103051525474e+01 1.530205356632287955e-05
4.502251125562781198e+01 1.542384756773774272e-05
4.592296148074036921e+01 1.557659795618915926e-05
4.682341170585292645e+01 1.564350766797615824e-05
4.772386193096548368e+01 1.556725283280801608e-05
4.862431215607803381e+01 1.532843148279902409e-05
4.952476238119059104e+01 1.497874461761544716e-05
5.042521260630314828e+01 1.462215710107157225e-05
5.132566283141570551e+01 1.435801962078231796e-05
5.222611305652826275e+01 1.422414553027712090e-05
5.312656328164081998e+01 1.414264243154108316e-05
5.402701350675337721e+01 1.393674341604268099e-05
5.492746373186592734e+01 1.348966790552211760e-05
5.582791395697848458e+01 1.292918632922998181e-05
5.672836418209104181e+01 1.245115544715657929e-05
5.762881440720359905e+01 1.211215692490187565e-05
5.852926463231615628e+01 1.190670259867289162e-05
5.942971485742871351e+01 1.183479239084753301e-05
6.033016508254127075e+01 1.188375222672004721e-05
6.123061530765382088e+01 1.201215039254899466e-05
6.213106553276637811e+01 1.215181791508368869e-05
6.303151575787893535e+01 1.227450277863268499e-05
6.393196598299149258e+01 1.243095369065507454e-05
6.483241620810404982e+01 1.264514489278861061e-05
6.573286643321659994e+01 1.282586893071475694e-05
6.663331665832916428e+01 1.291662110250484246e-05
6.753376688344171441e+01 1.301680887668922652e-05
6.843421710855427875e+01 1.319435400631113856e-05
6.933466733366682888e+01 1.344024701753895464e-05
7.023511755877939322e+01 1.373411471784360697e-05
7.113556778389194335e+01 1.398473774330446888e-05
7.203601800900449348e+01 1.409724558688086797e-05
7.293646823411705782e+01 1.403724721211079254e-05
7.383691845922960795e+01 1.391235713993377128e-05
7.473736868434217229e+01 1.393322145742415606e-05
7.563781890945472242e+01 1.420128924799526916e-05
7.653826913456728676e+01 1.464157561933836033e-05
7.743871935967983688e+01 1.507851298872751472e-05
7.833916958479238701e+01 1.528038059136333209e-05
7.923961980990495135e+01 1.513068219116426353e-05
8.014007003501750148e+01 1.479676143074058250e-05
8.104052026013006582e+01 1.448753614335286897e-05
8.194097048524261595e+01 1.431107576318594103e-05
8.284142071035518029e+01 1.432085043530181929e-05
8.374187093546773042e+01 1.442708316498055904e-05
8.464232116058028055e+01 1.445500107540114747e-05
8.554277138569284489e+01 1.439250056841469653e-05
8.644322161080539502e+01 1.440898580154644560e-05
8.734367183591795936e+01 1.463027417300410106e-05
8.824412206103050949e+01 1.494000565606854898e-05
8.914457228614307382e+01 1.506873652923278761e-05
9.004502251125562395e+01 1.496019769726752683e-05
9.094547273636817408e+01 1.481164537667728675e-05
9.184592296148073842e+01 1.476595177074520256e-05
9.274637318659328855e+01 1.483400880448193628e-05
9.364682341170585289e+01 1.495896951056357167e-05
9.454727363681840302e+01 1.505739986862788771e-05
9.544772386193096736e+01 1.504852815017121653e-05
9.634817408704351749e+01 1.481870161178298721e-05
9.724862431215606762e+01 1.432145211050971578e-05
9.814907453726863196e+01 1.370687280877754537e-05
9.904952476238118209e+01 1.319727736159913285e-05
9.994997498749374643e+01 1.291793199576633923e-05
1.008504252126062966e+02 1.281612864395368861e-05
1.017508754377188609e+02 1.272747552334548097e-05
1.026513256628314110e+02 1.256416137127380644e-05
1.035517758879439612e+02 1.237477665627128486e-05
1.044522261130565255e+02 1.228049272741873579e-05
1.053526763381690756e+02 1.240742980279614691e-05
1.062531265632816400e+02 1.279695749105645528e-05
1.071535767883941901e+02 1.334175288731031283e-05
1.080540270135067544e+02 1.384478633472893175e-05
1.089544772386193046e+02 1.414879099908426710e-05
1.098549274637318547e+02 1.427192362800355526e-05
1.107553776888444190e+02 1.440688948347637148e-05
1.116558279139569692e+02 1.476035382684489097e-05
1.125562781390695335e+02 1.540226421108529430e-05
1.134567283641820836e+02 1.617425982158375407e-05
1.143571785892946480e+02 1.675560335102651394e-05
1.152576288144071981e+02 1.696002309158742608e-05
1.161580790395197482e+02 1.694888946789793334e-05
1.170585292646323126e+02 1.701076453161049309e-05
1.179589794897448627e+02 1.730172015943156228e-05
1.188594297148574270e+02 1.775992340082370753e-05
1.197598799399699772e+02 1.822127424556361656e-05
1.206603301650825415e+02 1.859575901297198458e-05
1.215607803901950916e+02 1.888010032397730438e-05
1.224612306153076418e+02 1.906936256057172060e-05
1.233616808404202061e+02 1.907084612077236278e-05
1.242621310655327562e+02 1.882325722099093207e-05
1.251625812906453206e+02 1.844664924212095062e-05
1.260630315157578707e+02 1.808308499485473768e-05
1.269634817408704350e+02 1.779763588628949513e-05
1.278639319659829852e+02 1.757004403984423319e-05
1.287643821910955353e+02 1.731087917930110634e-05
1.296648324162080996e+02 1.705435991531119747e-05
1.305652826413206640e+02 1.694171504367816377e-05
1.314657328664331999e+02 1.708113806694408561e-05
1.323661830915457642e+02 1.748827175170357737e-05
1.332666333166583286e+02 1.803164486512209036e-05
1.341670835417708929e+02 1.853640357025462416e-05
1.350675337668834288e+02 1.886454353269877965e-05
1.359679839919959932e+02 1.896060727847059428e-05
1.368684342171085575e+02 1.889613091545345213e-05
1.377688844422210934e+02 1.881807929305866935e-05
1.386693346673336578e+02 1.885693807633632659e-05
1.395697848924462221e+02 1.909994119706457199e-05
1.404702351175587864e+02 1.961889467396617570e-05
1.413706853426713224e+02 2.039737030243583805e-05
1.422711355677838867e+02 2.127069831529375128e-05
1.431715857928964510e+02 2.191388978502801482e-05
1.440720360180089870e+02 2.201440050625970074e-05
1.449724862431215513e+02 2.160488339207942239e-05
1.458729364682341156e+02 2.098038725302151902e-05
1.467733866933466800e+02 2.032418511509562626e-05
1.476738369184592159e+02 1.965182709046100896e-05
1.485742871435717802e+02 1.905601797586170001e-05
1.494747373686843446e+02 1.871555931907415554e-05
1.503751875937968805e+02 1.870274290967907500e-05
1.512756378189094448e+02 1.895866713224156707e-05
1.521760880440220092e+02 1.934959968279463348e-05
1.530765382691345735e+02 1.970707931015477015e-05
1.539769884942471094e+02 1.995587636560012236e-05
1.548774387193596738e+02 2.015386631906413540e-05
1.557778889444722381e+02 2.038405509731074363e-05
1.566783391695847740e+02 2.073526567798482088e-05
1.575787893946973384e+02 2.119511263375169698e-05
1.584792396198099027e+02 2.165464259614723221e-05
1.593796898449224670e+02 2.212463344627390959e-05
1.602801400700350030e+02 2.270388250542637433e-05
1.611805902951475673e+02 2.333931429652129507e-05
1.620810405202601316e+02 2.386150871914636488e-05
1.629814907453726676e+02 2.416742690432152209e-05
1.638819409704852319e+02 2.426774959967973526e-05
1.647823911955977962e+02 2.423465660067179828e-05
1.656828414207103606e+02 2.416929085042151116e-05
1.665832916458228965e+02 2.409202292326168335e-05
1.674837418709354608e+02 2.401815988063589052e-05
1.683841920960480252e+02 2.394648540956817963e-05
1.692846423211605611e+02 2.377195568565127566e-05
1.701850925462731254e+02 2.350080787394892977e-05
1.710855427713856898e+02 2.332865307954925564e-05
1.719859929964982541e+02 2.339467205355995143e-05
1.728864432216107900e+02 2.369705324220914777e-05
1.737868934467233544e+02 2.417621166395492497e-05
1.746873436718359187e+02 2.471074285760032225e-05
1.755877938969484546e+02 2.511090773771862530e-05
1.764882441220610190e+02 2.523883083347008805e-05
1.773886943471735833e+02 2.515775653530054118e-05
1.782891445722861476e+02 2.504963120979590845e-05
1.791895947973986836e+02 2.498315701798678256e-05
1.800900450225112479e+02 2.494610804639305852e-05
1.809904952476238122e+02 2.494467235647685022e-05
1.818909454727363482e+02 2.506289459159245949e-05
1.827913956978489125e+02 2.543434563137942733e-05
1.836918459229614768e+02 2.606551958062776832e-05
1.845922961480740412e+02 2.684031810356397109e-05
1.854927463731865771e+02 2.761883932176507951e-05
1.863931965982991414e+02 2.817766761735523648e-05
1.872936468234117058e+02 2.836180792150243656e-05
1.881940970485242417e+02 2.834159717502002753e-05
1.890945472736368060e+02 2.845165237879962165e-05
1.899949974987493704e+02 2.883127196384119650e-05
1.908954477238619347e+02 2.934347968255547333e-05
1.917958979489744706e+02 2.979981234103958640e-05
1.926963481740870350e+02 3.014620629038468937e-05
1.935967983991995993e+02 3.034671816718507401e-05
1.944972486243121352e+02 3.033424674207943684e-05
1.953976988494246996e+02 3.005884826488032372e-05
1.962981490745372639e+02 2.959432489289141050e-05
1.971985992996498283e+02 2.917564947384343392e-05
1.980990495247623642e+02 2.890562359954535244e-05
1.989994997498749285e+02 2.870530435177537021e-05
1.998999499749874929e+02 2.859795826174766300e-05
2.008004002001000288e+02 2.869137469942478795e-05
2.017008504252125931e+02 2.891039988920980511e-05
2.026013006503251574e+02 2.917070949859822593e-05
2.035017508754377218e+02 2.962073349175047251e-05
2.044022011005502577e+02 3.028814942063541265e-05
2.053026513256628220e+02 3.088222341270136396e-05
2.062031015507753864e+02 3.113946035923111089e-05
2.071035517758879223e+02 3.096241068464591049e-05
2.080040020010004866e+02 3.045804826778854139e-05
2.089044522261130510e+02 2.993239879450125757e-05
2.098049024512256153e+02 2.957040038024314328e-05
2.107053526763381512e+02 2.931589294122424063e-05
2.116058029014507156e+02 2.900236342268537926e-05
2.125062531265632799e+02 2.851701450964127922e-05
2.134067033516758158e+02 2.794999822323998822e-05
2.143071535767883802e+02 2.754469650368086077e-05
2.152076038019009445e+02 2.745123317444635007e-05
2.161080540270135089e+02 2.760050645539071732e-05
2.170085042521260448e+02 2.790976509101515988e-05
2.179089544772386091e+02 2.834958451764265413e-05
2.188094047023511735e+02 2.879322819330844025e-05
2.197098549274637094e+02 2.912025096468977037e-05
2.206103051525762737e+02 2.936264699413018462e-05
2.215107553776888381e+02 2.958177144243606167e-05
2.224112056028014024e+02 2.973291372558153141e-05
2.233116558279139383e+02 2.984303188505527389e-05
2.242121060530265027e+02 3.009721820054571238e-05
2.251125562781390670e+02 3.067007085771975960e-05
2.260130065032516029e+02 3.158974517505301599e-05
2.269134567283641672e+02 3.273216537577483955e-05
2.278139069534767316e+02 3.389997330629959237e-05
2.287143571785892959e+02 3.496825947700128804e-05
2.296148074037018318e+02 3.598917793881676794e-05
2.305152576288143962e+02 3.712512303965292341e-05
2.314157078539269605e+02 3.851761954144334546e-05
2.323161580790394964e+02 4.014157917488389538e-05
2.332166083041520608e+02 4.171340462874568940e-05
2.341170585292646251e+02 4.282264714463906909e-05
2.350175087543771895e+02 4.323757779547195580e-05
2.359179589794897254e+02 4.307220745383400190e-05
2.368184092046022897e+02 4.268212743464097376e-05
2.377188594297148541e+02 4.240773287577812646e-05
2.386193096548273900e+02 4.243342081094799594e-05
2.395197598799399543e+02 4.287894502767953592e-05
2.404202101050525187e+02 4.371516270332274944e-05
2.413206603301650830e+02 4.458229488908403883e-05
2.422211105552776189e+02 4.504724147865860659e-05
2.431215607803901833e+02 4.500770044058265547e-05
2.440220110055027476e+02 4.478175082313552740e-05
2.449224612306152835e+02 4.476957625706811636e-05
2.458229114557278479e+02 4.499722470365338556e-05
2.467233616808404122e+02 4.518360898832228555e-05
2.476238119059529765e+02 4.517847532716928749e-05
2.485242621310655124e+02 4.502060648154858835e-05
2.494247123561780768e+02 4.467982887482475077e-05
2.503251625812906411e+02 4.410456376930572438e-05
2.512256128064031770e+02 4.339671009899047534e-05
2.521260630315157414e+02 4.266560419846957518e-05
2.530265132566283057e+02 4.204936975672625123e-05
2.539269634817408701e+02 4.184639687294475110e-05
2.548274137068534060e+02 4.218478907473920532e-05
2.557278639319659703e+02 4.287622248400845785e-05
2.566283141570785347e+02 4.370700366202391097e-05
2.575287643821910706e+02 4.454244234483594622e-05
2.584292146073036633e+02 4.525429463293269988e-05
2.593296648324161993e+02 4.575329415881151316e-05
2.602301150575287352e+02 4.588987473192270597e-05
2.611305652826413279e+02 4.552327440473599870e-05
2.620310155077538639e+02 4.482434234247410814e-05
2.629314657328663998e+02 4.427524902233030240e-05
2.638319159579789925e+02 4.424681824477396888e-05
2.647323661830915285e+02 4.466762979533929056e-05
2.656328164082040644e+02 4.524572185583232220e-05
2.665332666333166571e+02 4.569190775104994639e-05
2.674337168584291931e+02 4.569518665457413003e-05
2.683341670835417858e+02 4.523100501193786022e-05
2.692346173086543217e+02 4.471357735893470613e-05
2.701350675337668577e+02 4.449339177099533352e-05
2.710355177588794504e+02 4.452551811757913207e-05
2.719359679839919863e+02 4.469455034634772046e-05
2.728364182091045222e+02 4.503676613471991518e-05
2.737368684342171150e+02 4.558169247026969969e-05
2.746373186593296509e+02 4.634796259439507096e-05
2.755377688844421868e+02 4.745665090821647389e-05
2.764382191095547796e+02 4.900320604951261477e-05
2.773386693346673155e+02 5.078796884666682038e-05
2.782391195597798514e+02 5.242456787284851508e-05
2.791395697848924442e+02 5.366682326578998280e-05
2.800400200100049801e+02 5.448570927570475580e-05
2.809404702351175729e+02 5.495192546000523664e-05
2.818409204602301088e+02 5.513125730309381396e-05
2.827413706853426447e+02 5.500475731885774131e-05
2.836418209104552375e+02 5.443925047713855394e-05
2.845422711355677734e+02 5.334812290678780662e-05
2.854427213606803093e+02 5.192517545523301969e-05
2.863431715857929021e+02 5.072465439545696214e-05
2.872436218109054380e+02 5.021660137091271794e-05
2.881440720360179739e+02 5.046816934587595738e-05
2.890445222611305667e+02 5.130708418159983031e-05
2.899449724862431026e+02 5.251616735050037026e-05
2.908454227113556385e+02 5.384942768831705234e-05
2.917458729364682313e+02 5.498508281962695963e-05
2.926463231615807672e+02 5.571744476320748010e-05
2.935467733866933600e+02 5.618345412164231603e-05
2.944472236118058959e+02 5.665962289574910085e-05
2.953476738369184318e+02 5.734115553001608369e-05
2.962481240620310246e+02 5.807521252431362005e-05
2.971485742871435605e+02 5.854970339879542510e-05
2.980490245122560964e+02 5.882745501934834911e-05
2.989494747373686891e+02 5.903707105228135188e-05
2.998499249624812251e+02 5.905191213113822606e-05
3.007503751875937610e+02 5.886360160070769505e-05
3.016508254127063537e+02 5.864084632388999170e-05
3.025512756378188897e+02 5.847170412597691531e-05
3.034517258629314256e+02 5.828245400193223522e-05
3.043521760880440183e+02 5.801121108415227057e-05
3.052526263131565543e+02 5.778914231988032584e-05
3.061530765382691470e+02 5.775882318774089839e-05
3.070535267633816829e+02 5.795731071814645116e-05
3.079539769884942189e+02 5.838315812735616608e-05
3.088544272136068116e+02 5.902762229990462286e-05
3.097548774387193475e+02 5.978650263436902866e-05
3.106553276638318835e+02 6.039811134611293973e-05
3.115557778889444762e+02 6.068485104322011189e-05
3.124562281140570121e+02 6.073027048264191600e-05
3.133566783391695481e+02 6.063875016650433213e-05
3.142571285642821408e+02 6.019403239198922381e-05
3.151575787893946767e+02 5.938803763639578478e-05
3.160580290145072127e+02 5.881176247519022778e-05
3.169584792396198054e+02 5.880891438912235213e-05
3.178589294647323413e+02 5.912491723938620203e-05
3.187593796898449341e+02 5.951343874979761277e-05
3.196598299149574700e+02 5.987758863193529113e-05
3.205602801400700059e+02 5.994801017912035313e-05
3.214607303651825987e+02 5.956169820944647096e-05
3.223611805902951346e+02 5.900889294626212678e-05
3.232616308154076705e+02 5.866074266125128700e-05
3.241620810405202633e+02 5.873259845805320047e-05
3.250625312656327992e+02 5.919226628780020571e-05
3.259629814907453351e+02 5.979925775699852634e-05
3.268634317158579279e+02 6.039215469370222498e-05
3.277638819409704638e+02 6.082685562491087835e-05
3.286643321660829997e+02 6.077936816558708952e-05
3.295647823911955925e+02 6.004849921455440443e-05
3.304652326163081284e+02 5.898775050764844919e-05
3.313656828414207212e+02 5.799869680538246691e-05
3.322661330665332571e+02 5.723290785039047540e-05
3.331665832916457930e+02 5.688761412340987360e-05
3.340670335167583858e+02 5.706420121894027422e-05
3.349674837418709217e+02 5.765936261842003716e-05
3.358679339669834576e+02 5.851697298981619244e-05
3.367683841920960504e+02 5.952924194142980699e-05
3.376688344172085863e+02 6.072770873733148074e-05
3.385692846423211222e+02 6.215824722234982054e-05
3.394697348674337150e+02 6.361713376859105026e-05
3.403701850925462509e+02 6.474176031195545277e-05
3.412706353176587868e+02 6.519177416973086453e-05
3.421710855427713796e+02 6.470355808696738001e-05
3.430715357678839155e+02 6.342853471162270679e-05
3.439719859929965082e+02 6.189706821260791908e-05
3.448724362181090441e+02 6.064691390265367668e-05
3.457728864432215801e+02 5.972258394138027781e-05
3.466733366683341728e+02 5.867960046477368639e-05
3.475737868934467087e+02 5.735899188954338916e-05
3.484742371185592447e+02 5.609103528054212791e-05
3.493746873436718374e+02 5.523351954410683751e-05
3.502751375687843733e+02 5.487192846071397515e-05
3.511755877938969093e+02 5.487134001327449744e-05
3.520760380190095020e+02 5.501647826264179363e-05
3.529764882441220379e+02 5.523809817955650065e-05
3.538769384692345739e+02 5.570891250941953024e-05
3.547773886943471666e+02 5.638147822647292907e-05
3.556778389194597025e+02 5.690364828773351408e-05
3.565782891445722953e+02 5.709880676968505554e-05
3.574787393696848312e+02 5.720088947307425689e-05
3.583791895947973671e+02 5.735986208823877182e-05
3.592796398199099599e+02 5.739618949914579682e-05
3.601800900450224958e+02 5.735273975650665741e-05
3.610805402701350317e+02 5.762122970609245430e-05
3.619809904952476245e+02 5.839006567487509938e-05
3.628814407203601604e+02 5.945650988854937980e-05
3.637818909454726963e+02 6.040178802106645694e-05
3.646823411705852891e+02 6.079910751925359002e-05
3.655827913956978250e+02 6.056859695340885099e-05
3.664832416208103609e+02 5.994967057064780851e-05
3.673836918459229537e+02 5.913667766725093220e-05
3.682841420710354896e+02 5.812607867263355820e-05
3.691845922961480824e+02 5.688679411287737489e-05
3.700850425212606183e+02 5.553107414302366446e-05
3.709854927463731542e+02 5.427981803291354295e-05
3.718859429714857470e+02 5.334895896370337256e-05
3.727863931965982829e+02 5.301955211143486010e-05
3.736868434217108188e+02 5.345498077513964445e-05
3.745872936468234116e+02 5.433585515598405766e-05
3.754877438719359475e+02 5.508411047259965856e-05
3.763881940970484834e+02 5.530127673491421782e-05
3.772886443221610762e+02 5.489658574812189237e-05
3.781890945472736121e+02 5.405117232491521667e-05
3.790895447723861480e+02 5.308572856472352250e-05
3.799899949974987408e+02 5.225621206055172473e-05
3.808904452226112767e+02 5.169566363525128407e-05
3.817908954477238694e+02 5.151808766948259177e-05
3.826913456728364054e+02 5.176531690829077757e-05
3.835917958979489413e+02 5.220566869340604601e-05
3.844922461230615340e+02 5.249445461755064540e-05
3.853926963481740700e+02 5.256026653538308418e-05
3.862931465732866059e+02 5.261016880765912113e-05
3.871935967983991986e+02 5.283894513610652217e-05
3.880940470235117346e+02 5.327973080127465489e-05
3.889944972486242705e+02 5.379218866589080127e-05
3.898949474737368632e+02 5.422785344287838074e-05
3.907953976988493991e+02 5.459938278362198237e-05
3.916958479239619351e+02 5.491432356557873209e-05
3.925962981490745278e+02 5.494643308654053958e-05
3.934967483741870637e+02 5.453552554688476404e-05
3.943971985992996565e+02 5.379236060579020582e-05
3.952976488244121924e+02 5.301254143704444349e-05
3.961980990495247283e+02 5.247763840568806090e-05
3.970985492746373211e+02 5.230237810057298794e-05
3.979989994997498570e+02 5.248377104809951252e-05
3.988994497248623929e+02 5.280882757518599884e-05
3.997998999499749857e+02 5.290966234758602316e-05
4.007003501750875216e+02 5.267078367305020887e-05
4.016008004002000575e+02 5.233101566235467083e-05
4.025012506253126503e+02 5.210587919546770736e-05
4.034017008504251862e+02 5.201872061981160754e-05
4.043021510755377221e+02 5.193336633788718911e-05
4.052026013006503149e+02 5.167856933839291373e-05
4.061030515257628508e+02 5.129802472306263636e-05
4.070035017508754436e+02 5.097804371830371556e-05
4.079039519759879795e+02 5.075749054000243247e-05
4.088044022011005154e+02 5.055813151906064941e-05
4.097048524262131082e+02 5.039855538712767306e-05
4.106053026513256441e+02 5.038809281460595549e-05
4.115057528764381800e+02 5.063900105801160290e-05
4.124062031015507728e+02 5.119240327807365534e-05
4.133066533266633087e+02 5.196525104094991079e-05
4.142071035517758446e+02 5.269132642650241989e-05
4.151075537768884374e+02 5.306600435517770035e-05
4.160080040020009733e+02 5.307076756020473826e-05
4.169084542271135092e+02 5.280354181292028334e-05
4.178089044522261020e+02 5.230615311294270454e-05
4.187093546773386379e+02 5.174876317512363535e-05
4.196098049024512306e+02 5.140621403835035267e-05
4.205102551275637666e+02 5.142471270926570343e-05
4.214107053526763025e+02 5.171011727420141553e-05
4.223111555777888952e+02 5.199566361681296975e-05
4.232116058029014312e+02 5.216099230831948690e-05
4.241120560280139671e+02 5.222819157396812372e-05
4.250125062531265598e+02 5.218843733273766008e-05
4.259129564782390958e+02 5.214934089123472635e-05
4.268134067033516317e+02 5.231293002717087953e-05
4.277138569284642244e+02 5.279509301580959172e-05
4.286143071535767604e+02 5.352543443160572012e-05
4.295147573786892963e+02 5.423666562906912300e-05
4.304152076038018890e+02 5.468618750027017043e-05
4.313156578289144250e+02 5.506005952182473642e-05
4.322161080540270177e+02 5.564581709145745574e-05
4.331165582791395536e+02 5.621452605348096202e-05
4.340170085042520896e+02 5.637855181156940082e-05
4.349174587293646823e+02 5.607018109749033311e-05
4.358179089544772182e+02 5.549005921327160724e-05
4.367183591795897541e+02 5.496749304514339274e-05
4.376188094047023469e+02 5.473540567445641302e-05
4.385192596298148828e+02 5.486557752226305529e-05
4.394197098549274187e+02 5.533818117986714094e-05
4.403201600800400115e+02 5.614239159807925256e-05
4.412206103051525474e+02 5.712845779117186571e-05
4.421210605302650833e+02 5.799690723798096685e-05
4.430215107553776761e+02 5.860092654905270029e-05
4.439219609804902120e+02 5.904296887402185249e-05
4.448224112056028048e+02 5.950781456562005174e-05
4.457228614307153407e+02 6.000659374950248704e-05
4.466233116558278766e+02 6.047213283016823749e-05
4.475237618809404694e+02 6.091218708819925765e-05
4.484242121060530053e+02 6.122322795025221358e-05
4.493246623311655412e+02 6.120437045651110823e-05
4.502251125562781340e+02 6.086620564289351815e-05
4.511255627813906699e+02 6.049187736123058320e-05
4.520260130065032058e+02 6.039737253891207719e-05
4.529264632316157986e+02 6.064870041521356622e-05
4.538269134567283345e+02 6.105903650332546748e-05
4.547273636818408704e+02 6.140435788543458201e-05
4.556278139069534632e+02 6.160840003671617915e-05
4.565282641320659991e+02 6.182387370021442485e-05
4.574287143571785919e+02 6.233230952165689316e-05
4.583291645822911278e+02 6.332747344001220908e-05
4.592296148074036637e+02 6.465942755368701313e-05
4.601300650325162565e+02 6.589409738612095324e-05
4.610305152576287924e+02 6.668548240075539851e-05
4.619309654827413283e+02 6.707780195147212943e-05
4.628314157078539210e+02 6.729233327301544583e-05
4.637318659329664570e+02 6.738827899843211739e-05
4.646323161580789929e+02 6.727288503341548017e-05
4.655327663831915856e+02 6.688060863777163469e-05
4.664332166083041216e+02 6.617225416270320205e-05
4.673336668334167143e+02 6.519517956317024277e-05
4.682341170585292502e+02 6.415387762790411390e-05
4.691345672836417862e+02 6.320452543948621880e-05
4.700350175087543789e+02 6.239859882855029911e-05
4.709354677338669148e+02 6.182156508720058712e-05
4.718359179589794508e+02 6.153955663672043552e-05
4.727363681840920435e+02 6.141128704893380195e-05
4.736368184092045794e+02 6.122436404387538952e-05
4.745372686343171154e+02 6.096523802093124219e-05
4.754377188594297081e+02 6.071068051876793057e-05
4.763381690845422440e+02 6.056626011930583108e-05
4.772386193096547800e+02 6.065850125623844217e-05
4.781390695347673727e+02 6.102624571491334279e-05
4.790395197598799086e+02 6.155218591340285989e-05
4.799399699849925014e+02 6.195856515974621013e-05
4.808404202101050373e+02 6.210546789882426179e-05
4.817408704352175732e+02 6.207052774093868444e-05
4.826413206603301660e+02 6.189378874731755282e-05
4.835417708854427019e+02 6.158689385672735353e-05
4.844422211105552378e+02 6.118568021116994665e-05
4.853426713356678306e+02 6.073751252195750295e-05
4.862431215607803665e+02 6.029715078146126640e-05
4.871435717858929024e+02 5.984162716218708401e-05
4.880440220110054952e+02 5.941081004259248031e-05
4.889444722361180311e+02 5.906133000246832708e-05
4.898449224612305670e+02 5.886955355692909700e-05
4.907453726863431598e+02 5.904406105447720796e-05
4.916458229114556957e+02 5.977185123685602164e-05
4.925462731365682885e+02 6.108721021154286772e-05
4.934467233616808244e+02 6.286152716675604208e-05
4.943471735867933603e+02 6.470104757374456133e-05
4.952476238119059531e+02 6.595400760771437073e-05
4.961480740370184890e+02 6.635751171311880651e-05
4.970485242621310249e+02 6.628954987741827239e-05
4.979489744872436177e+02 6.621969688810584048e-05
4.988494247123561536e+02 6.636794580367502651e-05
4.997498749374686895e+02 6.665152844230847590e-05
5.006503251625812823e+02 6.683812203234089681e-05
5.015507753876938182e+02 6.684445754335576818e-05
5.024512256128063541e+02 6.679477409181061446e-05
5.033516758379189469e+02 6.676718276882404805e-05
5.042521260630314828e+02 6.682892125578104349e-05
5.051525762881440755e+02 6.724148592002436706e-05
5.060530265132566115e+02 6.820830036804674111e-05
5.069534767383691474e+02 6.949317410450492219e-05
5.078539269634817401e+02 7.053634506923818818e-05
5.087543771885942760e+02 7.111757271447812704e-05
5.096548274137068120e+02 7.144735061482087690e-05
5.105552776388194047e+02 7.155503104449820499e-05
5.114557278639319406e+02 7.124696709983173730e-05
5.123561780890445334e+02 7.047828865218383227e-05
5.132566283141570693e+02 6.958162625133041247e-05
5.141570785392696052e+02 6.900316632335640372e-05
5.150575287643821412e+02 6.878361398027618885e-05
5.159579789894946771e+02 6.867370518855114663e-05
5.168584292146073267e+02 6.852304675524290077e-05
5.177588794397198626e+02 6.829203487129369447e-05
5.186593296648323985e+02 6.812279772286360536e-05
5.195597798899449344e+02 6.822859688986740510e-05
5.204602301150574704e+02 6.851043746058379591e-05
5.213606803401700063e+02 6.870460507781331848e-05
5.222611305652826559e+02 6.886797276814057844e-05
5.231615807903951918e+02 6.923634842368806669e-05
5.240620310155077277e+02 6.977906952484961970e-05
5.249624812406202636e+02 7.027782865413800188e-05
5.258629314657327996e+02 7.066641856852446280e-05
5.267633816908454492e+02 7.108088289785469691e-05
5.276638319159579851e+02 7.167991595237512025e-05
5.285642821410705210e+02 7.259868856939574093e-05
5.294647323661830569e+02 7.389582462120385044e-05
5.303651825912955928e+02 7.537839449758184100e-05
5.312656328164081287e+02 7.676855312569140228e-05
5.321660830415207784e+02 7.809582308354037425e-05
5.330665332666333143e+02 7.958623422945628563e-05
5.339669834917458502e+02 8.133438842694984264e-05
5.348674337168583861e+02 8.313411475819114350e-05
5.357678839419709220e+02 8.459002602813661101e-05
5.366683341670835716e+02 8.543264824457965615e-05
5.375687843921961075e+02 8.567694328016332731e-05
5.384692346173086435e+02 8.551910595110363627e-05
5.393696848424211794e+02 8.518647683282523945e-05
5.402701350675337153e+02 8.485164133051903705e-05
5.411705852926462512e+02 8.462355253416698560e-05
5.420710355177589008e+02 8.463238036854167548e-05
5.429714857428714367e+02 8.489915812101151143e-05
5.438719359679839727e+02 8.527505814872475326e-05
5.447723861930965086e+02 8.555872327942164862e-05
5.456728364182090445e+02 8.564504405829498714e-05
5.465732866433215804e+02 8.547872322250453189e-05
5.474737368684342300e+02 8.511049218754522657e-05
5.483741870935467659e+02 8.459776428283145671e-05
5.492746373186593019e+02 8.388549531364303388e-05
5.501750875437718378e+02 8.328173848835871242e-05
5.510755377688843737e+02 8.338933074334794917e-05
5.519759879939970233e+02 8.421689465944484328e-05
5.528764382191095592e+02 8.506198243360455185e-05
5.537768884442220951e+02 8.518766434933159248e-05
5.546773386693346310e+02 8.434511327950303962e-05
5.555777888944471670e+02 8.294194959794212653e-05
5.564782391195597029e+02 8.159937071676651838e-05
5.573786893446723525e+02 8.070371932818964065e-05
5.582791395697848884e+02 8.037651476383643294e-05
5.591795897948974243e+02 8.049308497399872023e-05
5.600800400200099602e+02 8.093609731201834630e-05
5.609804902451224962e+02 8.166564360783226987e-05
5.618809404702351458e+02 8.251748790602319661e-05
5.627813906953476817e+02 8.330096961864415640e-05
5.636818409204602176e+02 8.410233506904265014e-05
5.645822911455727535e+02 8.526365722898419399e-05
5.654827413706852894e+02 8.692988645070019119e-05
5.663831915957978254e+02 8.863694208819911482e-05
5.672836418209104750e+02 8.981053963004859521e-05
5.681840920460230109e+02 9.038328848552230042e-05
5.690845422711355468e+02 9.056035722466846587e-05
5.699849924962480827e+02 9.046921845470209933e-05
5.708854427213606186e+02 9.003265435356815093e-05
5.717858929464731546e+02 8.921673820162850856e-05
5.726863431715858042e+02 8.814191954292903300e-05
5.735867933966983401e+02 8.692115366519058796e-05
5.744872436218108760e+02 8.558159019815212972e-05
5.753876938469234119e+02 8.418659028222027574e-05
5.762881440720359478e+02 8.284971634937197081e-05
5.771885942971485974e+02 8.178336565704545408e-05
5.780890445222611334e+02 8.128494470433340012e-05
5.789894947473736693e+02 8.144413159407957461e-05
5.798899449724862052e+02 8.203924960667389034e-05
5.807903951975987411e+02 8.277581057427864332e-05
5.816908454227112770e+02 8.343165008062486431e-05
5.825912956478239266e+02 8.386975751346275687e-05
5.834917458729364625e+02 8.411888473412618096e-05
5.843921960980489985e+02 8.430751676832709562e-05
5.852926463231615344e+02 8.443659253506601893e-05
5.861930965482740703e+02 8.432712040805400485e-05
5.870935467733867199e+02 8.375215260826655286e-05
5.879939969984992558e+02 8.269074805907598315e-05
5.888944472236117917e+02 8.145192670113785417e-05
5.897948974487243277e+02 8.042972802683669056e-05
5.906953476738368636e+02 7.958678509920960879e-05
5.915957978989493995e+02 7.862039411494254769e-05
5.924962481240620491e+02 7.760582373228477502e-05
5.933966983491745850e+02 7.682244074401461248e-05
5.942971485742871209e+02 7.639139921730828033e-05
5.951975987993996569e+02 7.614995467462337719e-05
5.960980490245121928e+02 7.585531258795154697e-05
5.969984992496247287e+02 7.539082850579125698e-05
5.978989494747373783e+02 7.498604091895686558e-05
5.987993996998499142e+02 7.497016130924522644e-05
5.996998499249624501e+02 7.524782929945688476e-05
6.006003001500749860e+02 7.552625051239259023e-05
6.015007503751875220e+02 7.558149182759841666e-05
6.024012006003001716e+02 7.519498959613702196e-05
6.033016508254127075e+02 7.427552507692076176e-05
6.042021010505252434e+02 7.308176017366538920e-05
6.051025512756377793e+02 7.199947273761913744e-05
6.060030015007503152e+02 7.131266235267048393e-05
6.069034517258628512e+02 7.103428292421596767e-05
6.078039019509755008e+02 7.100480631872463854e-05
6.087043521760880367e+02 7.117359097251454091e-05
6.096048024012005726e+02 7.144342907557961865e-05
6.105052526263131085e+02 7.159934167595948798e-05
6.114057028514256444e+02 7.162456177842109516e-05
6.123061530765382940e+02 7.169701928826021308e-05
6.132066033016508300e+02 7.188642114173619910e-05
6.141070535267633659e+02 7.207801187564808528e-05
6.150075037518759018e+02 7.220403874839731494e-05
6.159079539769884377e+02 7.223303949078612720e-05
6.168084042021009736e+02 7.201971606346271849e-05
6.177088544272136232e+02 7.138593259253075594e-05
6.186093046523261592e+02 7.037965102610541893e-05
6.195097548774386951e+02 6.928520966124500141e-05
6.204102051025512310e+02 6.848714184878049388e-05
6.213106553276637669e+02 6.828079811497355506e-05
6.222111055527763028e+02 6.879331858811742510e-05
6.231115557778889524e+02 6.986895436346250059e-05
6.240120060030014884e+02 7.072879881943139682e-05
6.249124562281140243e+02 7.050973224064326756e-05
6.258129064532265602e+02 6.939873859415812598e-05
6.267133566783390961e+02 6.826262505444353839e-05
6.276138069034517457e+02 6.763391820489653703e-05
6.285142571285642816e+02 6.756093675989871951e-05
6.294147073536768175e+02 6.794384322861075269e-05
6.303151575787893535e+02 6.865274780238710378e-05
6.312156078039018894e+02 6.936538474870979087e-05
6.321160580290144253e+02 6.971174393587165638e-05
6.330165082541270749e+02 6.956876395469942297e-05
6.339169584792396108e+02 6.897016723895293651e-05
6.348174087043521467e+02 6.797050594372288593e-05
6.357178589294646827e+02 6.676328102429982989e-05
6.366183091545772186e+02 6.566792149410174777e-05
6.375187593796898682e+02 6.494789740303409935e-05
6.384192096048024041e+02 6.463408584666277762e-05
6.393196598299149400e+02 6.450755400271151476e-05
6.402201100550274759e+02 6.427409394260068904e-05
6.411205602801400119e+02 6.371961493273174681e-05
6.420210105052525478e+02 6.277563150712809259e-05
6.429214607303651974e+02 6.158485353986763514e-05
6.438219109554777333e+02 6.044903427871929798e-05
6.447223611805902692e+02 5.966936005917906704e-05
6.456228114057028051e+02 5.943743318750749864e-05
6.465232616308153411e+02 5.982869733083545372e-05
6.474237118559278770e+02 6.070384267368992599e-05
6.483241620810405266e+02 6.172728352326683555e-05
6.492246123061530625e+02 6.259474622962543265e-05
6.501250625312655984e+02 6.308551403252654220e-05
6.510255127563781343e+02 6.311790066969813712e-05
6.519259629814906702e+02 6.286356022695900494e-05
6.528264132066033198e+02 6.257852480253562613e-05
6.537268634317158558e+02 6.240246062828486736e-05
6.546273136568283917e+02 6.237331741253212441e-05
6.555277638819409276e+02 6.245482944684219205e-05
6.564282141070534635e+02 6.251041341979648037e-05
6.573286643321659994e+02 6.236516911411579453e-05
6.582291145572786490e+02 6.204936880839105520e-05
6.591295647823911850e+02 6.179560002583114561e-05
6.600300150075037209e+02 6.180778013157861301e-05
6.609304652326162568e+02 6.221116469143063649e-05
6.618309154577287927e+02 6.295813747232111349e-05
6.627313656828414423e+02 6.382578684674972288e-05
6.636318159079539782e+02 6.460702942929184844e-05
6.645322661330665142e+02 6.520935854555905207e-05
6.654327163581790501e+02 6.565946740382919871e-05
6.663331665832915860e+02 6.611723393408831838e-05
6.672336168084041219e+02 6.672474287938282608e-05
6.681340670335167715e+02 6.739105754326148916e-05
6.690345172586293074e+02 6.789513022134931479e-05
6.699349674837418434e+02 6.821248222471868318e-05
6.708354177088543793e+02 6.848704404958041330e-05
6.717358679339669152e+02 6.872235127616729009e-05
6.726363181590794511e+02 6.876868289412463352e-05
6.735367683841921007e+02 6.834744655367969602e-05
6.744372186093046366e+02 6.735438168599382506e-05
6.753376688344171725e+02 6.633552976922265222e-05
6.762381190595297085e+02 6.588225043116293918e-05
6.771385692846422444e+02 6.590462804618408090e-05
6.780390195097548940e+02 6.592807374502380991e-05
6.789394697348674299e+02 6.568165461666872966e-05
6.798399199599799658e+02 6.526478608690393444e-05
6.807403701850925017e+02 6.504727506610828019e-05
6.816408204102050377e+02 6.531143833256546061e-05
6.825412706353175736e+02 6.601346465009283590e-05
6.834417208604302232e+02 6.693912051701478814e-05
6.843421710855427591e+02 6.787779906366834257e-05
6.852426213106552950e+02 6.849977157259178376e-05
6.861430715357678309e+02 6.844744067203009316e-05
6.870435217608803669e+02 6.768676335511304991e-05
6.879439719859930165e+02 6.657296021221387108e-05
6.888444222111055524e+02 6.545516935445294931e-05
6.897448724362180883e+02 6.448442842248198082e-05
6.906453226613306242e+02 6.372664105834984275e-05
6.915457728864431601e+02 6.326554677304707078e-05
6.924462231115556961e+02 6.313469369829781538e-05
6.933466733366683457e+02 6.324681274306802011e-05
6.942471235617808816e+02 6.346952347593199284e-05
6.951475737868934175e+02 6.376393124904312210e-05
6.960480240120059534e+02 6.417322538598011286e-05
6.969484742371184893e+02 6.473382215121252536e-05
6.978489244622311389e+02 6.544888963760478223e-05
6.987493746873436749e+02 6.625962516861173379e-05
6.996498249124562108e+02 6.698747069782354658e-05
7.005502751375687467e+02 6.755324005184147758e-05
7.014507253626812826e+02 6.812395610370960270e-05
7.023511755877938185e+02 6.884468137344054619e-05
7.032516258129064681e+02 6.952015885137390711e-05
7.041520760380190040e+02 6.963056283638201596e-05
7.050525262631315400e+02 6.890974943861998177e-05
7.059529764882440759e+02 6.768029917492746929e-05
7.068534267133566118e+02 6.644162250995086429e-05
7.077538769384691477e+02 6.546818853726077230e-05
7.086543271635817973e+02 6.491091802312148353e-05
7.095547773886943332e+02 6.495612296601115901e-05
7.104552276138068692e+02 6.556950860294603596e-05
7.113556778389194051e+02 6.636763609653071033e-05
7.122561280640319410e+02 6.680738091085808468e-05
7.131565782891445906e+02 6.653568582828537010e-05
7.140570285142571265e+02 6.573723704662866156e-05
7.149574787393696624e+02 6.479357478826165229e-05
7.158579289644821984e+02 6.370651058600652883e-05
7.167583791895947343e+02 6.237856532477064351e-05
7.176588294147072702e+02 6.114249472583842596e-05
7.185592796398199198e+02 6.042273801076833390e-05
7.194597298649324557e+02 6.020323894223844472e-05
7.203601800900449916e+02 6.027318149441483779e-05
7.212606303151575275e+02 6.049292602598706155e-05
7.221610805402700635e+02 6.068268455736994997e-05
7.230615307653827131e+02 6.073614813672057134e-05
7.239619809904952490e+02 6.082633126618706510e-05
7.248624312156077849e+02 6.113349741038946045e-05
7.257628814407203208e+02 6.150479816651618328e-05
7.266633316658328567e+02 6.174419576883440866e-05
7.275637818909453927e+02 6.195171343295276017e-05
7.284642321160580423e+02 6.220165658548323126e-05
7.293646823411705782e+02 6.231670868210322618e-05
7.302651325662831141e+02 6.220766691334525024e-05
7.311655827913956500e+02 6.193883320387865614e-05
7.320660330165081859e+02 6.159744502652492204e-05
7.329664832416207219e+02 6.125466325337625910e-05
7.338669334667333715e+02 6.099099970494375642e-05
7.347673836918459074e+02 6.076076764288779425e-05
7.356678339169584433e+02 6.047558808649290728e-05
7.365682841420709792e+02 6.029664135518620396e-05
7.374687343671835151e+02 6.042239968541011284e-05
7.383691845922961647e+02 6.073370486692863501e-05
7.392696348174087007e+02 6.088218311093340952e-05
7.401700850425212366e+02 6.069693071170525827e-05
7.410705352676337725e+02 6.041012385430760071e-05
7.419709854927463084e+02 6.034198375725658190e-05
7.428714357178588443e+02 6.037885048531573532e-05
7.437718859429714939e+02 6.017254118823323750e-05
7.446723361680840299e+02 5.968038295575611377e-05
7.455727863931965658e+02 5.904039848464690844e-05
7.464732366183091017e+02 5.840528044329221279e-05
7.473736868434216376e+02 5.800530923751237155e-05
7.482741370685342872e+02 5.801635890377668811e-05
7.491745872936468231e+02 5.840314186291746664e-05
7.500750375187593590e+02 5.890517574118900920e-05
7.509754877438718950e+02 5.923681708442031280e-05
7.518759379689844309e+02 5.928061483371043481e-05
7.527763881940969668e+02 5.919849148075196152e-05
7.536768384192096164e+02 5.922072269524760488e-05
7.545772886443221523e+02 5.934661540494991087e-05
7.554777388694346882e+02 5.951738368829347119e-05
7.563781890945472242e+02 5.976844071520170628e-05
7.572786393196597601e+02 6.010333536972635790e-05
7.581790895447722960e+02 6.052900203320116549e-05
7.590795397698849456e+02 6.102713896557244468e-05
7.599799899949974815e+02 6.147014369364321262e-05
7.608804402201100174e+02 6.167722845058406492e-05
7.617808904452225534e+02 6.151130730327543817e-05
7.626813406703350893e+02 6.111929895665364461e-05
7.635817908954477389e+02 6.073549168573780639e-05
7.644822411205602748e+02 6.043408072027551354e-05
7.653826913456728107e+02 6.042265898585966031e-05
7.662831415707853466e+02 6.113144169500092228e-05
7.671835917958978825e+02 6.272590422176619490e-05
7.680840420210104185e+02 6.485223897858503070e-05
7.689844922461230681e+02 6.691932817720985479e-05
7.698849424712356040e+02 6.863362533045346654e-05
7.707853926963481399e+02 7.006950617940186992e-05
7.716858429214606758e+02 7.130699979707462292e-05
7.725862931465732117e+02 7.229061252394495011e-05
7.734867433716858613e+02 7.291301470132507555e-05
7.743871935967983973e+02 7.315897855834469995e-05
7.752876438219109332e+02 7.310135090696421559e-05
7.761880940470234691e+02 7.290475066006225913e-05
7.770885442721360050e+02 7.281384572589701088e-05
7.779889944972485409e+02 7.301505791760946103e-05
7.788894447223611905e+02 7.349808849335661093e-05
7.797898949474737265e+02 7.407557856505939846e-05
7.806903451725862624e+02 7.462499546674185671e-05
7.815907953976987983e+02 7.507387267506352379e-05
7.824912456228113342e+02 7.513657165317483635e-05
7.833916958479238701e+02 7.460750603353016842e-05
7.842921460730365197e+02 7.365889557994343524e-05
7.851925962981490557e+02 7.266502166724976423e-05
7.860930465232615916e+02 7.196792765994394845e-05
7.869934967483741275e+02 7.167020338072743052e-05
7.878939469734866634e+02 7.170897685903353561e-05
7.887943971985993130e+02 7.200379247670877537e-05
7.896948474237118489e+02 7.243525387161510269e-05
7.905952976488243849e+02 7.279103635124547448e-05
7.914957478739369208e+02 7.284835149734177615e-05
7.923961980990494567e+02 7.260652463464744102e-05
7.932966483241619926e+02 7.248643456493576373e-05
7.941970985492746422e+02 7.280092180477985419e-05
7.950975487743871781e+02 7.320537598855164142e-05
7.959979989994997140e+02 7.325589725772573522e-05
7.968984492246122500e+02 7.299173389437107562e-05
7.977988994497247859e+02 7.268358960665432069e-05
7.986993496748374355e+02 7.245987635588607147e-05
7.995997998999499714e+02 7.235101665370826437e-05
8.005002501250625073e+02 7.245853079223894117e-05
8.014007003501750432e+02 7.299465395071237433e-05
8.023011505752875792e+02 7.415394975167027380e-05
8.032016008004001151e+02 7.606598989778412881e-05
8.041020510255127647e+02 7.851616536733220541e-05
8.050025012506253006e+02 8.072444387862032385e-05
8.059029514757378365e+02 8.199429917769996280e-05
8.068034017008503724e+02 8.233898231307773248e-05
8.077038519259629084e+02 8.223421274748897696e-05
8.086043021510754443e+02 8.209049423627319964e-05
8.095047523761880939e+02 8.207775926203499204e-05
8.104052026013006298e+02 8.215842997998280698e-05
8.113056528264131657e+02 8.216868416788582761e-05
8.122061030515257016e+02 8.200240535596808953e-05
8.131065532766382375e+02 8.175003671812189180e-05
8.140070035017508872e+02 8.159049781700320608e-05
8.149074537268634231e+02 8.167511300520758797e-05
8.158079039519759590e+02 8.188883841277499640e-05
8.167083541770884949e+02 8.197158982467005390e-05
8.176088044022010308e+02 8.186337581579177468e-05
8.185092546273135667e+02 8.175411063547905323e-05
8.194097048524262163e+02 8.180104868916454196e-05
8.203101550775387523e+02 8.193780633172175452e-05
8.212106053026512882e+02 8.192792959988151808e-05
8.221110555277638241e+02 8.157917892169022080e-05
8.230115057528763600e+02 8.090343846772379323e-05
8.239119559779890096e+02 8.000616824962520279e-05
8.248124062031015455e+02 7.921311450557410553e-05
8.257128564282140815e+02 7.902386885852683864e-05
8.266133066533266174e+02 7.963567682713622623e-05
8.275137568784391533e+02 8.082581083576342656e-05
8.284142071035516892e+02 8.224741449783911490e-05
8.293146573286643388e+02 8.350955518714096003e-05
8.302151075537768747e+02 8.409243539982248588e-05
8.311155577788894107e+02 8.372592286028599504e-05
8.320160080040019466e+02 8.260173118719892689e-05
8.329164582291144825e+02 8.126718889268681756e-05
8.338169084542270184e+02 8.027350863850080652e-05
8.347173586793396680e+02 7.994505470636174946e-05
8.356178089044522039e+02 8.021209149580446022e-05
8.365182591295647399e+02 8.077155686110298167e-05
8.374187093546772758e+02 8.148336957986385641e-05
8.383191595797898117e+02 8.235575784486306994e-05
8.392196098049024613e+02 8.334776077891615587e-05
8.401200600300149972e+02 8.439474342643437797e-05
8.410205102551275331e+02 8.554930493240851027e-05
8.419209604802400690e+02 8.675493804662751953e-05
8.428214107053526050e+02 8.774552009080136624e-05
8.437218609304651409e+02 8.863791591060264955e-05
8.446223111555777905e+02 8.988078090085644333e-05
8.455227613806903264e+02 9.146096404710803433e-05
8.464232116058028623e+02 9.297810867714839265e-05
8.473236618309153982e+02 9.432505336774190936e-05
8.482241120560279342e+02 9.547973742039580895e-05
8.491245622811405838e+02 9.599246115044809426e-05
8.500250125062531197e+02 9.545070099060200697e-05
8.509254627313656556e+02 9.406545524399902072e-05
8.518259129564781915e+02 9.246750719713859830e-05
8.527263631815907274e+02 9.092419209015523661e-05
8.536268134067032634e+02 8.924417625159483615e-05
8.545272636318159130e+02 8.731491390984809278e-05
8.554277138569284489e+02 8.541143986845330615e-05
8.563281640820409848e+02 8.407485933155614435e-05
8.572286143071535207e+02 8.370943693111106425e-05
8.581290645322660566e+02 8.427653153969168751e-05
8.590295147573785925e+02 8.534665717601733225e-05
8.599299649824912422e+02 8.647472597950539249e-05
8.608304152076037781e+02 8.762100243929821426e-05
8.617308654327163140e+02 8.901478015343839095e-05
8.626313156578288499e+02 9.055651597366824257e-05
8.635317658829413858e+02 9.192786047493181579e-05
8.644322161080540354e+02 9.311828266199721413e-05
8.653326663331665713e+02 9.435721158781469739e-05
8.662331165582791073e+02 9.569705648998195157e-05
8.671335667833916432e+02 9.676134789096382989e-05
8.680340170085041791e+02 9.728027732302742031e-05
8.689344672336167150e+02 9.754041249219718292e-05
8.698349174587293646e+02 9.797596574402170897e-05
8.707353676838419005e+02 9.873340695014688469e-05
8.716358179089544365e+02 9.984090034218214894e-05
8.725362681340669724e+02 1.012353062933385271e-04
8.734367183591795083e+02 1.026287901536589137e-04
8.743371685842921579e+02 1.038901177068586877e-04
8.752376188094046938e+02 1.050929813022837781e-04
8.761380690345172297e+02 1.062190504419425682e-04
8.770385192596297657e+02 1.072427060847688877e-04
8.779389694847423016e+02 1.080408303201278958e-04
8.788394197098548375e+02 1.082795512128038737e-04
8.797398699349674871e+02 1.078676910595003030e-04
8.806403201600800230e+02 1.072222756536378121e-04
8.815407703851925589e+02 1.067855441012389734e-04
8.824412206103050949e+02 1.065244471789919951e-04
8.833416708354176308e+02 1.064291099834789692e-04
8.842421210605301667e+02 1.067810521220740244e-04
8.851425712856428163e+02 1.078352549075920370e-04
8.860430215107553522e+02 1.095257882730919753e-04
8.869434717358678881e+02 1.115679949095291083e-04
8.878439219609804240e+02 1.137461136309029776e-04
8.887443721860929600e+02 1.160423587705342616e-04
8.896448224112056096e+02 1.184409194142349288e-04
8.905452726363181455e+02 1.205550846804000214e-04
8.914457228614306814e+02 1.219706703993450456e-04
8.923461730865432173e+02 1.230137247635436641e-04
8.932466233116557532e+02 1.246191317252260983e-04
8.941470735367682892e+02 1.268816218256611870e-04
8.950475237618809388e+02 1.286964703677453525e-04
8.959479739869934747e+02 1.292224412890591854e-04
8.968484242121060106e+02 1.286884260197122766e-04
8.977488744372185465e+02 1.278544201004828561e-04
8.986493246623310824e+02 1.275532060574408619e-04
8.995497748874437320e+02 1.282324924239954748e-04
9.004502251125562680e+02 1.294104728739151511e-04
9.013506753376688039e+02 1.304138844386305276e-04
9.022511255627813398e+02 1.314253223136248013e-04
9.031515757878938757e+02 1.328264742567271839e-04
9.040520260130064116e+02 1.344273338688655567e-04
9.049524762381190612e+02 1.358718172328059778e-04
9.058529264632315972e+02 1.370022691489019510e-04
9.067533766883441331e+02 1.379632003321091714e-04
9.076538269134566690e+02 1.393446480881059535e-04
9.085542771385692049e+02 1.413971067495725350e-04
9.094547273636817408e+02 1.437760852972845354e-04
9.103551775887943904e+02 1.459870458947220607e-04
9.112556278139069263e+02 1.477374866470180647e-04
9.121560780390194623e+02 1.488804646209284798e-04
9.130565282641319982e+02 1.492854728012914494e-04
9.139569784892445341e+02 1.492728630548748709e-04
9.148574287143571837e+02 1.499154121167053488e-04
9.157578789394697196e+02 1.524183759574049952e-04
9.166583291645822555e+02 1.568156687691418263e-04
9.175587793896947915e+02 1.615857688231873567e-04
9.184592296148073274e+02 1.644930731057732648e-04
9.193596798399198633e+02 1.643206956152395623e-04
9.202601300650325129e+02 1.617830023475597611e-04
9.211605802901450488e+02 1.583833078797773413e-04
9.220610305152575847e+02 1.553508620679208273e-04
9.229614807403701207e+02 1.534457354993059284e-04
9.238619309654826566e+02 1.527414826848378119e-04
9.247623811905953062e+02 1.527825780327390394e-04
9.256628314157078421e+02 1.532680756735901124e-04
9.265632816408203780e+02 1.544720003275453716e-04
9.274637318659329139e+02 1.563990709106380297e-04
9.283641820910454499e+02 1.581291005241327089e-04
9.292646323161579858e+02 1.587723070426266792e-04
9.301650825412706354e+02 1.585971325417214806e-04
9.310655327663831713e+02 1.589087868593546955e-04
9.319659829914957072e+02 1.609214214331426284e-04
9.328664332166082431e+02 1.647957732855583589e-04
9.337668834417207790e+02 1.695687755514045506e-04
9.346673336668334287e+02 1.736768867524235741e-04
9.355677838919459646e+02 1.756012021779529560e-04
9.364682341170585005e+02 1.751695799666073213e-04
9.373686843421710364e+02 1.738543360667422848e-04
9.382691345672835723e+02 1.734135494563415108e-04
9.391695847923961082e+02 1.744936255780297921e-04
9.400700350175087578e+02 1.767632736454603510e-04
9.409704852426212938e+02 1.791853405421522027e-04
9.418709354677338297e+02 1.804487144892635343e-04
9.427713856928463656e+02 1.803749287028059468e-04
9.436718359179589015e+02 1.794701159216806352e-04
9.445722861430714374e+02 1.782264134719891476e-04
9.454727363681840870e+02 1.775904812586604853e-04
9.463731865932966230e+02 1.779083595539786365e-04
9.472736368184091589e+02 1.785034524138547735e-04
9.481740870435216948e+02 1.791524033874709908e-04
9.490745372686342307e+02 1.803181623761136439e-04
9.499749874937468803e+02 1.822858229765115037e-04
9.508754377188594162e+02 1.852568064958625684e-04
9.517758879439719522e+02 1.892564663041898195e-04
9.526763381690844881e+02 1.939676208914586301e-04
9.535767883941970240e+02 1.987701071143579067e-04
9.544772386193095599e+02 2.028036928713619722e-04
9.553776888444222095e+02 2.054400148630425305e-04
9.562781390695347454e+02 2.067795137285802177e-04
9.571785892946472813e+02 2.068425810641666136e-04
9.580790395197598173e+02 2.052573457792634070e-04
9.589794897448723532e+02 2.024910815750665901e-04
9.598799399699850028e+02 1.996602587505757304e-04
9.607803901950975387e+02 1.976978003782479054e-04
9.616808404202100746e+02 1.974416133339658322e-04
9.625812906453226105e+02 1.993047424624471017e-04
9.634817408704351465e+02 2.026953110397111549e-04
9.643821910955476824e+02 2.064206811290072194e-04
9.652826413206603320e+02 2.096219610051560452e-04
9.661830915457728679e+02 2.122117128660510655e-04
9.670835417708854038e+02 2.140857936906823578e-04
9.679839919959979397e+02 2.149764337130195152e-04
9.688844422211104757e+02 2.153344851889641147e-04
9.697848924462230116e+02 2.160551136844336294e-04
9.706853426713356612e+02 2.178747803696102754e-04
9.715857928964481971e+02 2.212759666543179227e-04
9.724862431215607330e+02 2.261334135738651211e-04
9.733866933466732689e+02 2.316646792441869073e-04
9.742871435717858049e+02 2.370577897905664603e-04
9.751875937968984545e+02 2.414619083218056805e-04
9.760880440220109904e+02 2.442154305620130098e-04
9.769884942471235263e+02 2.446317212894279073e-04
9.778889444722360622e+02 2.424176656609936995e-04
9.787893946973485981e+02 2.390371491569639832e-04
9.796898449224611340e+02 2.368581473308673424e-04
9.805902951475737837e+02 2.372977414873488446e-04
9.814907453726863196e+02 2.402254349764463800e-04
9.823911955977988555e+02 2.449439371190619452e-04
9.832916458229113914e+02 2.508080560612276967e-04
9.841920960480239273e+02 2.569679029654066914e-04
9.850925462731365769e+02 2.622043551490558740e-04
9.859929964982491128e+02 2.659982475925438353e-04
9.868934467233616488e+02 2.689389402684986738e-04
9.877938969484741847e+02 2.718944030996845547e-04
9.886943471735867206e+02 2.755423320363657811e-04
9.895947973986992565e+02 2.794751956357946227e-04
9.904952476238119061e+02 2.816931009244970190e-04
9.913956978489244420e+02 2.808453243513200524e-04
9.922961480740369780e+02 2.780942085124415769e-04
9.931965982991495139e+02 2.763604329091935903e-04
9.940970485242620498e+02 2.776274781702590478e-04
9.949974987493745857e+02 2.811672946888572736e-04
9.958979489744872353e+02 2.846370306377251237e-04
9.967983991995997712e+02 2.868506995723720432e-04
9.976988494247123072e+02 2.884018863065066266e-04
9.985992996498248431e+02 2.895281821896061175e-04
9.994997498749373790e+02 2.899082223040448181e-04
1.000400200100050029e+03 2.898568743686552357e-04
1.001300650325162565e+03 2.906968686496023990e-04
1.002201100550275100e+03 2.937257259303774392e-04
1.003101550775387636e+03 2.990742089115126312e-04
1.004002001000500172e+03 3.063267118548475233e-04
1.004902451225612708e+03 3.150430182554611472e-04
1.005802901450725358e+03 3.246702322823662949e-04
1.006703351675837894e+03 3.343198899560375433e-04
1.007603801900950430e+03 3.425763289360865202e-04
1.008504252126062966e+03 3.475417756285241748e-04
1.009404702351175501e+03 3.488496968400871864e-04
1.010305152576288151e+03 3.484990798459584567e-04
1.011205602801400687e+03 3.487442744622417322e-04
1.012106053026513223e+03 3.504185976185494465e-04
1.013006503251625759e+03 3.529455049403365215e-04
1.013906953476738295e+03 3.551338815854365315e-04
1.014807403701850831e+03 3.556950208696703060e-04
1.015707853926963480e+03 3.541857662856478075e-04
1.016608304152076016e+03 3.511633058925766617e-04
1.017508754377188552e+03 3.478043734170310807e-04
1.018409204602301088e+03 3.451330007103782798e-04
1.019309654827413624e+03 3.438752156854545734e-04
1.020210105052526160e+03 3.439233493155970578e-04
1.021110555277638809e+03 3.437191259420799869e-04
1.022011005502751345e+03 3.418671951463910018e-04
1.022911455727863881e+03 3.385029396562680166e-04
1.023811905952976417e+03 3.350044063469555613e-04
1.024712356178089067e+03 3.325147168520904456e-04
1.025612806403201603e+03 3.313154980943969403e-04
1.026513256628314139e+03 3.315709289134728872e-04
1.027413706853426675e+03 3.333292013431802397e-04
1.028314157078539210e+03 3.364761492467507496e-04
1.029214607303651746e+03 3.401573652813354013e-04
1.030115057528764282e+03 3.427813305873908599e-04
1.031015507753876818e+03 3.438062775904868326e-04
1.031915957978989354e+03 3.443113968748251355e-04
1.032816408204101890e+03 3.462317477872218054e-04
1.033716858429214653e+03 3.518499229937691410e-04
1.034617308654327189e+03 3.619533415642196524e-04
1.035517758879439725e+03 3.740201073288773668e-04
1.036418209104552261e+03 3.841113645920980172e-04
1.037318659329664797e+03 3.903100479165929975e-04
1.038219109554777333e+03 3.936023702557715754e-04
1.039119559779889869e+03 3.959203911888497769e-04
1.040020010005002405e+03 3.991055194252967958e-04
1.040920460230114941e+03 4.051276685830043070e-04
1.041820910455227477e+03 4.141712639511312588e-04
1.042721360680340013e+03 4.241445252050411296e-04
1.043621810905452776e+03 4.329109534789055851e-04
1.044522261130565312e+03 4.393766707768531729e-04
1.045422711355677848e+03 4.428081977513072926e-04
1.046323161580790384e+03 4.430023833337854073e-04
1.047223611805902920e+03 4.414674709984847548e-04
1.048124062031015455e+03 4.404368259298627468e-04
1.049024512256127991e+03 4.416397444751102123e-04
1.049924962481240527e+03 4.446901329167607950e-04
1.050825412706353063e+03 4.472467959152908617e-04
1.051725862931465599e+03 4.477120545191078820e-04
1.052626313156578135e+03 4.466506269258275911e-04
1.053526763381690898e+03 4.454490555559462877e-04
1.054427213606803434e+03 4.441759861916708563e-04
1.055327663831915970e+03 4.419751102242626558e-04
1.056228114057028506e+03 4.392255362072788926e-04
1.057128564282141042e+03 4.369006918420314666e-04
1.058029014507253578e+03 4.356552416898118430e-04
1.058929464732366114e+03 4.364227902263991313e-04
1.059829914957478650e+03 4.404435182018661809e-04
1.060730365182591186e+03 4.478324929274426830e-04
1.061630815407703722e+03 4.568102168820947881e-04
1.062531265632816257e+03 4.643376334852287882e-04
1.063431715857929021e+03 4.673911022830105097e-04
1.064332166083041557e+03 4.660041964855342290e-04
1.065232616308154093e+03 4.635125241366497349e-04
1.066133066533266629e+03 4.628724381092637883e-04
1.067033516758379164e+03 4.647160710254043085e-04
1.067933966983491700e+03 4.671387133486256380e-04
1.068834417208604236e+03 4.679442901485940387e-04
1.069734867433716772e+03 4.672030971985956000e-04
1.070635317658829308e+03 4.656878085312153972e-04
1.071535767883941844e+03 4.632190519462223459e-04
1.072436218109054380e+03 4.592993312982864202e-04
1.073336668334167143e+03 4.535741680066086704e-04
1.074237118559279679e+03 4.464589060406971670e-04
1.075137568784392215e+03 4.394405810039877939e-04
1.076038019009504751e+03 4.345924089377387360e-04
1.076938469234617287e+03 4.338302095850545643e-04
1.077838919459729823e+03 4.372172730578460266e-04
1.078739369684842359e+03 4.423574233141360163e-04
1.079639819909954895e+03 4.467896490427211058e-04
1.080540270135067431e+03 4.501317412876570077e-04
1.081440720360179967e+03 4.532830309941967553e-04
1.082341170585292502e+03 4.561952379024511624e-04
1.083241620810405038e+03 4.583633608185608364e-04
1.084142071035517802e+03 4.607505397252557042e-04
1.085042521260630338e+03 4.635851899819420983e-04
1.085942971485742873e+03 4.652102281957328986e-04
1.086843421710855409e+03 4.663448940745843797e-04
1.087743871935967945e+03 4.710602442001587172e-04
1.088644322161080481e+03 4.823093154377592392e-04
1.089544772386193017e+03 4.990364245351985644e-04
1.090445222611305553e+03 5.181914825807390273e-04
1.091345672836418089e+03 5.368027653522293614e-04
1.092246123061530625e+03 5.524655518585907567e-04
1.093146573286643161e+03 5.644104264701022868e-04
1.094047023511755924e+03 5.733715180625047160e-04
1.094947473736868460e+03 5.799785164445069334e-04
1.095847923961980996e+03 5.846592876216986619e-04
1.096748374187093532e+03 5.886835079277438114e-04
1.097648824412206068e+03 5.923855933829855029e-04
1.098549274637318604e+03 5.938166752742826118e-04
1.099449724862431140e+03 5.917266569422077651e-04
1.100350175087543676e+03 5.870378003836420645e-04
1.101250625312656211e+03 5.817238527739108673e-04
1.102151075537768747e+03 5.784851911550450282e-04
1.103051525762881283e+03 5.779568526545920265e-04
1.103951975987994047e+03 5.777805844112090562e-04
1.104852426213106583e+03 5.769760372820894028e-04
1.105752876438219118e+03 5.781197916206929190e-04
1.106653326663331654e+03 5.834898604464860581e-04
1.107553776888444190e+03 5.910914560960577003e-04
1.108454227113556726e+03 5.975116929234854145e-04
1.109354677338669262e+03 6.031137062415674625e-04
1.110255127563781798e+03 6.100931463306669047e-04
1.111155577788894334e+03 6.177419127872029120e-04
1.112056028014006870e+03 6.243586797014768390e-04
1.112956478239119406e+03 6.288081386510061639e-04
1.113856928464232169e+03 6.287773740139159353e-04
1.114757378689344705e+03 6.245837484487527964e-04
1.115657828914457241e+03 6.198120478087611488e-04
1.116558279139569777e+03 6.166704456316953256e-04
1.117458729364682313e+03 6.151076810835875769e-04
1.118359179589794849e+03 6.149352851321104613e-04
1.119259629814907385e+03 6.166486619840387887e-04
1.120160080040019920e+03 6.212125193089442637e-04
1.121060530265132456e+03 6.275810853107334063e-04
1.121960980490244992e+03 6.315380858606171833e-04
1.122861430715357528e+03 6.303270360726242420e-04
1.123761880940470292e+03 6.264845707576183198e-04
1.124662331165582827e+03 6.245564228982495832e-04
1.125562781390695363e+03 6.260999078726991888e-04
1.126463231615807899e+03 6.305268232542578016e-04
1.127363681840920435e+03 6.368939176131412083e-04
1.128264132066032971e+03 6.441898558362237027e-04
1.129164582291145507e+03 6.510019361575609866e-04
1.130065032516258043e+03 6.550278568860402884e-04
1.130965482741370579e+03 6.556918461475276082e-04
1.131865932966483115e+03 6.560249946355872774e-04
1.132766383191595651e+03 6.581516082789645727e-04
1.133666833416708187e+03 6.604266596836189107e-04
1.134567283641820950e+03 6.620768044914194942e-04
1.135467733866933486e+03 6.648913208410168682e-04
1.136368184092046022e+03 6.712026715104029220e-04
1.137268634317158558e+03 6.835483153697826655e-04
1.138169084542271094e+03 7.029652853772572554e-04
1.139069534767383630e+03 7.280697739018661191e-04
1.139969984992496165e+03 7.575207442877185046e-04
1.140870435217608701e+03 7.911252933113182119e-04
1.141770885442721237e+03 8.291032625613759411e-04
1.142671335667833773e+03 8.714589716974637879e-04
1.143571785892946309e+03 9.201860405109112779e-04
1.144472236118059072e+03 9.800148887500477034e-04
1.145372686343171608e+03 1.051605992115949018e-03
1.146273136568284144e+03 1.129302969200493513e-03
1.147173586793396680e+03 1.212288913854582019e-03
1.148074037018509216e+03 1.304049752875827703e-03
1.148974487243621752e+03 1.404329278902055698e-03
1.149874937468734288e+03 1.508471330931648131e-03
1.150775387693846824e+03 1.605835765347548910e-03
1.151675837918959360e+03 1.683508901474592249e-03
1.152576288144071896e+03 1.738020202916015864e-03
1.153476738369184432e+03 1.782832798844793086e-03
1.154377188594297195e+03 1.829655056288764141e-03
1.155277638819409731e+03 1.876775800940766199e-03
1.156178089044522267e+03 1.922748698442011640e-03
1.157078539269634803e+03 1.975746305352980327e-03
1.157978989494747339e+03 2.043745341570189691e-03
1.158879439719859874e+03 2.123210765338027269e-03
1.159779889944972410e+03 2.210262337764531352e-03
1.160680340170084946e+03 2.308708695207035196e-03
1.161580790395197482e+03 2.414017395452364503e-03
1.162481240620310018e+03 2.508538936607122415e-03
1.163381690845422554e+03 2.574406187166209618e-03
1.164282141070535317e+03 2.603645561818169595e-03
1.165182591295647853e+03 2.590781326562789730e-03
1.166083041520760389e+03 2.532132852424120745e-03
1.166983491745872925e+03 2.442666955452900412e-03
1.167883941970985461e+03 2.348750776325038252e-03
1.168784392196097997e+03 2.267476257148195572e-03
1.169684842421210533e+03 2.197540076518298205e-03
1.170585292646323069e+03 2.126791924414599393e-03
1.171485742871435605e+03 2.047343410069524857e-03
1.172386193096548141e+03 1.960642323157972024e-03
1.173286643321660677e+03 1.872591897081493347e-03
1.174187093546773440e+03 1.791391295143244513e-03
1.175087543771885976e+03 1.724444167933151650e-03
1.175987993996998512e+03 1.672436079539154795e-03
1.176888444222111048e+03 1.632698264533481410e-03
1.177788894447223583e+03 1.602416819748221513e-03
1.178689344672336119e+03 1.575654833394897047e-03
1.179589794897448655e+03 1.543665434558656258e-03
1.180490245122561191e+03 1.499709855085322105e-03
1.181390695347673727e+03 1.443526646655883669e-03
1.182291145572786263e+03 1.383708312821672415e-03
1.183191595797898799e+03 1.335152766018649160e-03
1.184092046023011562e+03 1.308173225575165900e-03
1.184992496248124098e+03 1.302389386446730886e-03
1.185892946473236634e+03 1.311985306518447664e-03
1.186793396698349170e+03 1.328857993554400123e-03
1.187693846923461706e+03 1.339597402110762319e-03
1.188594297148574242e+03 1.335255953022891325e-03
1.189494747373686778e+03 1.318120766551007881e-03
1.190395197598799314e+03 1.295939463034673179e-03
1.191295647823911850e+03 1.277364515828562823e-03
1.192196098049024386e+03 1.268724150635136246e-03
1.193096548274136921e+03 1.272306764629909694e-03
1.193996998499249457e+03 1.284128523720677768e-03
1.194897448724362221e+03 1.295309142544270571e-03
1.195797898949474757e+03 1.300729039063849412e-03
1.196698349174587293e+03 1.304790352927269774e-03
1.197598799399699828e+03 1.315749105813139889e-03
1.198499249624812364e+03 1.331492394493753511e-03
1.199399699849924900e+03 1.339764662456200371e-03
1.200300150075037436e+03 1.333190144558794778e-03
1.201200600300149972e+03 1.313383022581242213e-03
1.202101050525262508e+03 1.286909609378412891e-03
1.203001500750375044e+03 1.265035808575995513e-03
1.203901950975487580e+03 1.258241240790888317e-03
1.204802401200600343e+03 1.265709502147188258e-03
1.205702851425712879e+03 1.279349128179708105e-03
1.206603301650825415e+03 1.292928167158835214e-03
1.207503751875937951e+03 1.301809831100311093e-03
1.208404202101050487e+03 1.300842092093801305e-03
1.209304652326163023e+03 1.288107518927222297e-03
1.210205102551275559e+03 1.268992646954365984e-03
1.211105552776388095e+03 1.250405747672874573e-03
1.212006003001500630e+03 1.235653984069055812e-03
1.212906453226613166e+03 1.224934249285132256e-03
1.213806903451725702e+03 1.215995373971202843e-03
1.214707353676838466e+03 1.206812408501953867e-03
1.215607803901951002e+03 1.196483090709762756e-03
1.216508254127063537e+03 1.186217499121337187e-03
1.217408704352176073e+03 1.179606395248900810e-03
1.218309154577288609e+03 1.178026767216337973e-03
1.219209604802401145e+03 1.177879723193063543e-03
1.220110055027513681e+03 1.175083854711440239e-03
1.221010505252626217e+03 1.169281836744970717e-03
1.221910955477738753e+03 1.163804431771112407e-03
1.222811405702851289e+03 1.159550703806085320e-03
1.223711855927963825e+03 1.154408353685256209e-03
1.224612306153076588e+03 1.148308053594432289e-03
1.225512756378189124e+03 1.142482658035314609e-03
1.226413206603301660e+03 1.137953021389363079e-03
1.227313656828414196e+03 1.137985033452990373e-03
1.228214107053526732e+03 1.144680270119412214e-03
1.229114557278639268e+03 1.151543124548142947e-03
1.230015007503751804e+03 1.149146214327768185e-03
1.230915457728864340e+03 1.136127436051065928e-03
1.231815907953976875e+03 1.118711825115860283e-03
1.232716358179089411e+03 1.104460924379490521e-03
1.233616808404201947e+03 1.100124994480899173e-03
1.234517258629314711e+03 1.107790091920043398e-03
1.235417708854427246e+03 1.121517364641785560e-03
1.236318159079539782e+03 1.132733810968257742e-03
1.237218609304652318e+03 1.139648332433536478e-03
1.238119059529764854e+03 1.148162453383674234e-03
1.239019509754877390e+03 1.162214553373533583e-03
1.239919959979989926e+03 1.178014612531640224e-03
1.240820410205102462e+03 1.190288385414752263e-03
1.241720860430214998e+03 1.199946167345745896e-03
1.242621310655327534e+03 1.210996544242937166e-03
1.243521760880440070e+03 1.224772999012911949e-03
1.244422211105552606e+03 1.239972061155497542e-03
1.245322661330665369e+03 1.254178640436707896e-03
1.246223111555777905e+03 1.265527831343251849e-03
1.247123561780890441e+03 1.274052240305940855e-03
1.248024012006002977e+03 1.279740163865144892e-03
1.248924462231115513e+03 1.284119263484735348e-03
1.249824912456228049e+03 1.290581855127569512e-03
1.250725362681340584e+03 1.299356639323705079e-03
1.251625812906453120e+03 1.307969623117134035e-03
1.252526263131565656e+03 1.316281101086758413e-03
1.253426713356678192e+03 1.325522360198277006e-03
1.254327163581790728e+03 1.333446657225180812e-03
1.255227613806903491e+03 1.337467990663623570e-03
1.256128064032016027e+03 1.340583331176125161e-03
1.257028514257128563e+03 1.347299354244010580e-03
1.257928964482241099e+03 1.358783671056207256e-03
1.258829414707353635e+03 1.372066925219879788e-03
1.259729864932466171e+03 1.382660967800211898e-03
1.260630315157578707e+03 1.391535104779491024e-03
1.261530765382691243e+03 1.403160382435433449e-03
1.262431215607803779e+03 1.418802010494267822e-03
1.263331665832916315e+03 1.437541975190795383e-03
1.264232116058028851e+03 1.459724757868895162e-03
1.265132566283141614e+03 1.484326355837451957e-03
1.266033016508254150e+03 1.507237221154937058e-03
1.266933466733366686e+03 1.525695810383614036e-03
1.267833916958479222e+03 1.540603494753209519e-03
1.268734367183591758e+03 1.554813792425316712e-03
1.269634817408704293e+03 1.569810319674562471e-03
1.270535267633816829e+03 1.583786555439736961e-03
1.271435717858929365e+03 1.595565252577651897e-03
1.272336168084041901e+03 1.607787421692863849e-03
1.273236618309154437e+03 1.623160430400003625e-03
1.274137068534266973e+03 1.642706830365080585e-03
1.275037518759379736e+03 1.668125792168953384e-03
1.275937968984492272e+03 1.699539883059570907e-03
1.276838419209604808e+03 1.731190644005204489e-03
1.277738869434717344e+03 1.755485005475335234e-03
1.278639319659829880e+03 1.771249503906895508e-03
1.279539769884942416e+03 1.784053688126320319e-03
1.280440220110054952e+03 1.800356057475223284e-03
1.281340670335167488e+03 1.824475518561163075e-03
1.282241120560280024e+03 1.858532536390896739e-03
1.283141570785392560e+03 1.900816842313032525e-03
1.284042021010505096e+03 1.944433772871765036e-03
1.284942471235617859e+03 1.982043062290694043e-03
1.285842921460730395e+03 2.011211121526389374e-03
1.286743371685842931e+03 2.033347184905008858e-03
1.287643821910955467e+03 2.049297711384029646e-03
1.288544272136068003e+03 2.060258910347507588e-03
1.289444722361180538e+03 2.071259842304428236e-03
1.290345172586293074e+03 2.085956751493410824e-03
1.291245622811405610e+03 2.103315740876748972e-03
1.292146073036518146e+03 2.121981903062103610e-03
1.293046523261630682e+03 2.143597960328719014e-03
1.293946973486743218e+03 2.172353401613751501e-03
1.294847423711855754e+03 2.208647255108721688e-03
1.295747873936968517e+03 2.247040852402270791e-03
1.296648324162081053e+03 2.283816565956078588e-03
1.297548774387193589e+03 2.319060314809649661e-03
1.298449224612306125e+03 2.355474048371925585e-03
1.299349674837418661e+03 2.396599954122522868e-03
1.300250125062531197e+03 2.441224449194822916e-03
1.301150575287643733e+03 2.487727742870234852e-03
1.302051025512756269e+03 2.538918349815481954e-03
1.302951475737868805e+03 2.592546401106043171e-03
1.303851925962981340e+03 2.639520381633535771e-03
1.304752376188093876e+03 2.675678583505435287e-03
1.305652826413206640e+03 2.704789635239496400e-03
1.306553276638319176e+03 2.730520235821558631e-03
1.307453726863431712e+03 2.755117054087240398e-03
1.308354177088544247e+03 2.780396655208188569e-03
1.309254627313656783e+03 2.807958548708434747e-03
1.310155077538769319e+03 2.839867715413873801e-03
1.311055527763881855e+03 2.874775669725901893e-03
1.311955977988994391e+03 2.910301955468471390e-03
1.312856428214106927e+03 2.952214347888153061e-03
1.313756878439219463e+03 3.006017908017041482e-03
1.314657328664331999e+03 3.064334232805058806e-03
1.315557778889444762e+03 3.118195003816500756e-03
1.316458229114557298e+03 3.167018605387299061e-03
1.317358679339669834e+03 3.213534163173362938e-03
1.318259129564782370e+03 3.260610909889233994e-03
1.319159579789894906e+03 3.309549754470171839e-03
1.320060030015007442e+03 3.360212931027997760e-03
1.320960480240119978e+03 3.409585210541147150e-03
1.321860930465232514e+03 3.453048199900654418e-03
1.322761380690345050e+03 3.493270761983561026e-03
1.323661830915457585e+03 3.536371612983027577e-03
1.324562281140570121e+03 3.585261603231991445e-03
1.325462731365682885e+03 3.639994446794774484e-03
1.326363181590795421e+03 3.697190083450144736e-03
1.327263631815907956e+03 3.748243951500127447e-03
1.328164082041020492e+03 3.788075994381088444e-03
1.329064532266133028e+03 3.825815395898609673e-03
1.329964982491245564e+03 3.874707104553448168e-03
1.330865432716358100e+03 3.940940449858727941e-03
1.331765882941470636e+03 4.023903774323918034e-03
1.332666333166583172e+03 4.118166663290935559e-03
1.333566783391695708e+03 4.216463569332510979e-03
1.334467233616808244e+03 4.311600803370759308e-03
1.335367683841921007e+03 4.406250199577234523e-03
1.336268134067033543e+03 4.515029819236194772e-03
1.337168584292146079e+03 4.643674607098302598e-03
1.338069034517258615e+03 4.778068639534690729e-03
1.338969484742371151e+03 4.899804022302781809e-03
1.339869934967483687e+03 5.005510577614155632e-03
1.340770385192596223e+03 5.104592581157980057e-03
1.341670835417708759e+03 5.204563033728840625e-03
1.342571285642821294e+03 5.307621812755678077e-03
1.343471735867933830e+03 5.412126097160172879e-03
1.344372186093046366e+03 5.515305370844945758e-03
1.345272636318158902e+03 5.621755189734482447e-03
1.346173086543271666e+03 5.744699997164404680e-03
1.347073536768384201e+03 5.886622572685512936e-03
1.347973986993496737e+03 6.029948119712151902e-03
1.348874437218609273e+03 6.159238709837296620e-03
1.349774887443721809e+03 6.275380810420211515e-03
1.350675337668834345e+03 6.389584008083255655e-03
1.351575787893946881e+03 6.510339792644985642e-03
1.352476238119059417e+03 6.646953482015560861e-03
1.353376688344171953e+03 6.813786014800987320e-03
1.354277138569284489e+03 7.014949085293345661e-03
1.355177588794397025e+03 7.227089548290707016e-03
1.356078039019509788e+03 7.433088252418509727e-03
1.356978489244622324e+03 7.648745845443626762e-03
1.357878939469734860e+03 7.886254617398667441e-03
1.358779389694847396e+03 8.134311840425232851e-03
1.359679839919959932e+03 8.379309504469637654e-03
1.360580290145072468e+03 8.624046440823004631e-03
1.361480740370185003e+03 8.884633088860068029e-03
1.362381190595297539e+03 9.152840923175574808e-03
1.363281640820410075e+03 9.406491914628086273e-03
1.364182091045522611e+03 9.655460268848541777e-03
1.365082541270635147e+03 9.918534847864462350e-03
1.365982991495747910e+03 1.019481178540971450e-02
1.366883441720860446e+03 1.046243389150221421e-02
1.367783891945972982e+03 1.067539363934475079e-02
1.368684342171085518e+03 1.081866459402179743e-02
1.369584792396198054e+03 1.094113495080810579e-02
1.370485242621310590e+03 1.107685091201662635e-02
1.371385692846423126e+03 1.123789358091623058e-02
1.372286143071535662e+03 1.145997758160920317e-02
1.373186593296648198e+03 1.175864971699825193e-02
1.374087043521760734e+03 1.208800517338841536e-02
1.374987493746873270e+03 1.238652575313856953e-02
1.375887943971986033e+03 1.263511913951253368e-02
1.376788394197098569e+03 1.287740758367118474e-02
1.377688844422211105e+03 1.316093615328362172e-02
1.378589294647323641e+03 1.349161383269070237e-02
1.379489744872436177e+03 1.386158608728700441e-02
1.380390195097548713e+03 1.424040235210869733e-02
1.381290645322661248e+03 1.459472128236377272e-02
1.382191095547773784e+03 1.491278978563338221e-02
1.383091545772886320e+03 1.515938129112074338e-02
1.383991995997998856e+03 1.529849664422168985e-02
1.384892446223111392e+03 1.535142253465371712e-02
1.385792896448224155e+03 1.536157683433509932e-02
1.386693346673336691e+03 1.537585276760117942e-02
1.387593796898449227e+03 1.544539171919729476e-02
1.388494247123561763e+03 1.559749019544630702e-02
1.389394697348674299e+03 1.580687083750201977e-02
1.390295147573786835e+03 1.601206960504932345e-02
1.391195597798899371e+03 1.617261683847649387e-02
1.392096048024011907e+03 1.629543846457854467e-02
1.392996498249124443e+03 1.638345243226184064e-02
1.393896948474236979e+03 1.642483260314212337e-02
1.394797398699349515e+03 1.643506797694433905e-02
1.395697848924462278e+03 1.646195907166348935e-02
1.396598299149574814e+03 1.655221427973766618e-02
1.397498749374687350e+03 1.668107864853519279e-02
1.398399199599799886e+03 1.676264671693450045e-02
1.399299649824912422e+03 1.674395624259308879e-02
1.400200100050024957e+03 1.662397200155687343e-02
1.401100550275137493e+03 1.642818237330468528e-02
1.402001000500250029e+03 1.621382958222184617e-02
1.402901450725362565e+03 1.606136121118192581e-02
1.403801900950475101e+03 1.601448876447690225e-02
1.404702351175587637e+03 1.603215096990266361e-02
1.405602801400700173e+03 1.605828375271058789e-02
1.406503251625812936e+03 1.609118478919668513e-02
1.407403701850925472e+03 1.611549233794089611e-02
1.408304152076038008e+03 1.606554243739262769e-02
1.409204602301150544e+03 1.593394001729320567e-02
1.410105052526263080e+03 1.580281447076630277e-02
1.411005502751375616e+03 1.569086935032875177e-02
1.411905952976488152e+03 1.551438783411179106e-02
1.412806403201600688e+03 1.519870519943424328e-02
1.413706853426713224e+03 1.475987011295691771e-02
1.414607303651825760e+03 1.426990388163007842e-02
1.415507753876938295e+03 1.377183060514962538e-02
1.416408204102051059e+03 1.328002764809741582e-02
1.417308654327163595e+03 1.279268380953896798e-02
1.418209104552276131e+03 1.231700769027263553e-02
1.419109554777388666e+03 1.190401661737206310e-02
1.420010005002501202e+03 1.160526882143935595e-02
1.420910455227613738e+03 1.142446307683116918e-02
1.421810905452726274e+03 1.132852162688152524e-02
1.422711355677838810e+03 1.127487889910339276e-02
1.423611805902951346e+03 1.121027908852042371e-02
1.424512256128063882e+03 1.108666820446453823e-02
1.425412706353176418e+03 1.090583309800752070e-02
1.426313156578289181e+03 1.068384967910061475e-02
1.427213606803401717e+03 1.040196881571681282e-02
1.428114057028514253e+03 1.003620658337431304e-02
1.429014507253626789e+03 9.613951655505071150e-03
1.429914957478739325e+03 9.207291877917578304e-03
1.430815407703851861e+03 8.864128079470878427e-03
1.431715857928964397e+03 8.597626045919680091e-03
1.432616308154076933e+03 8.406027023662807768e-03
1.433516758379189469e+03 8.262689083839822382e-03
1.434417208604302004e+03 8.122630762555095932e-03
1.435317658829414540e+03 7.962751186584482790e-03
1.436218109054527304e+03 7.790014753667242817e-03
1.437118559279639840e+03 7.616925844572150148e-03
1.438019009504752376e+03 7.444272355327605055e-03
1.438919459729864911e+03 7.265465254168663144e-03
1.439819909954977447e+03 7.080621688299948771e-03
1.440720360180089983e+03 6.901797736485669639e-03
1.441620810405202519e+03 6.745392962663260966e-03
1.442521260630315055e+03 6.609077294105364722e-03
1.443421710855427591e+03 6.471530616354403791e-03
1.444322161080540127e+03 6.313088349430295149e-03
1.445222611305652663e+03 6.129185528050844038e-03
1.446123061530765426e+03 5.929063383377008133e-03
1.447023511755877962e+03 5.729367431622949154e-03
1.447923961980990498e+03 5.551765086112290214e-03
1.448824412206103034e+03 5.408204311641129358e-03
1.449724862431215570e+03 5.295437024348715813e-03
1.450625312656328106e+03 5.201481922054712083e-03
1.451525762881440642e+03 5.118640580839607136e-03
1.452426213106553178e+03 5.043553541077674084e-03
1.453326663331665713e+03 4.970208567463493127e-03
1.454227113556778249e+03 4.900918496577385750e-03
1.455127563781890785e+03 4.840081878989977576e-03
1.456028014007003321e+03 4.772808064162649064e-03
1.456928464232116085e+03 4.682496977516858658e-03
1.457828914457228620e+03 4.581961372584774511e-03
1.458729364682341156e+03 4.500515135160163514e-03
1.459629814907453692e+03 4.453370193906343137e-03
1.460530265132566228e+03 4.433731445070619032e-03
1.461430715357678764e+03 4.423349343556825380e-03
1.462331165582791300e+03 4.400196516594099411e-03
1.463231615807903836e+03 4.341579082231928656e-03
1.464132066033016372e+03 4.239960767843605621e-03
1.465032516258128908e+03 4.114246987405199493e-03
1.465932966483241444e+03 3.988977767882377796e-03
1.466833416708354207e+03 3.873903965270250604e-03
1.467733866933466743e+03 3.764280352954750553e-03
1.468634317158579279e+03 3.653832117780145099e-03
1.469534767383691815e+03 3.540243680244220103e-03
1.470435217608804351e+03 3.422782894918447588e-03
1.471335667833916887e+03 3.303250177947547953e-03
1.472236118059029423e+03 3.188374649676143507e-03
1.473136568284141958e+03 3.091319987620445419e-03
1.474037018509254494e+03 3.022256194718523064e-03
1.474937468734367030e+03 2.980627845297458781e-03
1.475837918959479566e+03 2.957780409127929583e-03
1.476738369184592329e+03 2.938242374934379314e-03
1.477638819409704865e+03 2.907219946770030379e-03
1.478539269634817401e+03 2.855414879739808474e-03
1.479439719859929937e+03 2.783747293300554461e-03
1.480340170085042473e+03 2.706304835166012390e-03
1.481240620310155009e+03 2.634171510131088668e-03
1.482141070535267545e+03 2.564431827923365978e-03
1.483041520760380081e+03 2.492420697465708417e-03
1.483941970985492617e+03 2.421077910523138001e-03
1.484842421210605153e+03 2.354620976616398839e-03
1.485742871435717689e+03 2.295550178907685909e-03
1.486643321660830452e+03 2.245140235409798495e-03
1.487543771885942988e+03 2.202361939552640452e-03
1.488444222111055524e+03 2.161757477125205926e-03
1.489344672336168060e+03 2.119945760068908235e-03
1.490245122561280596e+03 2.078016016072072297e-03
1.491145572786393132e+03 2.037331509920620783e-03
1.492046023011505667e+03 2.001553749725812782e-03
1.492946473236618203e+03 1.972879326597968587e-03
1.493846923461730739e+03 1.945583064061623922e-03
1.494747373686843275e+03 1.914588529319963348e-03
1.495647823911955811e+03 1.881354154995252973e-03
1.496548274137068574e+03 1.849912664592353586e-03
1.497448724362181110e+03 1.821974978955424179e-03
1.498349174587293646e+03 1.797224356550114347e-03
1.499249624812406182e+03 1.774398615535787002e-03
1.500150075037518718e+03 1.749391646867109453e-03
1.501050525262631254e+03 1.722338820563895602e-03
1.501950975487743790e+03 1.701333858019877989e-03
1.502851425712856326e+03 1.690578467059560388e-03
1.503751875937968862e+03 1.684871060797545712e-03
1.504652326163081398e+03 1.678510189256549913e-03
1.505552776388193934e+03 1.670881432108749102e-03
1.506453226613306470e+03 1.665332480650346184e-03
1.507353676838419233e+03 1.663580040929639675e-03
1.508254127063531769e+03 1.660046937322533266e-03
1.509154577288644305e+03 1.648843631928880848e-03
1.510055027513756841e+03 1.631025505443268542e-03
1.510955477738869376e+03 1.609433233805968684e-03
1.511855927963981912e+03 1.588704216019590481e-03
1.512756378189094448e+03 1.570710066181438052e-03
1.513656828414206984e+03 1.548507654215997096e-03
1.514557278639319520e+03 1.517875888630421978e-03
1.515457728864432056e+03 1.484086410403085777e-03
1.516358179089544592e+03 1.453475639286587939e-03
1.517258629314657355e+03 1.426986681701062883e-03
1.518159079539769891e+03 1.405993469683404712e-03
1.519059529764882427e+03 1.394717780839160653e-03
1.519959979989994963e+03 1.390002821154927683e-03
1.520860430215107499e+03 1.380741009836242931e-03
1.521760880440220035e+03 1.360164983773761100e-03
1.522661330665332571e+03 1.330200150440959735e-03
1.523561780890445107e+03 1.297560340998012932e-03
1.524462231115557643e+03 1.271588359351507030e-03
1.525362681340670179e+03 1.258448145448979802e-03
1.526263131565782714e+03 1.257878789616843082e-03
1.527163581790895478e+03 1.266561248868200602e-03
1.528064032016008014e+03 1.283141710564237020e-03
1.528964482241120550e+03 1.301264458925072533e-03
1.529864932466233086e+03 1.307865841718851155e-03
1.530765382691345621e+03 1.297517651063906331e-03
1.531665832916458157e+03 1.273482541090593381e-03
1.532566283141570693e+03 1.237056759202711598e-03
1.533466733366683229e+03 1.188397186676103069e-03
1.534367183591795765e+03 1.134984862397850520e-03
1.535267633816908301e+03 1.086921975565859457e-03
1.536168084042020837e+03 1.050657998481875069e-03
1.537068534267133600e+03 1.028995661254444643e-03
1.537968984492246136e+03 1.017935167136808060e-03
1.538869434717358672e+03 1.009701302608823417e-03
1.539769884942471208e+03 1.002277768660163717e-03
1.540670335167583744e+03 9.973554428280928877e-04
1.541570785392696280e+03 9.904934569186034897e-04
1.542471235617808816e+03 9.754415242776079409e-04
1.543371685842921352e+03 9.536230786810375023e-04
1.544272136068033888e+03 9.286127379807151581e-04
1.545172586293146423e+03 9.017886783332564743e-04
1.546073036518258959e+03 8.726439714963591483e-04
1.546973486743371723e+03 8.399158895187620313e-04
1.547873936968484259e+03 8.067830049086747481e-04
1.548774387193596795e+03 7.777131126649851692e-04
1.549674837418709330e+03 7.542770669650882345e-04
1.550575287643821866e+03 7.346834749918301289e-04
1.551475737868934402e+03 7.147747948296740263e-04
1.552376188094046938e+03 6.921283678275434595e-04
1.553276638319159474e+03 6.667790363789839660e-04
1.554177088544272010e+03 6.386610270633117726e-04
1.555077538769384546e+03 6.073687176108103500e-04
1.555977988994497082e+03 5.752474944692588087e-04
1.556878439219609618e+03 5.470376585156592119e-04
1.557778889444722381e+03 5.254439189857965358e-04
1.558679339669834917e+03 5.073231623478284937e-04
1.559579789894947453e+03 4.872878995431785911e-04
1.560480240120059989e+03 4.666420863148416898e-04
1.561380690345172525e+03 4.494308071837063343e-04
1.562281140570285061e+03 4.333260977756220626e-04
1.563181590795397597e+03 4.124109102167517328e-04
1.564082041020510133e+03 3.851684722685966484e-04
1.564982491245622668e+03 3.570281445081121391e-04
1.565882941470735204e+03 3.326231585591518007e-04
1.566783391695847740e+03 3.125366759365868987e-04
1.567683841920960504e+03 2.954777046519575963e-04
1.568584292146073039e+03 2.785118977690133769e-04
1.569484742371185575e+03 2.585539764669154798e-04
1.570385192596298111e+03 2.355449761493650545e-04
1.571285642821410647e+03 2.131006316401012283e-04
1.572186093046523183e+03 1.942836079310860699e-04
1.573086543271635719e+03 1.797510080726336199e-04
1.573986993496748255e+03 1.683786148342930221e-04
1.574887443721860791e+03 1.576200558933082637e-04
1.575787893946973327e+03 1.461950014447362903e-04
1.576688344172085863e+03 1.352041752079473141e-04
1.577588794397198626e+03 1.255549469236763767e-04
1.578489244622311162e+03 1.172553831141381799e-04
1.579389694847423698e+03 1.102608271617777706e-04
1.580290145072536234e+03 1.044956092088256063e-04
1.581190595297648770e+03 9.969628134419135455e-05
1.582091045522761306e+03 9.552865988647427770e-05
1.582991495747873842e+03 9.178731801865945528e-05
1.583891945972986377e+03 8.843287251538144720e-05
1.584792396198098913e+03 8.545244118609379659e-05
1.585692846423211449e+03 8.279920163455980217e-05
1.586593296648323985e+03 8.041525780533130422e-05
1.587493746873436749e+03 7.825040658668855689e-05
1.588394197098549284e+03 7.626568986154103654e-05
1.589294647323661820e+03 7.443154999795776011e-05
1.590195097548774356e+03 7.272536220105141108e-05
1.591095547773886892e+03 7.112948776179521711e-05
1.591995997998999428e+03 6.962990197937300729e-05
1.592896448224111964e+03 6.821524852776452677e-05
1.593796898449224500e+03 6.687618278119362438e-05
1.594697348674337036e+03 6.560490753625344027e-05
1.595597798899449572e+03 6.439483786429924298e-05
1.596498249124562108e+03 6.324035415719308519e-05
1.597398699349674871e+03 6.213661665114814288e-05
1.598299149574787407e+03 6.107942370024833738e-05
1.599199599799899943e+03 6.006510180330133889e-05
1.600100050025012479e+03 5.909041910441649366e-05
1.601000500250125015e+03 5.815251654447937154e-05
1.601900950475237551e+03 5.724885249750143586e-05
1.602801400700350086e+03 5.637715786583697222e-05
1.603701850925462622e+03 5.553539940862636711e-05
1.604602301150575158e+03 5.472174965170377735e-05
1.605502751375687694e+03 5.393456214838799505e-05
1.606403201600800230e+03 5.317235117875127238e-05
1.607303651825912766e+03 5.243377522482311451e-05
1.608204102051025529e+03 5.171762376654693189e-05
1.609104552276138065e+03 5.102280712932176618e-05
1.610005002501250601e+03 5.034834929857868134e-05
1.610905452726363137e+03 4.969338382219794237e-05
1.611805902951475673e+03 4.905715317633234412e-05
1.612706353176588209e+03 4.843901231581655394e-05
1.613606803401700745e+03 4.783843763107750003e-05
1.614507253626813281e+03 4.725504329357284935e-05
1.615407703851925817e+03 4.668860816503440941e-05
1.616308154077038353e+03 4.613911836713500893e-05
1.617208604302150889e+03 4.560683376377273451e-05
1.618109054527263652e+03 4.509239186594908100e-05
1.619009504752376188e+03 4.459697148772743326e-05
1.619909954977488724e+03 4.412255315071073064e-05
1.620810405202601260e+03 4.367233663393301407e-05
1.621710855427713796e+03 4.325140859955983643e-05
1.622611305652826331e+03 4.286777710970445491e-05
1.623511755877938867e+03 4.253380249497053461e-05
1.624412206103051403e+03 4.226741685893215927e-05
1.625312656328163939e+03 4.208979931055957031e-05
1.626213106553276475e+03 4.200788396971687569e-05
1.627113556778389011e+03 4.196068836500233999e-05
1.628014007003501774e+03 4.176355233830871634e-05
1.628914457228614310e+03 4.124305395697405925e-05
1.629814907453726846e+03 4.048400252989635737e-05
1.630715357678839382e+03 3.969875047318633320e-05
1.631615807903951918e+03 3.899577847740162321e-05
1.632516258129064454e+03 3.838597227047358307e-05
1.633416708354176990e+03 3.784964330225225050e-05
1.634317158579289526e+03 3.736625491993949470e-05
1.635217608804402062e+03 3.692070504447431269e-05
1.636118059029514598e+03 3.650283120143608023e-05
1.637018509254627133e+03 3.610591135411502504e-05
1.637918959479739897e+03 3.572545679494952325e-05
1.638819409704852433e+03 3.535840850235525649e-05
1.639719859929964969e+03 3.500262954800432508e-05
1.640620310155077505e+03 3.465658745088610101e-05
1.641520760380190040e+03 3.431915382592323256e-05
1.642421210605302576e+03 3.398947609363715935e-05
1.643321660830415112e+03 3.366689384410957432e-05
1.644222111055527648e+03 3.335088327853259483e-05
1.645122561280640184e+03 3.304101960850479953e-05
1.646023011505752720e+03 3.273695114637671340e-05
1.646923461730865256e+03 3.243838114207506462e-05
1.647823911955978019e+03 3.214505484097012844e-05
1.648724362181090555e+03 3.185675011840935765e-05
1.649624812406203091e+03 3.157327060254196517e-05
1.650525262631315627e+03 3.129444055368485727e-05
1.651425712856428163e+03 3.102010100084163304e-05
1.652326163081540699e+03 3.075010678973576808e-05
1.653226613306653235e+03 3.048432429990317665e-05
1.654127063531765771e+03 3.022262965862512209e-05
1.655027513756878307e+03 2.996490732790009536e-05
1.655927963981990843e+03 2.971104897445392474e-05
1.656828414207103378e+03 2.946095255666647170e-05
1.657728864432216142e+03 2.921452157932865896e-05
1.658629314657328678e+03 2.897166447945989691e-05
1.659529764882441214e+03 2.873229411536802152e-05
1.660430215107553749e+03 2.849632733774471198e-05
1.661330665332666285e+03 2.826368462647345335e-05
1.662231115557778821e+03 2.803428978050281233e-05
1.663131565782891357e+03 2.780806965090127652e-05
1.664032016008003893e+03 2.758495390931634621e-05
1.664932466233116429e+03 2.736487484567107928e-05
1.665832916458228965e+03 2.714776719018427469e-05
1.666733366683341501e+03 2.693356795575577430e-05
1.667633816908454037e+03 2.672221629752862381e-05
1.668534267133566800e+03 2.651365338702367663e-05
1.669434717358679336e+03 2.630782229872496547e-05
1.670335167583791872e+03 2.610466790735919350e-05
1.671235617808904408e+03 2.590413679442266705e-05
1.672136068034016944e+03 2.570617716274839045e-05
1.673036518259129480e+03 2.551073875809869941e-05
1.673936968484242016e+03 2.531777279693633571e-05
1.674837418709354552e+03 2.512723189965097991e-05
1.675737868934467087e+03 2.493907002863087683e-05
1.676638319159579623e+03 2.475324243065259440e-05
1.677538769384692159e+03 2.456970558314318671e-05
1.678439219609804923e+03 2.438841714392181936e-05
1.679339669834917459e+03 2.420933590408965022e-05
1.680240120060029994e+03 2.403242174376943739e-05
1.681140570285142530e+03 2.385763559044101173e-05
1.682041020510255066e+03 2.368493937964852297e-05
1.682941470735367602e+03 2.351429601787638493e-05
1.683841920960480138e+03 2.334566934742271754e-05
1.684742371185592674e+03 2.317902411310994914e-05
1.685642821410705210e+03 2.301432593069402139e-05
1.686543271635817746e+03 2.285154125684902117e-05
1.687443721860930282e+03 2.269063736061011536e-05
1.688344172086043045e+03 2.253158229617972740e-05
1.689244622311155581e+03 2.237434487699750747e-05
1.690145072536268117e+03 2.221889465099953685e-05
1.691045522761380653e+03 2.206520187698317456e-05
1.691945972986493189e+03 2.191323750201249076e-05
1.692846423211605725e+03 2.176297313980158615e-05
1.693746873436718261e+03 2.161438105001647116e-05
1.694647323661830796e+03 2.146743411843981419e-05
1.695547773886943332e+03 2.132210583795584815e-05
1.696448224112055868e+03 2.117837029030359691e-05
1.697348674337168404e+03 2.103620212855968164e-05
1.698249124562281168e+03 2.089557656031159461e-05
1.699149574787393703e+03 2.075646933148566842e-05
1.700050025012506239e+03 2.061885671079288123e-05
1.700950475237618775e+03 2.048271547476708703e-05
1.701850925462731311e+03 2.034802289336042075e-05
1.702751375687843847e+03 2.021475671607287966e-05
1.703651825912956383e+03 2.008289515858775620e-05
1.704552276138068919e+03 1.995241688989082151e-05
1.705452726363181455e+03 1.982330101984895995e-05
1.706353176588293991e+03 1.969552708722927090e-05
1.707253626813406527e+03 1.956907504813661168e-05
1.708154077038519290e+03 1.944392526485201397e-05
1.709054527263631826e+03 1.932005849505423362e-05
1.709954977488744362e+03 1.919745588140700859e-05
1.710855427713856898e+03 1.907609894149807958e-05
1.711755877938969434e+03 1.895596955811160609e-05
1.712656328164081970e+03 1.883704996982456256e-05
1.713556778389194506e+03 1.871932276190924874e-05
1.714457228614307041e+03 1.860277085753253942e-05
1.715357678839419577e+03 1.848737750923726733e-05
1.716258129064532113e+03 1.837312629069772282e-05
1.717158579289644649e+03 1.826000108873413553e-05
1.718059029514757185e+03 1.814798609557888412e-05
1.718959479739869948e+03 1.803706580138473041e-05
1.719859929964982484e+03 1.792722498696307378e-05
1.720760380190095020e+03 1.781844871674640167e-05
1.721660830415207556e+03 1.771072233196499871e-05
1.722561280640320092e+03 1.760403144402935611e-05
1.723461730865432628e+03 1.749836192811194218e-05
1.724362181090545164e+03 1.739369991691957891e-05
1.725262631315657700e+03 1.729003179465107821e-05
1.726163081540770236e+03 1.718734419113127112e-05
1.727063531765882772e+03 1.708562397611730315e-05
1.727963981990995308e+03 1.698485825376946069e-05
1.728864432216108071e+03 1.688503435728058233e-05
1.729764882441220607e+03 1.678613984366051110e-05
1.730665332666333143e+03 1.668816248866754416e-05
1.731565782891445679e+03 1.659109028188303784e-05
1.732466233116558215e+03 1.649491142192521754e-05
1.733366683341670750e+03 1.639961431179447752e-05
1.734267133566783286e+03 1.630518755434952363e-05
1.735167583791895822e+03 1.621161994790724383e-05
1.736068034017008358e+03 1.611890048196204763e-05
1.736968484242120894e+03 1.602701833302314300e-05
1.737868934467233430e+03 1.593596286056335730e-05
1.738769384692346193e+03 1.584572360307673773e-05
1.739669834917458729e+03 1.575629027424246435e-05
1.740570285142571265e+03 1.566765275918871660e-05
1.741470735367683801e+03 1.557980111085724510e-05
1.742371185592796337e+03 1.549272554646142209e-05
1.743271635817908873e+03 1.540641644403884105e-05
1.744172086043021409e+03 1.532086433909110311e-05
1.745072536268133945e+03 1.523605992131205742e-05
1.745972986493246481e+03 1.515199403139906263e-05
1.746873436718359017e+03 1.506865765794614116e-05
1.747773886943471553e+03 1.498604193441544852e-05
1.748674337168584316e+03 1.490413813618564465e-05
1.749574787393696852e+03 1.482293767767456876e-05
1.750475237618809388e+03 1.474243210953300563e-05
1.751375687843921924e+03 1.466261311590880140e-05
1.752276138069034459e+03 1.458347251177856741e-05
1.753176588294146995e+03 1.450500224034470737e-05
1.754077038519259531e+03 1.442719437049660210e-05
1.754977488744372067e+03 1.435004109433276370e-05
1.755877938969484603e+03 1.427353472474387108e-05
1.756778389194597139e+03 1.419766769305401195e-05
1.757678839419709675e+03 1.412243254671712074e-05
1.758579289644822438e+03 1.404782194707054735e-05
1.759479739869934974e+03 1.397382866714010164e-05
1.760380190095047510e+03 1.390044558949795121e-05
1.761280640320160046e+03 1.382766570417057367e-05
1.762181090545272582e+03 1.375548210659539804e-05
1.763081540770385118e+03 1.368388799562607947e-05
1.763981990995497654e+03 1.361287667158211610e-05
1.764882441220610190e+03 1.354244153434573029e-05
1.765782891445722726e+03 1.347257608150063409e-05
1.766683341670835262e+03 1.340327390651399321e-05
1.767583791895947797e+03 1.333452869696014816e-05
1.768484242121060333e+03 1.326633423278381721e-05
1.769384692346173097e+03 1.319868438460310826e-05
1.770285142571285633e+03 1.313157311205011181e-05
1.771185592796398169e+03 1.306499446214866686e-05
1.772086043021510704e+03 1.299894256772877286e-05
1.772986493246623240e+03 1.293341164587523694e-05
1.773886943471735776e+03 1.286839599641103437e-05
1.774787393696848312e+03 1.280389000041367614e-05
1.775687843921960848e+03 1.273988811876483441e-05
1.776588294147073384e+03 1.267638489073025962e-05
1.777488744372185920e+03 1.261337493257118685e-05
1.778389194597298456e+03 1.255085293618580338e-05
1.779289644822411219e+03 1.248881366777963400e-05
1.780190095047523755e+03 1.242725196656439334e-05
1.781090545272636291e+03 1.236616274348466667e-05
1.781990995497748827e+03 1.230554097997149413e-05
1.782891445722861363e+03 1.224538172672237902e-05
1.783791895947973899e+03 1.218568010250683920e-05
1.784692346173086435e+03 1.212643129299715267e-05
1.785592796398198971e+03 1.206763054962359079e-05
1.786493246623311506e+03 1.200927318845327199e-05
1.787393696848424042e+03 1.195135458909158031e-05
1.788294147073536578e+03 1.189387019360770753e-05
1.789194597298649342e+03 1.183681550548141682e-05
1.790095047523761878e+03 1.178018608857095000e-05
1.790995497748874413e+03 1.172397756610250035e-05
1.791895947973986949e+03 1.166818561968036140e-05
1.792796398199099485e+03 1.161280598831656091e-05
1.793696848424212021e+03 1.155783446748075080e-05
1.794597298649324557e+03 1.150326690816787459e-05
1.795497748874437093e+03 1.144909921598624324e-05
1.796398199099549629e+03 1.139532735026236367e-05
1.797298649324662165e+03 1.134194732316410546e-05
1.798199099549774701e+03 1.128895519884078454e-05
1.799099549774887464e+03 1.123634709258114638e-05
1.800000000000000000e+03 1.118411916998643654e-05
