0.000000000000000000e+00 8.641424173041486285e-04
9.004502251125562351e-01 1.131799995900646411e-03
1.800900450225112470e+00 1.422641435713580763e-03
2.701350675337668594e+00 1.629572521959201260e-03
3.601800900450224940e+00 1.652120443750091988e-03
4.502251125562780842e+00 1.479783422796097968e-03
5.402701350675337189e+00 1.194419438412391192e-03
6.303151575787893535e+00 9.082697717431456944e-04
7.203601800900449881e+00 6.800616968118243120e-04
8.104052026013006227e+00 5.142595643648202684e-04
9.004502251125561685e+00 3.966334839604112109e-04
9.904952476238118919e+00 3.126608696119409741e-04
1.080540270135067438e+01 2.516654029153147024e-04
1.170585292646323161e+01 2.064472832281436670e-04
1.260630315157578707e+01 1.722401624643186816e-04
1.350675337668834430e+01 1.458734327943099430e-04
1.440720360180089976e+01 1.252147872753693104e-04
1.530765382691345522e+01 1.088090046653259678e-04
1.620810405202601245e+01 9.563946664020826912e-05
1.710855427713856969e+01 8.496471791391853432e-05
1.800900450225112337e+01 7.619163416015151829e-05
1.890945472736368060e+01 6.882006097256461159e-05
1.980990495247623784e+01 6.246983969448714779e-05
2.071035517758879507e+01 5.686161293655773378e-05
2.161080540270134875e+01 5.186353467179054006e-05
2.251125562781390599e+01 4.750416688658048726e-05
2.341170585292646322e+01 4.376706698987776605e-05
2.431215607803901690e+01 4.055571580272502956e-05
2.521260630315157414e+01 3.780429317650801279e-05
2.611305652826413137e+01 3.546074625418623572e-05
2.701350675337668861e+01 3.343931227758513430e-05
2.791395697848924229e+01 3.164483287533395773e-05
2.881440720360179952e+01 2.998486840080023309e-05
2.971485742871435676e+01 2.840008887961168081e-05
3.061530765382691044e+01 2.683827043806131152e-05
3.151575787893946767e+01 2.525672524061619531e-05
3.241620810405202491e+01 2.371677708874748072e-05
3.331665832916458214e+01 2.232910048770111625e-05
3.421710855427713938e+01 2.114373503185724924e-05
3.511755877938969661e+01 2.015005106966901018e-05
3.601800900450224674e+01 1.929513362719105277e-05
3.691845922961480397e+01 1.850836602121372758e-05
3.781890945472736121e+01 1.773504677117487331e-05
3.871935967983991844e+01 1.697751231630829021e-05
3.961980990495247568e+01 1.628988354705787376e-05
4.052026013006503291e+01 1.572491907840474872e-05
4.142071035517759015e+01 1.531380477652580607e-05
4.232116058029014027e+01 1.505034877450655771e-05
4.322161080540269751e+01 1.490489005162976966e-05
4.412206103051525474e+01 1.485194130753709689e-05
4.502251125562781198e+01 1.486602454002044666e-05
4.592296148074036921e+01 1.493674831078181118e-05
4.682341170585292645e+01 1.501474067450275085e-05
4.772386193096548368e+01 1.494131845009213877e-05
4.862431215607803381e+01 1.461916611833260089e-05
4.952476238119059104e+01 1.414971499317126486e-05
5.042521260630314828e+01 1.369273460179743561e-05
5.132566283141570551e+01 1.333515974651973530e-05
5.222611305652826275e+01 1.308968939509669641e-05
5.312656328164081998e+01 1.291236256736981171e-05
5.402701350675337721e+01 1.274927921118979227e-05
5.492746373186592734e+01 1.257871932452399635e-05
5.582791395697848458e+01 1.236636423923864080e-05
5.672836418209104181e+01 1.207407109214922000e-05
5.762881440720359905e+01 1.174697292938301802e-05
5.852926463231615628e+01 1.149231076904657374e-05
5.942971485742871351e+01 1.135250087189053362e-05
6.033016508254127075e+01 1.128474489426244992e-05
6.123061530765382088e+01 1.123073358542059343e-05
6.213106553276637811e+01 1.115539365289349292e-05
6.303151575787893535e+01 1.107773202278448481e-05
6.393196598299149258e+01 1.107126677787704784e-05
6.483241620810404982e+01 1.117810254457498088e-05
6.573286643321659994e+01 1.138137315008160252e-05
6.663331665832916428e+01 1.166960772046016345e-05
6.753376688344171441e+01 1.204824582859585456e-05
6.843421710855427875e+01 1.247228145208085952e-05
6.933466733366682888e+01 1.276058918082219920e-05
7.023511755877939322e+01 1.273589197538798313e-05
7.113556778389194335e+01 1.252353388822329539e-05
7.203601800900449348e+01 1.240127956219622486e-05
7.293646823411705782e+01 1.253689240743576147e-05
7.383691845922960795e+01 1.296556974806201971e-05
7.473736868434217229e+01 1.364932036022945791e-05
7.563781890945472242e+01 1.449186215933829031e-05
7.653826913456728676e+01 1.535336161863187275e-05
7.743871935967983688e+01 1.618545560763153579e-05
7.833916958479238701e+01 1.707453083079432885e-05
7.923961980990495135e+01 1.801477298820025017e-05
8.014007003501750148e+01 1.877983533693115139e-05
8.104052026013006582e+01 1.913976290634504228e-05
8.194097048524261595e+01 1.907166712260473137e-05
8.284142071035518029e+01 1.873818479423977143e-05
8.374187093546773042e+01 1.843888936617748002e-05
8.464232116058028055e+01 1.842152738451452673e-05
8.554277138569284489e+01 1.870394394673419010e-05
8.644322161080539502e+01 1.910995177312512568e-05
8.734367183591795936e+01 1.939322735539650153e-05
8.824412206103050949e+01 1.940513134258830961e-05
8.914457228614307382e+01 1.922956577889932520e-05
9.004502251125562395e+01 1.903398907767138402e-05
9.094547273636817408e+01 1.889562410708084281e-05
9.184592296148073842e+01 1.882000797125612119e-05
9.274637318659328855e+01 1.879939333317164044e-05
9.364682341170585289e+01 1.888111265847974116e-05
9.454727363681840302e+01 1.902121273491640317e-05
9.544772386193096736e+01 1.902716393576035846e-05
9.634817408704351749e+01 1.880225248100185866e-05
9.724862431215606762e+01 1.847959504951721886e-05
9.814907453726863196e+01 1.822687652528786267e-05
9.904952476238118209e+01 1.802435725844528218e-05
9.994997498749374643e+01 1.767492875702365084e-05
1.008504252126062966e+02 1.712775546355023478e-05
1.017508754377188609e+02 1.662349716614664030e-05
1.026513256628314110e+02 1.635676735095024833e-05
1.035517758879439612e+02 1.621011431746930811e-05
1.044522261130565255e+02 1.591896431325635114e-05
1.053526763381690756e+02 1.544803784310064393e-05
1.062531265632816400e+02 1.503861444080541416e-05
1.071535767883941901e+02 1.491178834000440939e-05
1.080540270135067544e+02 1.513675413479142389e-05
1.089544772386193046e+02 1.562352285203450801e-05
1.098549274637318547e+02 1.614888177860521971e-05
1.107553776888444190e+02 1.646206530596577356e-05
1.116558279139569692e+02 1.648121307051796577e-05
1.125562781390695335e+02 1.642038254263301306e-05
1.134567283641820836e+02 1.654373576660557438e-05
1.143571785892946480e+02 1.686048422723305289e-05
1.152576288144071981e+02 1.715403581957494566e-05
1.161580790395197482e+02 1.724790257973630520e-05
1.170585292646323126e+02 1.720810277970152673e-05
1.179589794897448627e+02 1.722475321206977850e-05
1.188594297148574270e+02 1.735683876892917102e-05
1.197598799399699772e+02 1.755117916280100453e-05
1.206603301650825415e+02 1.777214046681154788e-05
1.215607803901950916e+02 1.795948137951467846e-05
1.224612306153076418e+02 1.809222015109608584e-05
1.233616808404202061e+02 1.826779559467954630e-05
1.242621310655327562e+02 1.861435903973150717e-05
1.251625812906453206e+02 1.913009911260698484e-05
1.260630315157578707e+02 1.963744931954462279e-05
1.269634817408704350e+02 1.989436558883166158e-05
1.278639319659829852e+02 1.977538309533504959e-05
1.287643821910955353e+02 1.931653410426645591e-05
1.296648324162080996e+02 1.866757996471455144e-05
1.305652826413206640e+02 1.806367489761601005e-05
1.314657328664331999e+02 1.772810933102771810e-05
1.323661830915457642e+02 1.775176908077284862e-05
1.332666333166583286e+02 1.806767046965881477e-05
1.341670835417708929e+02 1.852944672059749287e-05
1.350675337668834288e+02 1.905077116812703907e-05
1.359679839919959932e+02 1.961990498737743911e-05
1.368684342171085575e+02 2.013715457039969646e-05
1.377688844422210934e+02 2.046231066269209249e-05
1.386693346673336578e+02 2.058938666698300406e-05
1.395697848924462221e+02 2.066620047484010617e-05
1.404702351175587864e+02 2.080893570521607659e-05
1.413706853426713224e+02 2.103397599469429053e-05
1.422711355677838867e+02 2.136890964330054001e-05
1.431715857928964510e+02 2.191504892200272622e-05
1.440720360180089870e+02 2.273321608973241214e-05
1.449724862431215513e+02 2.369780400454082127e-05
1.458729364682341156e+02 2.436667146175836355e-05
1.467733866933466800e+02 2.431222118742585832e-05
1.476738369184592159e+02 2.371929286076386955e-05
1.485742871435717802e+02 2.305237205786769494e-05
1.494747373686843446e+02 2.254595592366647865e-05
1.503751875937968805e+02 2.224938664690862919e-05
1.512756378189094448e+02 2.226156137210388148e-05
1.521760880440220092e+02 2.279966215215381307e-05
1.530765382691345735e+02 2.392636028768254909e-05
1.539769884942471094e+02 2.527480477571651183e-05
1.548774387193596738e+02 2.619739839098384442e-05
1.557778889444722381e+02 2.639148945236899374e-05
1.566783391695847740e+02 2.611488550113594907e-05
1.575787893946973384e+02 2.570987176174540642e-05
1.584792396198099027e+02 2.540317261583484459e-05
1.593796898449224670e+02 2.536796690119262900e-05
1.602801400700350030e+02 2.576119870565973428e-05
1.611805902951475673e+02 2.657293627503339991e-05
1.620810405202601316e+02 2.750902225941152834e-05
1.629814907453726676e+02 2.822277446931905766e-05
1.638819409704852319e+02 2.860622059890894871e-05
1.647823911955977962e+02 2.870839129048795686e-05
1.656828414207103606e+02 2.861117442897149826e-05
1.665832916458228965e+02 2.837665728153510467e-05
1.674837418709354608e+02 2.800977573931607805e-05
1.683841920960480252e+02 2.751418745440469831e-05
1.692846423211605611e+02 2.694391379770967685e-05
1.701850925462731254e+02 2.641155572087588711e-05
1.710855427713856898e+02 2.597738430597520154e-05
1.719859929964982541e+02 2.569430561963051264e-05
1.728864432216107900e+02 2.566482760375613252e-05
1.737868934467233544e+02 2.594065986144187725e-05
1.746873436718359187e+02 2.645148806613830062e-05
1.755877938969484546e+02 2.704856151989859815e-05
1.764882441220610190e+02 2.757117722882237789e-05
1.773886943471735833e+02 2.784503656570125411e-05
1.782891445722861476e+02 2.784033377825041809e-05
1.791895947973986836e+02 2.771687796601526483e-05
1.800900450225112479e+02 2.758687470303077051e-05
1.809904952476238122e+02 2.743449174422163484e-05
1.818909454727363482e+02 2.726867015103905600e-05
1.827913956978489125e+02 2.717544259296710772e-05
1.836918459229614768e+02 2.727619076370779629e-05
1.845922961480740412e+02 2.770496789679278163e-05
1.854927463731865771e+02 2.848088565594690457e-05
1.863931965982991414e+02 2.939524387870426166e-05
1.872936468234117058e+02 3.009504786350842003e-05
1.881940970485242417e+02 3.040266384131374853e-05
1.890945472736368060e+02 3.046998942734051354e-05
1.899949974987493704e+02 3.048164872391734973e-05
1.908954477238619347e+02 3.032649891514855483e-05
1.917958979489744706e+02 2.973666801411176732e-05
1.926963481740870350e+02 2.884171936280466951e-05
1.935967983991995993e+02 2.821975007727697094e-05
1.944972486243121352e+02 2.832262096846061263e-05
1.953976988494246996e+02 2.914833488662458495e-05
1.962981490745372639e+02 3.025160476055467580e-05
1.971985992996498283e+02 3.103718726780445471e-05
1.980990495247623642e+02 3.122220217277903365e-05
1.989994997498749285e+02 3.096413671418670100e-05
1.998999499749874929e+02 3.061846298370357106e-05
2.008004002001000288e+02 3.050111507301989428e-05
2.017008504252125931e+02 3.089522902264601664e-05
2.026013006503251574e+02 3.187153506391429111e-05
2.035017508754377218e+02 3.300687400448345339e-05
2.044022011005502577e+02 3.374903622757155936e-05
2.053026513256628220e+02 3.402973532464279157e-05
2.062031015507753864e+02 3.425288926990919863e-05
2.071035517758879223e+02 3.482501166112451907e-05
2.080040020010004866e+02 3.558632136054222273e-05
2.089044522261130510e+02 3.586664492840839198e-05
2.098049024512256153e+02 3.531215481971966308e-05
2.107053526763381512e+02 3.422505548603224402e-05
2.116058029014507156e+02 3.306159086225541141e-05
2.125062531265632799e+02 3.204696846694074839e-05
2.134067033516758158e+02 3.128939975165327951e-05
2.143071535767883802e+02 3.096919731365939036e-05
2.152076038019009445e+02 3.117569939319677101e-05
2.161080540270135089e+02 3.167531053652325787e-05
2.170085042521260448e+02 3.202262104713321419e-05
2.179089544772386091e+02 3.197417035203456448e-05
2.188094047023511735e+02 3.168980840532205476e-05
2.197098549274637094e+02 3.147215862256403079e-05
2.206103051525762737e+02 3.146261495307985025e-05
2.215107553776888381e+02 3.160821413935243577e-05
2.224112056028014024e+02 3.188051107854654177e-05
2.233116558279139383e+02 3.247273674133550398e-05
2.242121060530265027e+02 3.362846413610962249e-05
2.251125562781390670e+02 3.526214526444899753e-05
2.260130065032516029e+02 3.682373269086648433e-05
2.269134567283641672e+02 3.761324846535248691e-05
2.278139069534767316e+02 3.745284724584428275e-05
2.287143571785892959e+02 3.683890385827450983e-05
2.296148074037018318e+02 3.621535454759141124e-05
2.305152576288143962e+02 3.560945105656728387e-05
2.314157078539269605e+02 3.506607959348582038e-05
2.323161580790394964e+02 3.485890461869040524e-05
2.332166083041520608e+02 3.509515704836483393e-05
2.341170585292646251e+02 3.561778029708092440e-05
2.350175087543771895e+02 3.633411472478872533e-05
2.359179589794897254e+02 3.725159083989344229e-05
2.368184092046022897e+02 3.824238884923275838e-05
2.377188594297148541e+02 3.899691177435116022e-05
2.386193096548273900e+02 3.941746876642315855e-05
2.395197598799399543e+02 3.984573737804061460e-05
2.404202101050525187e+02 4.057926330245156392e-05
2.413206603301650830e+02 4.150238218229253051e-05
2.422211105552776189e+02 4.224064657583240061e-05
2.431215607803901833e+02 4.245094823598098883e-05
2.440220110055027476e+02 4.213360170214231225e-05
2.449224612306152835e+02 4.168118486068013158e-05
2.458229114557278479e+02 4.130809364156313654e-05
2.467233616808404122e+02 4.097566479997430009e-05
2.476238119059529765e+02 4.078228989052472882e-05
2.485242621310655124e+02 4.069882035326714435e-05
2.494247123561780768e+02 4.048693931175430510e-05
2.503251625812906411e+02 4.001615115773212149e-05
2.512256128064031770e+02 3.948127472638350528e-05
2.521260630315157414e+02 3.932819594260921121e-05
2.530265132566283057e+02 3.967596030212178671e-05
2.539269634817408701e+02 4.016530316310854850e-05
2.548274137068534060e+02 4.051627082731532292e-05
2.557278639319659703e+02 4.079095738180178011e-05
2.566283141570785347e+02 4.104281745021848862e-05
2.575287643821910706e+02 4.114397664219253571e-05
2.584292146073036633e+02 4.095003290840972725e-05
2.593296648324161993e+02 4.057998302771157183e-05
2.602301150575287352e+02 4.031298092744111110e-05
2.611305652826413279e+02 4.043005667362250491e-05
2.620310155077538639e+02 4.111951644695862750e-05
2.629314657328663998e+02 4.215999438157062260e-05
2.638319159579789925e+02 4.317283197589721189e-05
2.647323661830915285e+02 4.417525121353875055e-05
2.656328164082040644e+02 4.531906951363752630e-05
2.665332666333166571e+02 4.649635956243606920e-05
2.674337168584291931e+02 4.752507316500205491e-05
2.683341670835417858e+02 4.826939615832918549e-05
2.692346173086543217e+02 4.874736593239054896e-05
2.701350675337668577e+02 4.913086363652917940e-05
2.710355177588794504e+02 4.949390563742252604e-05
2.719359679839919863e+02 4.990384422495957245e-05
2.728364182091045222e+02 5.037100491529077236e-05
2.737368684342171150e+02 5.096108748776923540e-05
2.746373186593296509e+02 5.179821868936584559e-05
2.755377688844421868e+02 5.275985194239662810e-05
2.764382191095547796e+02 5.358156119462711953e-05
2.773386693346673155e+02 5.416010880313639847e-05
2.782391195597798514e+02 5.467340034227543356e-05
2.791395697848924442e+02 5.512726618663878718e-05
2.800400200100049801e+02 5.518191758588142154e-05
2.809404702351175729e+02 5.466004807003971083e-05
2.818409204602301088e+02 5.369916861103705399e-05
2.827413706853426447e+02 5.265725965121516170e-05
2.836418209104552375e+02 5.191961262396109760e-05
2.845422711355677734e+02 5.158691353758557520e-05
2.854427213606803093e+02 5.146955396051535603e-05
2.863431715857929021e+02 5.133005408741431435e-05
2.872436218109054380e+02 5.110640397590816722e-05
2.881440720360179739e+02 5.096055396033872793e-05
2.890445222611305667e+02 5.100364637211171089e-05
2.899449724862431026e+02 5.109009247917348944e-05
2.908454227113556385e+02 5.107726514950758725e-05
2.917458729364682313e+02 5.087097463139314828e-05
2.926463231615807672e+02 5.042130037741762488e-05
2.935467733866933600e+02 4.989582587255478107e-05
2.944472236118058959e+02 4.964373663614792573e-05
2.953476738369184318e+02 4.983339734208168398e-05
2.962481240620310246e+02 5.035527896403264804e-05
2.971485742871435605e+02 5.108634834616296213e-05
2.980490245122560964e+02 5.185875772339053959e-05
2.989494747373686891e+02 5.229285016917301700e-05
2.998499249624812251e+02 5.210812563815462087e-05
3.007503751875937610e+02 5.160952050435406159e-05
3.016508254127063537e+02 5.150938612767577679e-05
3.025512756378188897e+02 5.218858958111292364e-05
3.034517258629314256e+02 5.326607424236868990e-05
3.043521760880440183e+02 5.402248927070548541e-05
3.052526263131565543e+02 5.430648927360657934e-05
3.061530765382691470e+02 5.458375435423185338e-05
3.070535267633816829e+02 5.516934622875973269e-05
3.079539769884942189e+02 5.571843453001685821e-05
3.088544272136068116e+02 5.565190608371202018e-05
3.097548774387193475e+02 5.493857783496616998e-05
3.106553276638318835e+02 5.391932916497221265e-05
3.115557778889444762e+02 5.286804705408564009e-05
3.124562281140570121e+02 5.207519904352699334e-05
3.133566783391695481e+02 5.192163831589083258e-05
3.142571285642821408e+02 5.260807295403648368e-05
3.151575787893946767e+02 5.384886754595032425e-05
3.160580290145072127e+02 5.502661647649897714e-05
3.169584792396198054e+02 5.577079127999745410e-05
3.178589294647323413e+02 5.611596592118441409e-05
3.187593796898449341e+02 5.616778111381659218e-05
3.196598299149574700e+02 5.596747665320720778e-05
3.205602801400700059e+02 5.553917856236949871e-05
3.214607303651825987e+02 5.490839704760109284e-05
3.223611805902951346e+02 5.420869474045253824e-05
3.232616308154076705e+02 5.386676868855522053e-05
3.241620810405202633e+02 5.433213348799001072e-05
3.250625312656327992e+02 5.568347702802941814e-05
3.259629814907453351e+02 5.752420091971578795e-05
3.268634317158579279e+02 5.925615054821165663e-05
3.277638819409704638e+02 6.047163833378640713e-05
3.286643321660829997e+02 6.098922621202064074e-05
3.295647823911955925e+02 6.069303350123609020e-05
3.304652326163081284e+02 5.980636009149341010e-05
3.313656828414207212e+02 5.908182688794671062e-05
3.322661330665332571e+02 5.920239044814265572e-05
3.331665832916457930e+02 6.011742800197747433e-05
3.340670335167583858e+02 6.115535998813289686e-05
3.349674837418709217e+02 6.192391599278339678e-05
3.358679339669834576e+02 6.252901918367610203e-05
3.367683841920960504e+02 6.283272887950384238e-05
3.376688344172085863e+02 6.234748494894321676e-05
3.385692846423211222e+02 6.094681970877131470e-05
3.394697348674337150e+02 5.916709050191783377e-05
3.403701850925462509e+02 5.779662337912417258e-05
3.412706353176587868e+02 5.706928214321786556e-05
3.421710855427713796e+02 5.672637489239650325e-05
3.430715357678839155e+02 5.662604456061408564e-05
3.439719859929965082e+02 5.675206125920854983e-05
3.448724362181090441e+02 5.694268845428154374e-05
3.457728864432215801e+02 5.721461704057799344e-05
3.466733366683341728e+02 5.775912633702858732e-05
3.475737868934467087e+02 5.831408877125694452e-05
3.484742371185592447e+02 5.850711706542441906e-05
3.493746873436718374e+02 5.853966634951424580e-05
3.502751375687843733e+02 5.872143123436783117e-05
3.511755877938969093e+02 5.871723524281597707e-05
3.520760380190095020e+02 5.796214084505314123e-05
3.529764882441220379e+02 5.662520593846904419e-05
3.538769384692345739e+02 5.530311178624210334e-05
3.547773886943471666e+02 5.419699309640693582e-05
3.556778389194597025e+02 5.328072744794640155e-05
3.565782891445722953e+02 5.262451695761971332e-05
3.574787393696848312e+02 5.226115556623139868e-05
3.583791895947973671e+02 5.213189182967832986e-05
3.592796398199099599e+02 5.208165344967472589e-05
3.601800900450224958e+02 5.187093870454243801e-05
3.610805402701350317e+02 5.140353713764650423e-05
3.619809904952476245e+02 5.089227993240508951e-05
3.628814407203601604e+02 5.057459814693411734e-05
3.637818909454726963e+02 5.040031439844935097e-05
3.646823411705852891e+02 5.019156059537655120e-05
3.655827913956978250e+02 4.996173415428034902e-05
3.664832416208103609e+02 4.989879892062281590e-05
3.673836918459229537e+02 5.011792259814238883e-05
3.682841420710354896e+02 5.056819138899466007e-05
3.691845922961480824e+02 5.121641273915703262e-05
3.700850425212606183e+02 5.208148301277845373e-05
3.709854927463731542e+02 5.284171365212324761e-05
3.718859429714857470e+02 5.300396418259439532e-05
3.727863931965982829e+02 5.249257814015005722e-05
3.736868434217108188e+02 5.156940047911857039e-05
3.745872936468234116e+02 5.056316242090026672e-05
3.754877438719359475e+02 4.972134035414928357e-05
3.763881940970484834e+02 4.914911642576015940e-05
3.772886443221610762e+02 4.894762351436804338e-05
3.781890945472736121e+02 4.921797812985043055e-05
3.790895447723861480e+02 5.001040815766265383e-05
3.799899949974987408e+02 5.113493369469689152e-05
3.808904452226112767e+02 5.206726177258114526e-05
3.817908954477238694e+02 5.236428541874240116e-05
3.826913456728364054e+02 5.201122449222172155e-05
3.835917958979489413e+02 5.134437022953085880e-05
3.844922461230615340e+02 5.085755077658838389e-05
3.853926963481740700e+02 5.093428503558595832e-05
3.862931465732866059e+02 5.145504439618276262e-05
3.871935967983991986e+02 5.189703871980853617e-05
3.880940470235117346e+02 5.194223729571335754e-05
3.889944972486242705e+02 5.173846777258763737e-05
3.898949474737368632e+02 5.155910524863714271e-05
3.907953976988493991e+02 5.152155114978426904e-05
3.916958479239619351e+02 5.156719291248941181e-05
3.925962981490745278e+02 5.139214588935626498e-05
3.934967483741870637e+02 5.082157552549170496e-05
3.943971985992996565e+02 5.014599540701031240e-05
3.952976488244121924e+02 4.970885137614963262e-05
3.961980990495247283e+02 4.956077510323357685e-05
3.970985492746373211e+02 4.969278821926034003e-05
3.979989994997498570e+02 5.009224537176161301e-05
3.988994497248623929e+02 5.059764961437116269e-05
3.997998999499749857e+02 5.109905797088806561e-05
4.007003501750875216e+02 5.168164146964500242e-05
4.016008004002000575e+02 5.241362781379764067e-05
4.025012506253126503e+02 5.323799701824796213e-05
4.034017008504251862e+02 5.405428425538415856e-05
4.043021510755377221e+02 5.464583376467852378e-05
4.052026013006503149e+02 5.471428104995874214e-05
4.061030515257628508e+02 5.432484015828818573e-05
4.070035017508754436e+02 5.383282367339961620e-05
4.079039519759879795e+02 5.340969687730202909e-05
4.088044022011005154e+02 5.296354111182606305e-05
4.097048524262131082e+02 5.246087757929747582e-05
4.106053026513256441e+02 5.215053745955928685e-05
4.115057528764381800e+02 5.228211330310300945e-05
4.124062031015507728e+02 5.268681078317898140e-05
4.133066533266633087e+02 5.289026490735779923e-05
4.142071035517758446e+02 5.266907250287236500e-05
4.151075537768884374e+02 5.228436382971200693e-05
4.160080040020009733e+02 5.202239630446992404e-05
4.169084542271135092e+02 5.189358658464484985e-05
4.178089044522261020e+02 5.179751080051706301e-05
4.187093546773386379e+02 5.168305213598988802e-05
4.196098049024512306e+02 5.156151037927238348e-05
4.205102551275637666e+02 5.148315437361933766e-05
4.214107053526763025e+02 5.160097703534287649e-05
4.223111555777888952e+02 5.196237973306616002e-05
4.232116058029014312e+02 5.240537236806928504e-05
4.241120560280139671e+02 5.288030562539774678e-05
4.250125062531265598e+02 5.349703521300531528e-05
4.259129564782390958e+02 5.426857080169351862e-05
4.268134067033516317e+02 5.505449255753695146e-05
4.277138569284642244e+02 5.566297140393107918e-05
4.286143071535767604e+02 5.593638189017817301e-05
4.295147573786892963e+02 5.580296654209956957e-05
4.304152076038018890e+02 5.528993569143077533e-05
4.313156578289144250e+02 5.453805895877971083e-05
4.322161080540270177e+02 5.375894937713470307e-05
4.331165582791395536e+02 5.316736747870235569e-05
4.340170085042520896e+02 5.290736869320416120e-05
4.349174587293646823e+02 5.294411659119305311e-05
4.358179089544772182e+02 5.309394083757106687e-05
4.367183591795897541e+02 5.322803446810275548e-05
4.376188094047023469e+02 5.324202568050531899e-05
4.385192596298148828e+02 5.300469827886553211e-05
4.394197098549274187e+02 5.254654033128029658e-05
4.403201600800400115e+02 5.200881152609460224e-05
4.412206103051525474e+02 5.158190799585246942e-05
4.421210605302650833e+02 5.145936493624687420e-05
4.430215107553776761e+02 5.165733279975110576e-05
4.439219609804902120e+02 5.193897788801409091e-05
4.448224112056028048e+02 5.203011186044385580e-05
4.457228614307153407e+02 5.190463343522508594e-05
4.466233116558278766e+02 5.172789403870292770e-05
4.475237618809404694e+02 5.160239868000254305e-05
4.484242121060530053e+02 5.158286086638193193e-05
4.493246623311655412e+02 5.175800436682197577e-05
4.502251125562781340e+02 5.221503943676140654e-05
4.511255627813906699e+02 5.303433774273896899e-05
4.520260130065032058e+02 5.430502784352693202e-05
4.529264632316157986e+02 5.599885575593878932e-05
4.538269134567283345e+02 5.780304266359500317e-05
4.547273636818408704e+02 5.923715983097544937e-05
4.556278139069534632e+02 5.998028725259440342e-05
4.565282641320659991e+02 6.006343046035279165e-05
4.574287143571785919e+02 5.985329975554629653e-05
4.583291645822911278e+02 5.969140924343704582e-05
4.592296148074036637e+02 5.964866275676687516e-05
4.601300650325162565e+02 5.964654316339702269e-05
4.610305152576287924e+02 5.956415718878520953e-05
4.619309654827413283e+02 5.931677837863251029e-05
4.628314157078539210e+02 5.886599123990505074e-05
4.637318659329664570e+02 5.839589947114762821e-05
4.646323161580789929e+02 5.832140320566676402e-05
4.655327663831915856e+02 5.886141024234889195e-05
4.664332166083041216e+02 5.981427526476113291e-05
4.673336668334167143e+02 6.068560166200170675e-05
4.682341170585292502e+02 6.118726432278090281e-05
4.691345672836417862e+02 6.135080891777847806e-05
4.700350175087543789e+02 6.113637592322496823e-05
4.709354677338669148e+02 6.062021586974417108e-05
4.718359179589794508e+02 6.021451991648798488e-05
4.727363681840920435e+02 6.026663293249350043e-05
4.736368184092045794e+02 6.057417552491740182e-05
4.745372686343171154e+02 6.057014841772971663e-05
4.754377188594297081e+02 6.001128026716946983e-05
4.763381690845422440e+02 5.918685693592884542e-05
4.772386193096547800e+02 5.850861897759731633e-05
4.781390695347673727e+02 5.819462259596995611e-05
4.790395197598799086e+02 5.830947744358886249e-05
4.799399699849925014e+02 5.890829905754295663e-05
4.808404202101050373e+02 5.998204231544811816e-05
4.817408704352175732e+02 6.125701859567277163e-05
4.826413206603301660e+02 6.245700723823173082e-05
4.835417708854427019e+02 6.352324466599697044e-05
4.844422211105552378e+02 6.440440887392130827e-05
4.853426713356678306e+02 6.508231669238029858e-05
4.862431215607803665e+02 6.559694011516023948e-05
4.871435717858929024e+02 6.594724872046747743e-05
4.880440220110054952e+02 6.615220943630941341e-05
4.889444722361180311e+02 6.631066750993193869e-05
4.898449224612305670e+02 6.655598864933101036e-05
4.907453726863431598e+02 6.710375942344352104e-05
4.916458229114556957e+02 6.810984249530849721e-05
4.925462731365682885e+02 6.930838937844503592e-05
4.934467233616808244e+02 7.016158420703412957e-05
4.943471735867933603e+02 7.036896856096004692e-05
4.952476238119059531e+02 7.004001894545472948e-05
4.961480740370184890e+02 6.974633142727039979e-05
4.970485242621310249e+02 7.002684584256413174e-05
4.979489744872436177e+02 7.089071845519501593e-05
4.988494247123561536e+02 7.195072572000243071e-05
4.997498749374686895e+02 7.281355197213064986e-05
5.006503251625812823e+02 7.350004573480767582e-05
5.015507753876938182e+02 7.422452013083891131e-05
5.024512256128063541e+02 7.497556462221715114e-05
5.033516758379189469e+02 7.562555618125478747e-05
5.042521260630314828e+02 7.602454152508313296e-05
5.051525762881440755e+02 7.602845233380941745e-05
5.060530265132566115e+02 7.564138170950143942e-05
5.069534767383691474e+02 7.504110991334379582e-05
5.078539269634817401e+02 7.447969477456562761e-05
5.087543771885942760e+02 7.427231180646990869e-05
5.096548274137068120e+02 7.450830234654569350e-05
5.105552776388194047e+02 7.494710738402609533e-05
5.114557278639319406e+02 7.538820201109089673e-05
5.123561780890445334e+02 7.583597322131594971e-05
5.132566283141570693e+02 7.634417135403991138e-05
5.141570785392696052e+02 7.682935851811767880e-05
5.150575287643821412e+02 7.706281265714737423e-05
5.159579789894946771e+02 7.709863734294317801e-05
5.168584292146073267e+02 7.724119738414974342e-05
5.177588794397198626e+02 7.753107220627900140e-05
5.186593296648323985e+02 7.789418811788903344e-05
5.195597798899449344e+02 7.831497178361779157e-05
5.204602301150574704e+02 7.872645223470366941e-05
5.213606803401700063e+02 7.904098331366962704e-05
5.222611305652826559e+02 7.922692707803456963e-05
5.231615807903951918e+02 7.932139670561721707e-05
5.240620310155077277e+02 7.940686902131257089e-05
5.249624812406202636e+02 7.960431271116061476e-05
5.258629314657327996e+02 7.988076465135410373e-05
5.267633816908454492e+02 8.005460712866715415e-05
5.276638319159579851e+02 8.009282535345866488e-05
5.285642821410705210e+02 8.019522333512087804e-05
5.294647323661830569e+02 8.040820630680698539e-05
5.303651825912955928e+02 8.037531436121310175e-05
5.312656328164081287e+02 7.993235618056146474e-05
5.321660830415207784e+02 7.937721612231939095e-05
5.330665332666333143e+02 7.894393000199105960e-05
5.339669834917458502e+02 7.874359813748684801e-05
5.348674337168583861e+02 7.897002232137911783e-05
5.357678839419709220e+02 7.979761331284657621e-05
5.366683341670835716e+02 8.102915094071446247e-05
5.375687843921961075e+02 8.216314411740029773e-05
5.384692346173086435e+02 8.289274537563685527e-05
5.393696848424211794e+02 8.321938622759958914e-05
5.402701350675337153e+02 8.325043933999833219e-05
5.411705852926462512e+02 8.312210953859047301e-05
5.420710355177589008e+02 8.306246535591021768e-05
5.429714857428714367e+02 8.323991253744852589e-05
5.438719359679839727e+02 8.354771096885399862e-05
5.447723861930965086e+02 8.376206563988710958e-05
5.456728364182090445e+02 8.376259397774359289e-05
5.465732866433215804e+02 8.361007762253195837e-05
5.474737368684342300e+02 8.341684496356100895e-05
5.483741870935467659e+02 8.316145979047541328e-05
5.492746373186593019e+02 8.291476330720399623e-05
5.501750875437718378e+02 8.296332838360364649e-05
5.510755377688843737e+02 8.343414535518918983e-05
5.519759879939970233e+02 8.397067849589255097e-05
5.528764382191095592e+02 8.412804458703720587e-05
5.537768884442220951e+02 8.395697332401130743e-05
5.546773386693346310e+02 8.387660525750709911e-05
5.555777888944471670e+02 8.422840309805698904e-05
5.564782391195597029e+02 8.494025185302554596e-05
5.573786893446723525e+02 8.571595114356304152e-05
5.582791395697848884e+02 8.639351833706158392e-05
5.591795897948974243e+02 8.695985035769791794e-05
5.600800400200099602e+02 8.760287686804528896e-05
5.609804902451224962e+02 8.849119380372575685e-05
5.618809404702351458e+02 8.931339679637206267e-05
5.627813906953476817e+02 8.962292843290931889e-05
5.636818409204602176e+02 8.964115691784115220e-05
5.645822911455727535e+02 8.990312339846915995e-05
5.654827413706852894e+02 9.053868540862760629e-05
5.663831915957978254e+02 9.126427073994290132e-05
5.672836418209104750e+02 9.175982869513895897e-05
5.681840920460230109e+02 9.173969793706804028e-05
5.690845422711355468e+02 9.105995759032419791e-05
5.699849924962480827e+02 8.989134214859173663e-05
5.708854427213606186e+02 8.859518108627404255e-05
5.717858929464731546e+02 8.752439963198844184e-05
5.726863431715858042e+02 8.680538882859905854e-05
5.735867933966983401e+02 8.634622764125758599e-05
5.744872436218108760e+02 8.571952962715565991e-05
5.753876938469234119e+02 8.421471105878709047e-05
5.762881440720359478e+02 8.169464396135488323e-05
5.771885942971485974e+02 7.894419525607927150e-05
5.780890445222611334e+02 7.682408478402197468e-05
5.789894947473736693e+02 7.570081183903523041e-05
5.798899449724862052e+02 7.542819009075182478e-05
5.807903951975987411e+02 7.554990711428303943e-05
5.816908454227112770e+02 7.567061833766412391e-05
5.825912956478239266e+02 7.552055724305536456e-05
5.834917458729364625e+02 7.500574537513234801e-05
5.843921960980489985e+02 7.444158561510473625e-05
5.852926463231615344e+02 7.425361389348476154e-05
5.861930965482740703e+02 7.435612756297949803e-05
5.870935467733867199e+02 7.428858723748574787e-05
5.879939969984992558e+02 7.390109966330021872e-05
5.888944472236117917e+02 7.342185514581784614e-05
5.897948974487243277e+02 7.310708290226394150e-05
5.906953476738368636e+02 7.305821695524583289e-05
5.915957978989493995e+02 7.322305373165474576e-05
5.924962481240620491e+02 7.346865357535760713e-05
5.933966983491745850e+02 7.363949083775975040e-05
5.942971485742871209e+02 7.370462477160829337e-05
5.951975987993996569e+02 7.359713416016182806e-05
5.960980490245121928e+02 7.320778985705095896e-05
5.969984992496247287e+02 7.270881576039332696e-05
5.978989494747373783e+02 7.238544556788093680e-05
5.987993996998499142e+02 7.234002510291543515e-05
5.996998499249624501e+02 7.256598779096143348e-05
6.006003001500749860e+02 7.305873972532983616e-05
6.015007503751875220e+02 7.370760559722264215e-05
6.024012006003001716e+02 7.434239057191739230e-05
6.033016508254127075e+02 7.485290842372299865e-05
6.042021010505252434e+02 7.518347826132057660e-05
6.051025512756377793e+02 7.527665037165215194e-05
6.060030015007503152e+02 7.513412783939101263e-05
6.069034517258628512e+02 7.478081661471019156e-05
6.078039019509755008e+02 7.418842124188883877e-05
6.087043521760880367e+02 7.356276951696224782e-05
6.096048024012005726e+02 7.320558209111428381e-05
6.105052526263131085e+02 7.298898978443404647e-05
6.114057028514256444e+02 7.239384643217703025e-05
6.123061530765382940e+02 7.111803982719925655e-05
6.132066033016508300e+02 6.941463220115006935e-05
6.141070535267633659e+02 6.779038504422361011e-05
6.150075037518759018e+02 6.661271977415247610e-05
6.159079539769884377e+02 6.601520843648275199e-05
6.168084042021009736e+02 6.585557654220530635e-05
6.177088544272136232e+02 6.575720869447744445e-05
6.186093046523261592e+02 6.553592442211951584e-05
6.195097548774386951e+02 6.549344087305659955e-05
6.204102051025512310e+02 6.599709154051216164e-05
6.213106553276637669e+02 6.691868649126826252e-05
6.222111055527763028e+02 6.775657347407644678e-05
6.231115557778889524e+02 6.814246112531714239e-05
6.240120060030014884e+02 6.808140077676049363e-05
6.249124562281140243e+02 6.781604133204386915e-05
6.258129064532265602e+02 6.756430949536453652e-05
6.267133566783390961e+02 6.737485025712921193e-05
6.276138069034517457e+02 6.741998341967364279e-05
6.285142571285642816e+02 6.798519350169617307e-05
6.294147073536768175e+02 6.902881477329652401e-05
6.303151575787893535e+02 7.012220943526905801e-05
6.312156078039018894e+02 7.078876056427841409e-05
6.321160580290144253e+02 7.092091241902991636e-05
6.330165082541270749e+02 7.081830568026674204e-05
6.339169584792396108e+02 7.089013796501939402e-05
6.348174087043521467e+02 7.147443054052871189e-05
6.357178589294646827e+02 7.261894508286534844e-05
6.366183091545772186e+02 7.384063065742118084e-05
6.375187593796898682e+02 7.446888833811778009e-05
6.384192096048024041e+02 7.423001341493860622e-05
6.393196598299149400e+02 7.332284005465466352e-05
6.402201100550274759e+02 7.212832972625957226e-05
6.411205602801400119e+02 7.096022788949567033e-05
6.420210105052525478e+02 7.003793254442965089e-05
6.429214607303651974e+02 6.951361891889749314e-05
6.438219109554777333e+02 6.937600532229022394e-05
6.447223611805902692e+02 6.932517851162428319e-05
6.456228114057028051e+02 6.901139913888358634e-05
6.465232616308153411e+02 6.847737589196894732e-05
6.474237118559278770e+02 6.809137838373917264e-05
6.483241620810405266e+02 6.797352824819484192e-05
6.492246123061530625e+02 6.797100687937039512e-05
6.501250625312655984e+02 6.794730190372760869e-05
6.510255127563781343e+02 6.792732293154798669e-05
6.519259629814906702e+02 6.798431683483028166e-05
6.528264132066033198e+02 6.807523660159922173e-05
6.537268634317158558e+02 6.815530506504385128e-05
6.546273136568283917e+02 6.824632610848182222e-05
6.555277638819409276e+02 6.835441786980827120e-05
6.564282141070534635e+02 6.838169433883804760e-05
6.573286643321659994e+02 6.823184437445111426e-05
6.582291145572786490e+02 6.799238725320007001e-05
6.591295647823911850e+02 6.790524243155129588e-05
6.600300150075037209e+02 6.816635452794562674e-05
6.609304652326162568e+02 6.857306628081369165e-05
6.618309154577287927e+02 6.851008627976929203e-05
6.627313656828414423e+02 6.773446602248522181e-05
6.636318159079539782e+02 6.648050762904437723e-05
6.645322661330665142e+02 6.508224375937219567e-05
6.654327163581790501e+02 6.392782111214569737e-05
6.663331665832915860e+02 6.323760791503442425e-05
6.672336168084041219e+02 6.308748234852257469e-05
6.681340670335167715e+02 6.351245195500187699e-05
6.690345172586293074e+02 6.425199162165739152e-05
6.699349674837418434e+02 6.485973366699850193e-05
6.708354177088543793e+02 6.519439055243014456e-05
6.717358679339669152e+02 6.543515749180644733e-05
6.726363181590794511e+02 6.583340334422732587e-05
6.735367683841921007e+02 6.644408577894662493e-05
6.744372186093046366e+02 6.690963962095128901e-05
6.753376688344171725e+02 6.689047411023565438e-05
6.762381190595297085e+02 6.658913473242229015e-05
6.771385692846422444e+02 6.640031090889758679e-05
6.780390195097548940e+02 6.648253601165212843e-05
6.789394697348674299e+02 6.673725374832749347e-05
6.798399199599799658e+02 6.692390432936243488e-05
6.807403701850925017e+02 6.675231652171910012e-05
6.816408204102050377e+02 6.610285455228521523e-05
6.825412706353175736e+02 6.522806079188151775e-05
6.834417208604302232e+02 6.453697175065388231e-05
6.843421710855427591e+02 6.424312400474623788e-05
6.852426213106552950e+02 6.427291114979298179e-05
6.861430715357678309e+02 6.431279130270755315e-05
6.870435217608803669e+02 6.409350691195761127e-05
6.879439719859930165e+02 6.365955639691750706e-05
6.888444222111055524e+02 6.323913097916429105e-05
6.897448724362180883e+02 6.302525346961995441e-05
6.906453226613306242e+02 6.310545700553078959e-05
6.915457728864431601e+02 6.345577065660710082e-05
6.924462231115556961e+02 6.396444805115651926e-05
6.933466733366683457e+02 6.453194127860612114e-05
6.942471235617808816e+02 6.519200038115271904e-05
6.951475737868934175e+02 6.596390733316989262e-05
6.960480240120059534e+02 6.671095823211410268e-05
6.969484742371184893e+02 6.734305754419901550e-05
6.978489244622311389e+02 6.793022158145695392e-05
6.987493746873436749e+02 6.856256355363928631e-05
6.996498249124562108e+02 6.918663229312768453e-05
7.005502751375687467e+02 6.959567684423745000e-05
7.014507253626812826e+02 6.965704150358962828e-05
7.023511755877938185e+02 6.935580820268418239e-05
7.032516258129064681e+02 6.870595184685057949e-05
7.041520760380190040e+02 6.782658737158218313e-05
7.050525262631315400e+02 6.692543224760474788e-05
7.059529764882440759e+02 6.608224866570590079e-05
7.068534267133566118e+02 6.533847006607887919e-05
7.077538769384691477e+02 6.469701689621258601e-05
7.086543271635817973e+02 6.401345766383595870e-05
7.095547773886943332e+02 6.304298446703807905e-05
7.104552276138068692e+02 6.174678284451382438e-05
7.113556778389194051e+02 6.048216238697414865e-05
7.122561280640319410e+02 5.967305624795432220e-05
7.131565782891445906e+02 5.943445287492307602e-05
7.140570285142571265e+02 5.966510329641726957e-05
7.149574787393696624e+02 6.020748713506681691e-05
7.158579289644821984e+02 6.076627092180103936e-05
7.167583791895947343e+02 6.108479537127666664e-05
7.176588294147072702e+02 6.116206113815987784e-05
7.185592796398199198e+02 6.106925196731395090e-05
7.194597298649324557e+02 6.097736892214631363e-05
7.203601800900449916e+02 6.121188097359512063e-05
7.212606303151575275e+02 6.201448492169670283e-05
7.221610805402700635e+02 6.333114041741264944e-05
7.230615307653827131e+02 6.494035644844377113e-05
7.239619809904952490e+02 6.665900636688827196e-05
7.248624312156077849e+02 6.822826576509931091e-05
7.257628814407203208e+02 6.928052615985781724e-05
7.266633316658328567e+02 6.961778079588226210e-05
7.275637818909453927e+02 6.941005023424550260e-05
7.284642321160580423e+02 6.893928079236339888e-05
7.293646823411705782e+02 6.829852623521453191e-05
7.302651325662831141e+02 6.752028146280921329e-05
7.311655827913956500e+02 6.680801928687410114e-05
7.320660330165081859e+02 6.625636810674224216e-05
7.329664832416207219e+02 6.578684033709714552e-05
7.338669334667333715e+02 6.550880284483774022e-05
7.347673836918459074e+02 6.550744148705613633e-05
7.356678339169584433e+02 6.555574645996174569e-05
7.365682841420709792e+02 6.541640790267902591e-05
7.374687343671835151e+02 6.510850521048626655e-05
7.383691845922961647e+02 6.496452154277220935e-05
7.392696348174087007e+02 6.537031352475457192e-05
7.401700850425212366e+02 6.638227556874129020e-05
7.410705352676337725e+02 6.769590792868054277e-05
7.419709854927463084e+02 6.886132366381943659e-05
7.428714357178588443e+02 6.948347403281712124e-05
7.437718859429714939e+02 6.959671700962885078e-05
7.446723361680840299e+02 6.953582971836949492e-05
7.455727863931965658e+02 6.949174879250960796e-05
7.464732366183091017e+02 6.954831013212900849e-05
7.473736868434216376e+02 6.984415663822745798e-05
7.482741370685342872e+02 7.032397780468078151e-05
7.491745872936468231e+02 7.079699068074252351e-05
7.500750375187593590e+02 7.119155176524267050e-05
7.509754877438718950e+02 7.151133598220707618e-05
7.518759379689844309e+02 7.176912696329883917e-05
7.527763881940969668e+02 7.203268159932475550e-05
7.536768384192096164e+02 7.237228452588407245e-05
7.545772886443221523e+02 7.257635514471718718e-05
7.554777388694346882e+02 7.230283956726739228e-05
7.563781890945472242e+02 7.166373080457898344e-05
7.572786393196597601e+02 7.105109879011793986e-05
7.581790895447722960e+02 7.082521108509288673e-05
7.590795397698849456e+02 7.131490172925822682e-05
7.599799899949974815e+02 7.225236710139119499e-05
7.608804402201100174e+02 7.288245054272752686e-05
7.617808904452225534e+02 7.291074288573418886e-05
7.626813406703350893e+02 7.261177716089738999e-05
7.635817908954477389e+02 7.235319731911595172e-05
7.644822411205602748e+02 7.243446043197663501e-05
7.653826913456728107e+02 7.282256856234518264e-05
7.662831415707853466e+02 7.314860897704711905e-05
7.671835917958978825e+02 7.311900787411131824e-05
7.680840420210104185e+02 7.260191775966473788e-05
7.689844922461230681e+02 7.162254139567021086e-05
7.698849424712356040e+02 7.045581689453273315e-05
7.707853926963481399e+02 6.929596726231693378e-05
7.716858429214606758e+02 6.812572625224854123e-05
7.725862931465732117e+02 6.706592420702544026e-05
7.734867433716858613e+02 6.644401587438159180e-05
7.743871935967983973e+02 6.638619851691777280e-05
7.752876438219109332e+02 6.652951513872651563e-05
7.761880940470234691e+02 6.640986608105734260e-05
7.770885442721360050e+02 6.595302450288521845e-05
7.779889944972485409e+02 6.548367627586933952e-05
7.788894447223611905e+02 6.547382022928522336e-05
7.797898949474737265e+02 6.608980628292161004e-05
7.806903451725862624e+02 6.698270312132491983e-05
7.815907953976987983e+02 6.764158292925559121e-05
7.824912456228113342e+02 6.790937689012269747e-05
7.833916958479238701e+02 6.794824408463232836e-05
7.842921460730365197e+02 6.788458427174371432e-05
7.851925962981490557e+02 6.773876172427746578e-05
7.860930465232615916e+02 6.753572883689061654e-05
7.869934967483741275e+02 6.730365468383164482e-05
7.878939469734866634e+02 6.711808159633047167e-05
7.887943971985993130e+02 6.713713172459247409e-05
7.896948474237118489e+02 6.733203699465336505e-05
7.905952976488243849e+02 6.741408277864785708e-05
7.914957478739369208e+02 6.725495023881144141e-05
7.923961980990494567e+02 6.700839899765656234e-05
7.932966483241619926e+02 6.685786411566617469e-05
7.941970985492746422e+02 6.701921981012016853e-05
7.950975487743871781e+02 6.760066868453338011e-05
7.959979989994997140e+02 6.834247402612734167e-05
7.968984492246122500e+02 6.886323201859688870e-05
7.977988994497247859e+02 6.898947023961215499e-05
7.986993496748374355e+02 6.890530299475694802e-05
7.995997998999499714e+02 6.894100958213357846e-05
8.005002501250625073e+02 6.912065915791774451e-05
8.014007003501750432e+02 6.917912020377671087e-05
8.023011505752875792e+02 6.889700607101879740e-05
8.032016008004001151e+02 6.837885991408488651e-05
8.041020510255127647e+02 6.791782487470100858e-05
8.050025012506253006e+02 6.781199944232888346e-05
8.059029514757378365e+02 6.827029633267383494e-05
8.068034017008503724e+02 6.921974144586839526e-05
8.077038519259629084e+02 7.045899399789942036e-05
8.086043021510754443e+02 7.202804349071128545e-05
8.095047523761880939e+02 7.392903580504404568e-05
8.104052026013006298e+02 7.575378340408306431e-05
8.113056528264131657e+02 7.704326989755153380e-05
8.122061030515257016e+02 7.755938027809416426e-05
8.131065532766382375e+02 7.732833993117038630e-05
8.140070035017508872e+02 7.679143112511815331e-05
8.149074537268634231e+02 7.652008437866902912e-05
8.158079039519759590e+02 7.685258411359182056e-05
8.167083541770884949e+02 7.754494269407330334e-05
8.176088044022010308e+02 7.789831681440037580e-05
8.185092546273135667e+02 7.759087685235006827e-05
8.194097048524262163e+02 7.694867038088269175e-05
8.203101550775387523e+02 7.647262429326641073e-05
8.212106053026512882e+02 7.649768562268404349e-05
8.221110555277638241e+02 7.695864593523278228e-05
8.230115057528763600e+02 7.739527930712560521e-05
8.239119559779890096e+02 7.751599705211374236e-05
8.248124062031015455e+02 7.743790969057122756e-05
8.257128564282140815e+02 7.748141376573871154e-05
8.266133066533266174e+02 7.789407116176649880e-05
8.275137568784391533e+02 7.863975587294262366e-05
8.284142071035516892e+02 7.958421833789802963e-05
8.293146573286643388e+02 8.086230775433270515e-05
8.302151075537768747e+02 8.279284075523071068e-05
8.311155577788894107e+02 8.524918025923132546e-05
8.320160080040019466e+02 8.746123499697083857e-05
8.329164582291144825e+02 8.867736895609654179e-05
8.338169084542270184e+02 8.884641570802995290e-05
8.347173586793396680e+02 8.832621195026459798e-05
8.356178089044522039e+02 8.747538024211353748e-05
8.365182591295647399e+02 8.658732052408100739e-05
8.374187093546772758e+02 8.574565612776727068e-05
8.383191595797898117e+02 8.506323683752629752e-05
8.392196098049024613e+02 8.500936948738391132e-05
8.401200600300149972e+02 8.617873093415842839e-05
8.410205102551275331e+02 8.883028497019751968e-05
8.419209604802400690e+02 9.240705838612764996e-05
8.428214107053526050e+02 9.568613887331416633e-05
8.437218609304651409e+02 9.773329921236752335e-05
8.446223111555777905e+02 9.849910683255919043e-05
8.455227613806903264e+02 9.867742521229316854e-05
8.464232116058028623e+02 9.887183203169196653e-05
8.473236618309153982e+02 9.890660950683683860e-05
8.482241120560279342e+02 9.810782807565757851e-05
8.491245622811405838e+02 9.634051547212614064e-05
8.500250125062531197e+02 9.437084405485319789e-05
8.509254627313656556e+02 9.318073866856892379e-05
8.518259129564781915e+02 9.318290698345888076e-05
8.527263631815907274e+02 9.409634847720602319e-05
8.536268134067032634e+02 9.548070145275650315e-05
8.545272636318159130e+02 9.677700494097977990e-05
8.554277138569284489e+02 9.728239659652679989e-05
8.563281640820409848e+02 9.668489492694125299e-05
8.572286143071535207e+02 9.529308598045217954e-05
8.581290645322660566e+02 9.401531497200358439e-05
8.590295147573785925e+02 9.361310626383617683e-05
8.599299649824912422e+02 9.381749454493833944e-05
8.608304152076037781e+02 9.363756749066598885e-05
8.617308654327163140e+02 9.251322600163526652e-05
8.626313156578288499e+02 9.098045709342624649e-05
8.635317658829413858e+02 8.996066023626661816e-05
8.644322161080540354e+02 8.998784191903597032e-05
8.653326663331665713e+02 9.100390483090930462e-05
8.662331165582791073e+02 9.236244965806819347e-05
8.671335667833916432e+02 9.347369557378042225e-05
8.680340170085041791e+02 9.424901613774849807e-05
8.689344672336167150e+02 9.488222355508540398e-05
8.698349174587293646e+02 9.559523776718851509e-05
8.707353676838419005e+02 9.639116905204583256e-05
8.716358179089544365e+02 9.702417260890923304e-05
8.725362681340669724e+02 9.716380905916257910e-05
8.734367183591795083e+02 9.696765724685640800e-05
8.743371685842921579e+02 9.717465121398955450e-05
8.752376188094046938e+02 9.824247255394338960e-05
8.761380690345172297e+02 9.991855993773467550e-05
8.770385192596297657e+02 1.017518382466300626e-04
8.779389694847423016e+02 1.034148907796279804e-04
8.788394197098548375e+02 1.048711555537892837e-04
8.797398699349674871e+02 1.062989288388874545e-04
8.806403201600800230e+02 1.076067356358882096e-04
8.815407703851925589e+02 1.084968489520956198e-04
8.824412206103050949e+02 1.091368443507081731e-04
8.833416708354176308e+02 1.100791017106736165e-04
8.842421210605301667e+02 1.113288670311281427e-04
8.851425712856428163e+02 1.124191186648375139e-04
8.860430215107553522e+02 1.131940118871076049e-04
8.869434717358678881e+02 1.135841484227331311e-04
8.878439219609804240e+02 1.135012391769478425e-04
8.887443721860929600e+02 1.128818104787588999e-04
8.896448224112056096e+02 1.116572887233031376e-04
8.905452726363181455e+02 1.102386326604560846e-04
8.914457228614306814e+02 1.095407234845945246e-04
8.923461730865432173e+02 1.099188687830860404e-04
8.932466233116557532e+02 1.108835412954303827e-04
8.941470735367682892e+02 1.120914224024374174e-04
8.950475237618809388e+02 1.137097876214407968e-04
8.959479739869934747e+02 1.158850304668842840e-04
8.968484242121060106e+02 1.182909919919596526e-04
8.977488744372185465e+02 1.204544517277611498e-04
8.986493246623310824e+02 1.223539587710910966e-04
8.995497748874437320e+02 1.243943059384850511e-04
9.004502251125562680e+02 1.269338342079237125e-04
9.013506753376688039e+02 1.298358481095839652e-04
9.022511255627813398e+02 1.322482432491962423e-04
9.031515757878938757e+02 1.333909004099540299e-04
9.040520260130064116e+02 1.334333930396073111e-04
9.049524762381190612e+02 1.330860381382113452e-04
9.058529264632315972e+02 1.328505478588186449e-04
9.067533766883441331e+02 1.326474178207239071e-04
9.076538269134566690e+02 1.323870301879008222e-04
9.085542771385692049e+02 1.324308981444343716e-04
9.094547273636817408e+02 1.329020382572787832e-04
9.103551775887943904e+02 1.335709734148754079e-04
9.112556278139069263e+02 1.342957751686153463e-04
9.121560780390194623e+02 1.348179421006940541e-04
9.130565282641319982e+02 1.346729710371798508e-04
9.139569784892445341e+02 1.336530884675722597e-04
9.148574287143571837e+02 1.323496312598088055e-04
9.157578789394697196e+02 1.316558457745082352e-04
9.166583291645822555e+02 1.320524951038084171e-04
9.175587793896947915e+02 1.332912253298186144e-04
9.184592296148073274e+02 1.347215896596765550e-04
9.193596798399198633e+02 1.358763088657173157e-04
9.202601300650325129e+02 1.367855239409139826e-04
9.211605802901450488e+02 1.381513889132358842e-04
9.220610305152575847e+02 1.406355720851063223e-04
9.229614807403701207e+02 1.435484503673567318e-04
9.238619309654826566e+02 1.455502039278364101e-04
9.247623811905953062e+02 1.465654703902835045e-04
9.256628314157078421e+02 1.473536903520412087e-04
9.265632816408203780e+02 1.483586449624030561e-04
9.274637318659329139e+02 1.497834810302449188e-04
9.283641820910454499e+02 1.520412356427867809e-04
9.292646323161579858e+02 1.550427986558890463e-04
9.301650825412706354e+02 1.575997038785188320e-04
9.310655327663831713e+02 1.588230654932474022e-04
9.319659829914957072e+02 1.595095285113165052e-04
9.328664332166082431e+02 1.604050613852261867e-04
9.337668834417207790e+02 1.609063333678471830e-04
9.346673336668334287e+02 1.606497974324752902e-04
9.355677838919459646e+02 1.602613818219507684e-04
9.364682341170585005e+02 1.603332769140407136e-04
9.373686843421710364e+02 1.613418204866488501e-04
9.382691345672835723e+02 1.637012308833854729e-04
9.391695847923961082e+02 1.670542089917503956e-04
9.400700350175087578e+02 1.702413175455010823e-04
9.409704852426212938e+02 1.723802057382034102e-04
9.418709354677338297e+02 1.734709815058500153e-04
9.427713856928463656e+02 1.734996474011870488e-04
9.436718359179589015e+02 1.723762123041698406e-04
9.445722861430714374e+02 1.709482936196586470e-04
9.454727363681840870e+02 1.701581079526651239e-04
9.463731865932966230e+02 1.702043142203984788e-04
9.472736368184091589e+02 1.710984861999589087e-04
9.481740870435216948e+02 1.730108672756346892e-04
9.490745372686342307e+02 1.761573702697001825e-04
9.499749874937468803e+02 1.803928864174343303e-04
9.508754377188594162e+02 1.850150765615375626e-04
9.517758879439719522e+02 1.894245714556082511e-04
9.526763381690844881e+02 1.935948026718272287e-04
9.535767883941970240e+02 1.976472215608277765e-04
9.544772386193095599e+02 2.006731374697511396e-04
9.553776888444222095e+02 2.015845701158381243e-04
9.562781390695347454e+02 2.009387873256749855e-04
9.571785892946472813e+02 1.998212863587317404e-04
9.580790395197598173e+02 1.988432890864406651e-04
9.589794897448723532e+02 1.990102134184833053e-04
9.598799399699850028e+02 2.008278662542660117e-04
9.607803901950975387e+02 2.030934248576534817e-04
9.616808404202100746e+02 2.046762116496708965e-04
9.625812906453226105e+02 2.058919186849034167e-04
9.634817408704351465e+02 2.071497292022925749e-04
9.643821910955476824e+02 2.081144832651645599e-04
9.652826413206603320e+02 2.086448476917639953e-04
9.661830915457728679e+02 2.086814930641122203e-04
9.670835417708854038e+02 2.080899437698802590e-04
9.679839919959979397e+02 2.071963536161962609e-04
9.688844422211104757e+02 2.068098349701776527e-04
9.697848924462230116e+02 2.079328586745213259e-04
9.706853426713356612e+02 2.112393797706503670e-04
9.715857928964481971e+02 2.169493184184250086e-04
9.724862431215607330e+02 2.240175345863276994e-04
9.733866933466732689e+02 2.299277739851675112e-04
9.742871435717858049e+02 2.329393268118450154e-04
9.751875937968984545e+02 2.333409645743549446e-04
9.760880440220109904e+02 2.320350719157934804e-04
9.769884942471235263e+02 2.302218287508983282e-04
9.778889444722360622e+02 2.296607387005940141e-04
9.787893946973485981e+02 2.315532907009811199e-04
9.796898449224611340e+02 2.351204133369570943e-04
9.805902951475737837e+02 2.380430069082680497e-04
9.814907453726863196e+02 2.385662698725840569e-04
9.823911955977988555e+02 2.366090468274124827e-04
9.832916458229113914e+02 2.340972150607950782e-04
9.841920960480239273e+02 2.336732548137949528e-04
9.850925462731365769e+02 2.364324199614408829e-04
9.859929964982491128e+02 2.416759236458731976e-04
9.868934467233616488e+02 2.477933497920800166e-04
9.877938969484741847e+02 2.529998295504990477e-04
9.886943471735867206e+02 2.559865569404284934e-04
9.895947973986992565e+02 2.568703883009436709e-04
9.904952476238119061e+02 2.572081709312434242e-04
9.913956978489244420e+02 2.588032308268828309e-04
9.922961480740369780e+02 2.626400253729969632e-04
9.931965982991495139e+02 2.683341642027425584e-04
9.940970485242620498e+02 2.743426326269691041e-04
9.949974987493745857e+02 2.790401806775652874e-04
9.958979489744872353e+02 2.814589309251012213e-04
9.967983991995997712e+02 2.816725054944502356e-04
9.976988494247123072e+02 2.807190297227232724e-04
9.985992996498248431e+02 2.796325460350504899e-04
9.994997498749373790e+02 2.790402638772072875e-04
1.000400200100050029e+03 2.791627816720081623e-04
1.001300650325162565e+03 2.803769486916013378e-04
1.002201100550275100e+03 2.833499669659538824e-04
1.003101550775387636e+03 2.882785591243971655e-04
1.004002001000500172e+03 2.945686458442199986e-04
1.004902451225612708e+03 3.009209820452730488e-04
1.005802901450725358e+03 3.054476262258198210e-04
1.006703351675837894e+03 3.063358731006559830e-04
1.007603801900950430e+03 3.036834089314842822e-04
1.008504252126062966e+03 2.997633192101323762e-04
1.009404702351175501e+03 2.971379444482054582e-04
1.010305152576288151e+03 2.967523120893196184e-04
1.011205602801400687e+03 2.980328418870632594e-04
1.012106053026513223e+03 3.004992950912200385e-04
1.013006503251625759e+03 3.037692333548497239e-04
1.013906953476738295e+03 3.067382445821548523e-04
1.014807403701850831e+03 3.093583814833782272e-04
1.015707853926963480e+03 3.130662025033804116e-04
1.016608304152076016e+03 3.187505547401335722e-04
1.017508754377188552e+03 3.258628044147800717e-04
1.018409204602301088e+03 3.329933090677372385e-04
1.019309654827413624e+03 3.390544706438565524e-04
1.020210105052526160e+03 3.436578088699149833e-04
1.021110555277638809e+03 3.466932267781214780e-04
1.022011005502751345e+03 3.488932101382637456e-04
1.022911455727863881e+03 3.514845852052354510e-04
1.023811905952976417e+03 3.540335461578512206e-04
1.024712356178089067e+03 3.549525376844167514e-04
1.025612806403201603e+03 3.544109763432233811e-04
1.026513256628314139e+03 3.537842342051441560e-04
1.027413706853426675e+03 3.542144010794254705e-04
1.028314157078539210e+03 3.568410510383131099e-04
1.029214607303651746e+03 3.617113505322838837e-04
1.030115057528764282e+03 3.663077144218234728e-04
1.031015507753876818e+03 3.685533615938373715e-04
1.031915957978989354e+03 3.692516165602025978e-04
1.032816408204101890e+03 3.699792291260969911e-04
1.033716858429214653e+03 3.719812536468352130e-04
1.034617308654327189e+03 3.764365395865679306e-04
1.035517758879439725e+03 3.832557124083460628e-04
1.036418209104552261e+03 3.904513703270358479e-04
1.037318659329664797e+03 3.961011893368644862e-04
1.038219109554777333e+03 3.997883998213170469e-04
1.039119559779889869e+03 4.015683364873125563e-04
1.040020010005002405e+03 4.012229671060543799e-04
1.040920460230114941e+03 3.989353414986958595e-04
1.041820910455227477e+03 3.951724187900664312e-04
1.042721360680340013e+03 3.901024309282789273e-04
1.043621810905452776e+03 3.849833623873091630e-04
1.044522261130565312e+03 3.824336199645032397e-04
1.045422711355677848e+03 3.840612500620213228e-04
1.046323161580790384e+03 3.897456310263385394e-04
1.047223611805902920e+03 3.981558765339141622e-04
1.048124062031015455e+03 4.066584007548253296e-04
1.049024512256127991e+03 4.122881516965166428e-04
1.049924962481240527e+03 4.141210683540395387e-04
1.050825412706353063e+03 4.137187626037998637e-04
1.051725862931465599e+03 4.124967250062798810e-04
1.052626313156578135e+03 4.111294919159154859e-04
1.053526763381690898e+03 4.110840119346375059e-04
1.054427213606803434e+03 4.133747269428676534e-04
1.055327663831915970e+03 4.166857185129718569e-04
1.056228114057028506e+03 4.188537963967246727e-04
1.057128564282141042e+03 4.187598632232557272e-04
1.058029014507253578e+03 4.169801783537984818e-04
1.058929464732366114e+03 4.148666940795369632e-04
1.059829914957478650e+03 4.124673078909195942e-04
1.060730365182591186e+03 4.097031596746142736e-04
1.061630815407703722e+03 4.077159859385776964e-04
1.062531265632816257e+03 4.074023254680268920e-04
1.063431715857929021e+03 4.085063888799870179e-04
1.064332166083041557e+03 4.109883590436573704e-04
1.065232616308154093e+03 4.142632701904549173e-04
1.066133066533266629e+03 4.167594035980276101e-04
1.067033516758379164e+03 4.177871405268596019e-04
1.067933966983491700e+03 4.175606453177450211e-04
1.068834417208604236e+03 4.169108962097374895e-04
1.069734867433716772e+03 4.172526142036972431e-04
1.070635317658829308e+03 4.197020496542947692e-04
1.071535767883941844e+03 4.240869376948551450e-04
1.072436218109054380e+03 4.287329179182359693e-04
1.073336668334167143e+03 4.320171512081819694e-04
1.074237118559279679e+03 4.356993829384212653e-04
1.075137568784392215e+03 4.426216186863560285e-04
1.076038019009504751e+03 4.519450999883321590e-04
1.076938469234617287e+03 4.605032154495116575e-04
1.077838919459729823e+03 4.672344232788151752e-04
1.078739369684842359e+03 4.730557339378130342e-04
1.079639819909954895e+03 4.776842238438966273e-04
1.080540270135067431e+03 4.799617119069638210e-04
1.081440720360179967e+03 4.793152826248050298e-04
1.082341170585292502e+03 4.764338701293261325e-04
1.083241620810405038e+03 4.736246340655812532e-04
1.084142071035517802e+03 4.730728230912232711e-04
1.085042521260630338e+03 4.758218681831348365e-04
1.085942971485742873e+03 4.819652545343317061e-04
1.086843421710855409e+03 4.897327112848954504e-04
1.087743871935967945e+03 4.965046041886902236e-04
1.088644322161080481e+03 5.012044129050131263e-04
1.089544772386193017e+03 5.044399660138910307e-04
1.090445222611305553e+03 5.071652011860247221e-04
1.091345672836418089e+03 5.095285842379051024e-04
1.092246123061530625e+03 5.104435610711958700e-04
1.093146573286643161e+03 5.096786466497648304e-04
1.094047023511755924e+03 5.081637686643055525e-04
1.094947473736868460e+03 5.066593374780365257e-04
1.095847923961980996e+03 5.065642827403743368e-04
1.096748374187093532e+03 5.091529784519527270e-04
1.097648824412206068e+03 5.140053078959165491e-04
1.098549274637318604e+03 5.201902788571537498e-04
1.099449724862431140e+03 5.270885435648534935e-04
1.100350175087543676e+03 5.343700722593991426e-04
1.101250625312656211e+03 5.427519581028256547e-04
1.102151075537768747e+03 5.537075863488125646e-04
1.103051525762881283e+03 5.674790226809231855e-04
1.103951975987994047e+03 5.816824926749583711e-04
1.104852426213106583e+03 5.917021120026846274e-04
1.105752876438219118e+03 5.937227847472009018e-04
1.106653326663331654e+03 5.880765696062429087e-04
1.107553776888444190e+03 5.782455502220991287e-04
1.108454227113556726e+03 5.673886858751589100e-04
1.109354677338669262e+03 5.574722250896632083e-04
1.110255127563781798e+03 5.506905985365562022e-04
1.111155577788894334e+03 5.477095165936463972e-04
1.112056028014006870e+03 5.475187290791566240e-04
1.112956478239119406e+03 5.489600626019546827e-04
1.113856928464232169e+03 5.497434922710071588e-04
1.114757378689344705e+03 5.470082503224295376e-04
1.115657828914457241e+03 5.399927205921622097e-04
1.116558279139569777e+03 5.303005917564653773e-04
1.117458729364682313e+03 5.192699242066922335e-04
1.118359179589794849e+03 5.090177231774455080e-04
1.119259629814907385e+03 5.030662925004805806e-04
1.120160080040019920e+03 5.029118220615931513e-04
1.121060530265132456e+03 5.076424346463427779e-04
1.121960980490244992e+03 5.159762683243099496e-04
1.122861430715357528e+03 5.263487755616959697e-04
1.123761880940470292e+03 5.365040016911759926e-04
1.124662331165582827e+03 5.445343280826054093e-04
1.125562781390695363e+03 5.508583381669346574e-04
1.126463231615807899e+03 5.573763334072731959e-04
1.127363681840920435e+03 5.658293918945174949e-04
1.128264132066032971e+03 5.785003763844157347e-04
1.129164582291145507e+03 5.980767383837963915e-04
1.130065032516258043e+03 6.256852601878289209e-04
1.130965482741370579e+03 6.599333543853864049e-04
1.131865932966483115e+03 6.971011177667548906e-04
1.132766383191595651e+03 7.331384855579657286e-04
1.133666833416708187e+03 7.657564006891759900e-04
1.134567283641820950e+03 7.940902528274596060e-04
1.135467733866933486e+03 8.195925021765810897e-04
1.136368184092046022e+03 8.432750617051105232e-04
1.137268634317158558e+03 8.625303132646280208e-04
1.138169084542271094e+03 8.763960600791663490e-04
1.139069534767383630e+03 8.890900199632993921e-04
1.139969984992496165e+03 9.071089972106455507e-04
1.140870435217608701e+03 9.334150924213212948e-04
1.141770885442721237e+03 9.669055277170984265e-04
1.142671335667833773e+03 1.006250985140993721e-03
1.143571785892946309e+03 1.049398903240230220e-03
1.144472236118059072e+03 1.098818869591684354e-03
1.145372686343171608e+03 1.162927351592303463e-03
1.146273136568284144e+03 1.245204441885864027e-03
1.147173586793396680e+03 1.339880126401687185e-03
1.148074037018509216e+03 1.439040644274593465e-03
1.148974487243621752e+03 1.537055032201825686e-03
1.149874937468734288e+03 1.629133957898247758e-03
1.150775387693846824e+03 1.710735561099572741e-03
1.151675837918959360e+03 1.781537170654142865e-03
1.152576288144071896e+03 1.851236337699104168e-03
1.153476738369184432e+03 1.932424250523495039e-03
1.154377188594297195e+03 2.021907460111457052e-03
1.155277638819409731e+03 2.102849641764967942e-03
1.156178089044522267e+03 2.162869839070600316e-03
1.157078539269634803e+03 2.202620715549270195e-03
1.157978989494747339e+03 2.227406191526497270e-03
1.158879439719859874e+03 2.245863245134245220e-03
1.159779889944972410e+03 2.270217933448542575e-03
1.160680340170084946e+03 2.307901579232812545e-03
1.161580790395197482e+03 2.361279463527279476e-03
1.162481240620310018e+03 2.422783594421547976e-03
1.163381690845422554e+03 2.477436073772810738e-03
1.164282141070535317e+03 2.517444276946544882e-03
1.165182591295647853e+03 2.542140659569746067e-03
1.166083041520760389e+03 2.553411673760364129e-03
1.166983491745872925e+03 2.542758266944630460e-03
1.167883941970985461e+03 2.498660368641255746e-03
1.168784392196097997e+03 2.427704649636187872e-03
1.169684842421210533e+03 2.347258886591589277e-03
1.170585292646323069e+03 2.267086376279420137e-03
1.171485742871435605e+03 2.186916529251351198e-03
1.172386193096548141e+03 2.104141190536590322e-03
1.173286643321660677e+03 2.013049548997162663e-03
1.174187093546773440e+03 1.912788271682588871e-03
1.175087543771885976e+03 1.812803430480079735e-03
1.175987993996998512e+03 1.724159298620391717e-03
1.176888444222111048e+03 1.652730125070435386e-03
1.177788894447223583e+03 1.595358767439610838e-03
1.178689344672336119e+03 1.548315810787411579e-03
1.179589794897448655e+03 1.510680729871424505e-03
1.180490245122561191e+03 1.479601513960197194e-03
1.181390695347673727e+03 1.449617880521697705e-03
1.182291145572786263e+03 1.421396119982666064e-03
1.183191595797898799e+03 1.400454496833190886e-03
1.184092046023011562e+03 1.388545018221925198e-03
1.184992496248124098e+03 1.382798678603739577e-03
1.185892946473236634e+03 1.378848661068046233e-03
1.186793396698349170e+03 1.377087896747716160e-03
1.187693846923461706e+03 1.379965884932492009e-03
1.188594297148574242e+03 1.386696375606341364e-03
1.189494747373686778e+03 1.391538603128517938e-03
1.190395197598799314e+03 1.387682465189788491e-03
1.191295647823911850e+03 1.374305799146833054e-03
1.192196098049024386e+03 1.356294124878801820e-03
1.193096548274136921e+03 1.338493290699363947e-03
1.193996998499249457e+03 1.322402244598191393e-03
1.194897448724362221e+03 1.308112957164234754e-03
1.195797898949474757e+03 1.297632900018802059e-03
1.196698349174587293e+03 1.292415062801616872e-03
1.197598799399699828e+03 1.290866147336906453e-03
1.198499249624812364e+03 1.289098831184335575e-03
1.199399699849924900e+03 1.282598764460827351e-03
1.200300150075037436e+03 1.269678267336695095e-03
1.201200600300149972e+03 1.253824623815982331e-03
1.202101050525262508e+03 1.239819439481684845e-03
1.203001500750375044e+03 1.227395795839632524e-03
1.203901950975487580e+03 1.214456574028584691e-03
1.204802401200600343e+03 1.202743354803526444e-03
1.205702851425712879e+03 1.194906402595844169e-03
1.206603301650825415e+03 1.192284128779267684e-03
1.207503751875937951e+03 1.196690229015628330e-03
1.208404202101050487e+03 1.212129627233602021e-03
1.209304652326163023e+03 1.240006458975145527e-03
1.210205102551275559e+03 1.272868538218060964e-03
1.211105552776388095e+03 1.300023188043534497e-03
1.212006003001500630e+03 1.317485689500928325e-03
1.212906453226613166e+03 1.324928964689859202e-03
1.213806903451725702e+03 1.317856160523328199e-03
1.214707353676838466e+03 1.291431736667120970e-03
1.215607803901951002e+03 1.249275668859890212e-03
1.216508254127063537e+03 1.201597191076851819e-03
1.217408704352176073e+03 1.157772632468881359e-03
1.218309154577288609e+03 1.124306534778907619e-03
1.219209604802401145e+03 1.103855468054438897e-03
1.220110055027513681e+03 1.094443963899790779e-03
1.221010505252626217e+03 1.092601719688713257e-03
1.221910955477738753e+03 1.097801643251111693e-03
1.222811405702851289e+03 1.109563843906822720e-03
1.223711855927963825e+03 1.122076507292931249e-03
1.224612306153076588e+03 1.126900947290325949e-03
1.225512756378189124e+03 1.120536632755015586e-03
1.226413206603301660e+03 1.107329882189646633e-03
1.227313656828414196e+03 1.091876034762377093e-03
1.228214107053526732e+03 1.076959255136079093e-03
1.229114557278639268e+03 1.068262594225723259e-03
1.230015007503751804e+03 1.070026490793272523e-03
1.230915457728864340e+03 1.081061222597391172e-03
1.231815907953976875e+03 1.097770250726633765e-03
1.232716358179089411e+03 1.114756344321764410e-03
1.233616808404201947e+03 1.124345130171206181e-03
1.234517258629314711e+03 1.122125098358664605e-03
1.235417708854427246e+03 1.111868274783603438e-03
1.236318159079539782e+03 1.101857165303397413e-03
1.237218609304652318e+03 1.096603768145157322e-03
1.238119059529764854e+03 1.094811049606215624e-03
1.239019509754877390e+03 1.094090021956080220e-03
1.239919959979989926e+03 1.094907552864813607e-03
1.240820410205102462e+03 1.098863904818823652e-03
1.241720860430214998e+03 1.105105678532225305e-03
1.242621310655327534e+03 1.112477159763961996e-03
1.243521760880440070e+03 1.121531751806019396e-03
1.244422211105552606e+03 1.132334788136001805e-03
1.245322661330665369e+03 1.144840749920553657e-03
1.246223111555777905e+03 1.158741335101867286e-03
1.247123561780890441e+03 1.172360003631749527e-03
1.248024012006002977e+03 1.183743362026513707e-03
1.248924462231115513e+03 1.192552352098341520e-03
1.249824912456228049e+03 1.201876404319172052e-03
1.250725362681340584e+03 1.215587702818563725e-03
1.251625812906453120e+03 1.232895149744344439e-03
1.252526263131565656e+03 1.248753466918044175e-03
1.253426713356678192e+03 1.257749067930375581e-03
1.254327163581790728e+03 1.258513611125411727e-03
1.255227613806903491e+03 1.252982513856091065e-03
1.256128064032016027e+03 1.242396542707914411e-03
1.257028514257128563e+03 1.228480215081577225e-03
1.257928964482241099e+03 1.213792173234566011e-03
1.258829414707353635e+03 1.202533814325424137e-03
1.259729864932466171e+03 1.199007731612646965e-03
1.260630315157578707e+03 1.202997446367323449e-03
1.261530765382691243e+03 1.212066387807304206e-03
1.262431215607803779e+03 1.226077805472305503e-03
1.263331665832916315e+03 1.246741932322948656e-03
1.264232116058028851e+03 1.274140263284764861e-03
1.265132566283141614e+03 1.304299745031792419e-03
1.266033016508254150e+03 1.333227176464901916e-03
1.266933466733366686e+03 1.362425448786915190e-03
1.267833916958479222e+03 1.396283462167146900e-03
1.268734367183591758e+03 1.435470871887926979e-03
1.269634817408704293e+03 1.474873980067230089e-03
1.270535267633816829e+03 1.508889034315277636e-03
1.271435717858929365e+03 1.535934803287852986e-03
1.272336168084041901e+03 1.556753261116783056e-03
1.273236618309154437e+03 1.573802858563680667e-03
1.274137068534266973e+03 1.591360141948246557e-03
1.275037518759379736e+03 1.613303067830042323e-03
1.275937968984492272e+03 1.642873830425830087e-03
1.276838419209604808e+03 1.680044640393961930e-03
1.277738869434717344e+03 1.719731877875703072e-03
1.278639319659829880e+03 1.755027861999605742e-03
1.279539769884942416e+03 1.782275087059026486e-03
1.280440220110054952e+03 1.803611505455195163e-03
1.281340670335167488e+03 1.822994251632870230e-03
1.282241120560280024e+03 1.841934999375495485e-03
1.283141570785392560e+03 1.863543778092270359e-03
1.284042021010505096e+03 1.891542069739702040e-03
1.284942471235617859e+03 1.922566473845690451e-03
1.285842921460730395e+03 1.948002826933931380e-03
1.286743371685842931e+03 1.962974804121756303e-03
1.287643821910955467e+03 1.970383502361962823e-03
1.288544272136068003e+03 1.977836911912791117e-03
1.289444722361180538e+03 1.991359419567095747e-03
1.290345172586293074e+03 2.012214462366014849e-03
1.291245622811405610e+03 2.036965984082784835e-03
1.292146073036518146e+03 2.059942289150041520e-03
1.293046523261630682e+03 2.080152209303836892e-03
1.293946973486743218e+03 2.100863258459008225e-03
1.294847423711855754e+03 2.123944483265517887e-03
1.295747873936968517e+03 2.149098529552091307e-03
1.296648324162081053e+03 2.176347909150526047e-03
1.297548774387193589e+03 2.205649712629635054e-03
1.298449224612306125e+03 2.234692805259402490e-03
1.299349674837418661e+03 2.261075167338677614e-03
1.300250125062531197e+03 2.284959459234572280e-03
1.301150575287643733e+03 2.312156082951737166e-03
1.302051025512756269e+03 2.350692957377790038e-03
1.302951475737868805e+03 2.401551955202775417e-03
1.303851925962981340e+03 2.459263169736438607e-03
1.304752376188093876e+03 2.520253019816942868e-03
1.305652826413206640e+03 2.580916602317875203e-03
1.306553276638319176e+03 2.632290483544281242e-03
1.307453726863431712e+03 2.667647965163136899e-03
1.308354177088544247e+03 2.693240920936239118e-03
1.309254627313656783e+03 2.722101518404338328e-03
1.310155077538769319e+03 2.763403985178952520e-03
1.311055527763881855e+03 2.820204608780108122e-03
1.311955977988994391e+03 2.887330000076231140e-03
1.312856428214106927e+03 2.952019407836157378e-03
1.313756878439219463e+03 3.002772682466290852e-03
1.314657328664331999e+03 3.037515577649304004e-03
1.315557778889444762e+03 3.062342259904256986e-03
1.316458229114557298e+03 3.086380211327474296e-03
1.317358679339669834e+03 3.116635068153020965e-03
1.318259129564782370e+03 3.154675951078553600e-03
1.319159579789894906e+03 3.200687316683669976e-03
1.320060030015007442e+03 3.253418799100056200e-03
1.320960480240119978e+03 3.310509449065348817e-03
1.321860930465232514e+03 3.374208930318232675e-03
1.322761380690345050e+03 3.452468506589072977e-03
1.323661830915457585e+03 3.545320563686199088e-03
1.324562281140570121e+03 3.636837033441771890e-03
1.325462731365682885e+03 3.711857525395207639e-03
1.326363181590795421e+03 3.769112288224588103e-03
1.327263631815907956e+03 3.817906816343271444e-03
1.328164082041020492e+03 3.869599324136993330e-03
1.329064532266133028e+03 3.931689983512242498e-03
1.329964982491245564e+03 4.004046173254514722e-03
1.330865432716358100e+03 4.080583734774700759e-03
1.331765882941470636e+03 4.157170368815969914e-03
1.332666333166583172e+03 4.233354909935786378e-03
1.333566783391695708e+03 4.313133831448322762e-03
1.334467233616808244e+03 4.400950284457800024e-03
1.335367683841921007e+03 4.488437304898990239e-03
1.336268134067033543e+03 4.561905280681149109e-03
1.337168584292146079e+03 4.621231251548456494e-03
1.338069034517258615e+03 4.675843473066908403e-03
1.338969484742371151e+03 4.734044101312426082e-03
1.339869934967483687e+03 4.803827138734137990e-03
1.340770385192596223e+03 4.890411258613052738e-03
1.341670835417708759e+03 4.989483700946287410e-03
1.342571285642821294e+03 5.095638653725221082e-03
1.343471735867933830e+03 5.213799609285607942e-03
1.344372186093046366e+03 5.348359287972977508e-03
1.345272636318158902e+03 5.491308401028243899e-03
1.346173086543271666e+03 5.626262513564654275e-03
1.347073536768384201e+03 5.748319849586592048e-03
1.347973986993496737e+03 5.878546885664528814e-03
1.348874437218609273e+03 6.036021817857930606e-03
1.349774887443721809e+03 6.219483874820083170e-03
1.350675337668834345e+03 6.423094309534674654e-03
1.351575787893946881e+03 6.640673067791584561e-03
1.352476238119059417e+03 6.860898714110720900e-03
1.353376688344171953e+03 7.075131012693762836e-03
1.354277138569284489e+03 7.284047717881372494e-03
1.355177588794397025e+03 7.496878731980479056e-03
1.356078039019509788e+03 7.719336187930461377e-03
1.356978489244622324e+03 7.947724155574520041e-03
1.357878939469734860e+03 8.178013396465786886e-03
1.358779389694847396e+03 8.398990480828561270e-03
1.359679839919959932e+03 8.598877872812516268e-03
1.360580290145072468e+03 8.787670443231343151e-03
1.361480740370185003e+03 8.991502907947592285e-03
1.362381190595297539e+03 9.225059658488811085e-03
1.363281640820410075e+03 9.472618148998001794e-03
1.364182091045522611e+03 9.697379715749552404e-03
1.365082541270635147e+03 9.884496451311092224e-03
1.365982991495747910e+03 1.005525832019209427e-02
1.366883441720860446e+03 1.023120427180711396e-02
1.367783891945972982e+03 1.042413421995114393e-02
1.368684342171085518e+03 1.064319517739924399e-02
1.369584792396198054e+03 1.088188654587088355e-02
1.370485242621310590e+03 1.111096574421996906e-02
1.371385692846423126e+03 1.132511002452481555e-02
1.372286143071535662e+03 1.156419260036434596e-02
1.373186593296648198e+03 1.185602419909179486e-02
1.374087043521760734e+03 1.217477273558537944e-02
1.374987493746873270e+03 1.247020785749540332e-02
1.375887943971986033e+03 1.270826492692366839e-02
1.376788394197098569e+03 1.291168620779837434e-02
1.377688844422211105e+03 1.313557911649346210e-02
1.378589294647323641e+03 1.339356837763104428e-02
1.379489744872436177e+03 1.363975284713361824e-02
1.380390195097548713e+03 1.383316259115622247e-02
1.381290645322661248e+03 1.400566010663283935e-02
1.382191095547773784e+03 1.423764414747829242e-02
1.383091545772886320e+03 1.454332288419750603e-02
1.383991995997998856e+03 1.485398255572829840e-02
1.384892446223111392e+03 1.510549288712447445e-02
1.385792896448224155e+03 1.528064758756504313e-02
1.386693346673336691e+03 1.540957869655978398e-02
1.387593796898449227e+03 1.554531909699511522e-02
1.388494247123561763e+03 1.574683821397903152e-02
1.389394697348674299e+03 1.602224470036748422e-02
1.390295147573786835e+03 1.630323099127175407e-02
1.391195597798899371e+03 1.651150823748065780e-02
1.392096048024011907e+03 1.661797340039087439e-02
1.392996498249124443e+03 1.664025477594168953e-02
1.393896948474236979e+03 1.661734306818032220e-02
1.394797398699349515e+03 1.658228971999645487e-02
1.395697848924462278e+03 1.655524083395660054e-02
1.396598299149574814e+03 1.658055630475821843e-02
1.397498749374687350e+03 1.669692145754153589e-02
1.398399199599799886e+03 1.684517254348379817e-02
1.399299649824912422e+03 1.693026416665438169e-02
1.400200100050024957e+03 1.694296889118404939e-02
1.401100550275137493e+03 1.694300982075320691e-02
1.402001000500250029e+03 1.696407052405414159e-02
1.402901450725362565e+03 1.699617134286352318e-02
1.403801900950475101e+03 1.698497878953561177e-02
1.404702351175587637e+03 1.685891451081015374e-02
1.405602801400700173e+03 1.661338297165826025e-02
1.406503251625812936e+03 1.628917213815370829e-02
1.407403701850925472e+03 1.590283056525912744e-02
1.408304152076038008e+03 1.547901666528406737e-02
1.409204602301150544e+03 1.507933243727998911e-02
1.410105052526263080e+03 1.473675005831869521e-02
1.411005502751375616e+03 1.443992517116948066e-02
1.411905952976488152e+03 1.416444117316537944e-02
1.412806403201600688e+03 1.387499467163661945e-02
1.413706853426713224e+03 1.351956302819811925e-02
1.414607303651825760e+03 1.309114168936627819e-02
1.415507753876938295e+03 1.266906636055654088e-02
1.416408204102051059e+03 1.233846922419694347e-02
1.417308654327163595e+03 1.211856584152528823e-02
1.418209104552276131e+03 1.198980382557336515e-02
1.419109554777388666e+03 1.193094514499381566e-02
1.420010005002501202e+03 1.188838413527694600e-02
1.420910455227613738e+03 1.177981888508278230e-02
1.421810905452726274e+03 1.155704691587290320e-02
1.422711355677838810e+03 1.124302235627866464e-02
1.423611805902951346e+03 1.090374367777166391e-02
1.424512256128063882e+03 1.059175393076723995e-02
1.425412706353176418e+03 1.032889422620708944e-02
1.426313156578289181e+03 1.011085929503808753e-02
1.427213606803401717e+03 9.910819047231176834e-03
1.428114057028514253e+03 9.711502595570015509e-03
1.429014507253626789e+03 9.528182472507027920e-03
1.429914957478739325e+03 9.357414920839676742e-03
1.430815407703851861e+03 9.168838421210166040e-03
1.431715857928964397e+03 8.952396792816551610e-03
1.432616308154076933e+03 8.725620219681847270e-03
1.433516758379189469e+03 8.509804601388466089e-03
1.434417208604302004e+03 8.321283558416226953e-03
1.435317658829414540e+03 8.169113815088075575e-03
1.436218109054527304e+03 8.039295574578940104e-03
1.437118559279639840e+03 7.900875055754713258e-03
1.438019009504752376e+03 7.740177406385603982e-03
1.438919459729864911e+03 7.583760316389284717e-03
1.439819909954977447e+03 7.469241941938350830e-03
1.440720360180089983e+03 7.397381978675780789e-03
1.441620810405202519e+03 7.339412565543644053e-03
1.442521260630315055e+03 7.266784129584695495e-03
1.443421710855427591e+03 7.156754809719109017e-03
1.444322161080540127e+03 6.999411140979278252e-03
1.445222611305652663e+03 6.805048896870625683e-03
1.446123061530765426e+03 6.598113703809200224e-03
1.447023511755877962e+03 6.404339734054469331e-03
1.447923961980990498e+03 6.240832175635829641e-03
1.448824412206103034e+03 6.116885544378933282e-03
1.449724862431215570e+03 6.032073726335147185e-03
1.450625312656328106e+03 5.970277345803879851e-03
1.451525762881440642e+03 5.902831824674852589e-03
1.452426213106553178e+03 5.799821992379183312e-03
1.453326663331665713e+03 5.654384900256948995e-03
1.454227113556778249e+03 5.491129184604040363e-03
1.455127563781890785e+03 5.344396392005299271e-03
1.456028014007003321e+03 5.231631002043117019e-03
1.456928464232116085e+03 5.139721919917411216e-03
1.457828914457228620e+03 5.030945524539115477e-03
1.458729364682341156e+03 4.882868434683525563e-03
1.459629814907453692e+03 4.703929902232873404e-03
1.460530265132566228e+03 4.514418074904130718e-03
1.461430715357678764e+03 4.342025318214926856e-03
1.462331165582791300e+03 4.208411540237392591e-03
1.463231615807903836e+03 4.114651029134878957e-03
1.464132066033016372e+03 4.044369258071815569e-03
1.465032516258128908e+03 3.973193702886092075e-03
1.465932966483241444e+03 3.887778015500413173e-03
1.466833416708354207e+03 3.793852113569791927e-03
1.467733866933466743e+03 3.699005324632944659e-03
1.468634317158579279e+03 3.597470909930320510e-03
1.469534767383691815e+03 3.479746067031311632e-03
1.470435217608804351e+03 3.345485243632391210e-03
1.471335667833916887e+03 3.208498738627838746e-03
1.472236118059029423e+03 3.090459859534451688e-03
1.473136568284141958e+03 3.005160447944086113e-03
1.474037018509254494e+03 2.945576406483180545e-03
1.474937468734367030e+03 2.895699068525412617e-03
1.475837918959479566e+03 2.848362537974550007e-03
1.476738369184592329e+03 2.800580973793691513e-03
1.477638819409704865e+03 2.748804863741459957e-03
1.478539269634817401e+03 2.696229266471420524e-03
1.479439719859929937e+03 2.650145682533379659e-03
1.480340170085042473e+03 2.611485139598943711e-03
1.481240620310155009e+03 2.575883962989953570e-03
1.482141070535267545e+03 2.541127346136055811e-03
1.483041520760380081e+03 2.509132549258099795e-03
1.483941970985492617e+03 2.481012827841907759e-03
1.484842421210605153e+03 2.450056818664304251e-03
1.485742871435717689e+03 2.409609648565050246e-03
1.486643321660830452e+03 2.355064018839727116e-03
1.487543771885942988e+03 2.284109317249077582e-03
1.488444222111055524e+03 2.207042722373017511e-03
1.489344672336168060e+03 2.140024314794864574e-03
1.490245122561280596e+03 2.090941518890773905e-03
1.491145572786393132e+03 2.058119171820924857e-03
1.492046023011505667e+03 2.036340422135378934e-03
1.492946473236618203e+03 2.021007191258936651e-03
1.493846923461730739e+03 2.008025805204199411e-03
1.494747373686843275e+03 1.994493884306233668e-03
1.495647823911955811e+03 1.981225914619820939e-03
1.496548274137068574e+03 1.969550889208861958e-03
1.497448724362181110e+03 1.954349782389394781e-03
1.498349174587293646e+03 1.930850579813912175e-03
1.499249624812406182e+03 1.900909387107990733e-03
1.500150075037518718e+03 1.865506480251256146e-03
1.501050525262631254e+03 1.826357789402225686e-03
1.501950975487743790e+03 1.791819874899779844e-03
1.502851425712856326e+03 1.770956721422351724e-03
1.503751875937968862e+03 1.767804751098470519e-03
1.504652326163081398e+03 1.779856351229168812e-03
1.505552776388193934e+03 1.797458713574477543e-03
1.506453226613306470e+03 1.807722409200859283e-03
1.507353676838419233e+03 1.805345710867313665e-03
1.508254127063531769e+03 1.792132878332085765e-03
1.509154577288644305e+03 1.769523954931532996e-03
1.510055027513756841e+03 1.743088664707783449e-03
1.510955477738869376e+03 1.716338082090942746e-03
1.511855927963981912e+03 1.684540275926310659e-03
1.512756378189094448e+03 1.647318811343954741e-03
1.513656828414206984e+03 1.610162440026121277e-03
1.514557278639319520e+03 1.575805720928345234e-03
1.515457728864432056e+03 1.545959585274263694e-03
1.516358179089544592e+03 1.524748003668398516e-03
1.517258629314657355e+03 1.515174287684314947e-03
1.518159079539769891e+03 1.513304675174996028e-03
1.519059529764882427e+03 1.508047287982776721e-03
1.519959979989994963e+03 1.488238516619732688e-03
1.520860430215107499e+03 1.452115862128346927e-03
1.521760880440220035e+03 1.407507228493083511e-03
1.522661330665332571e+03 1.362314905095920623e-03
1.523561780890445107e+03 1.319606201269483362e-03
1.524462231115557643e+03 1.281962656301636940e-03
1.525362681340670179e+03 1.252793997361350284e-03
1.526263131565782714e+03 1.232251341452388679e-03
1.527163581790895478e+03 1.216413096174279217e-03
1.528064032016008014e+03 1.202253994952166361e-03
1.528964482241120550e+03 1.189493218161357052e-03
1.529864932466233086e+03 1.176762556588657575e-03
1.530765382691345621e+03 1.158037024110185201e-03
1.531665832916458157e+03 1.127316617050505695e-03
1.532566283141570693e+03 1.087142495827022595e-03
1.533466733366683229e+03 1.046615024464929303e-03
1.534367183591795765e+03 1.009590441389105267e-03
1.535267633816908301e+03 9.707304882996580300e-04
1.536168084042020837e+03 9.269463190169488151e-04
1.537068534267133600e+03 8.863345435326584580e-04
1.537968984492246136e+03 8.590478317653824167e-04
1.538869434717358672e+03 8.471890894094641355e-04
1.539769884942471208e+03 8.464225721357845986e-04
1.540670335167583744e+03 8.523624032277518159e-04
1.541570785392696280e+03 8.588385424583977598e-04
1.542471235617808816e+03 8.582991765755082058e-04
1.543371685842921352e+03 8.455000902061056119e-04
1.544272136068033888e+03 8.218338721889818484e-04
1.545172586293146423e+03 7.988932943843824949e-04
1.546073036518258959e+03 7.871007433394456567e-04
1.546973486743371723e+03 7.865304000856603679e-04
1.547873936968484259e+03 7.917544193697758671e-04
1.548774387193596795e+03 7.958613937868293459e-04
1.549674837418709330e+03 7.917501925664278918e-04
1.550575287643821866e+03 7.769438068420198365e-04
1.551475737868934402e+03 7.570106201357862732e-04
1.552376188094046938e+03 7.378996587104742723e-04
1.553276638319159474e+03 7.169926182795592325e-04
1.554177088544272010e+03 6.893109177106491710e-04
1.555077538769384546e+03 6.558339703817023811e-04
1.555977988994497082e+03 6.229564197428726514e-04
1.556878439219609618e+03 5.941117802144358414e-04
1.557778889444722381e+03 5.675562688806570907e-04
1.558679339669834917e+03 5.413440386949411581e-04
1.559579789894947453e+03 5.140282310961777085e-04
1.560480240120059989e+03 4.876708540710319398e-04
1.561380690345172525e+03 4.649966152533475819e-04
1.562281140570285061e+03 4.464209111839379245e-04
1.563181590795397597e+03 4.313762722191540359e-04
1.564082041020510133e+03 4.177528201881734759e-04
1.564982491245622668e+03 4.017037079455246847e-04
1.565882941470735204e+03 3.795773049242102048e-04
1.566783391695847740e+03 3.517140678757876599e-04
1.567683841920960504e+03 3.210771399729033470e-04
1.568584292146073039e+03 2.912352047347043275e-04
1.569484742371185575e+03 2.662256983448835278e-04
1.570385192596298111e+03 2.487112255110461817e-04
1.571285642821410647e+03 2.384463924327891865e-04
1.572186093046523183e+03 2.323308533456903545e-04
1.573086543271635719e+03 2.251895728012855852e-04
1.573986993496748255e+03 2.134586999123425219e-04
1.574887443721860791e+03 1.992215260530049987e-04
1.575787893946973327e+03 1.867540087776515601e-04
1.576688344172085863e+03 1.778976484421140988e-04
1.577588794397198626e+03 1.721372205703776859e-04
1.578489244622311162e+03 1.676101353798600758e-04
1.579389694847423698e+03 1.621873844568160979e-04
1.580290145072536234e+03 1.545579674330771339e-04
1.581190595297648770e+03 1.447390463101111662e-04
1.582091045522761306e+03 1.337717996329122164e-04
1.582991495747873842e+03 1.227781986892194648e-04
1.583891945972986377e+03 1.129106584330805341e-04
1.584792396198098913e+03 1.048380729259776767e-04
1.585692846423211449e+03 9.854748643663851799e-05
1.586593296648323985e+03 9.372808482708121247e-05
1.587493746873436749e+03 9.007923600084153900e-05
1.588394197098549284e+03 8.738427810481312001e-05
1.589294647323661820e+03 8.542472166653921793e-05
1.590195097548774356e+03 8.377060555006922773e-05
1.591095547773886892e+03 8.173696286939523671e-05
1.591995997998999428e+03 7.901166155181967910e-05
1.592896448224111964e+03 7.602734566543462578e-05
1.593796898449224500e+03 7.327010689427035329e-05
1.594697348674337036e+03 7.088788849965293461e-05
1.595597798899449572e+03 6.884151081044816666e-05
1.596498249124562108e+03 6.705491219118472825e-05
1.597398699349674871e+03 6.546398270869780258e-05
1.598299149574787407e+03 6.402256249993064493e-05
1.599199599799899943e+03 6.269850167410923871e-05
1.600100050025012479e+03 6.146922832363359041e-05
1.601000500250125015e+03 6.031852802210957095e-05
1.601900950475237551e+03 5.923442987765773101e-05
1.602801400700350086e+03 5.820785063229262462e-05
1.603701850925462622e+03 5.723172043966279622e-05
1.604602301150575158e+03 5.630040967153818161e-05
1.605502751375687694e+03 5.540934496930003078e-05
1.606403201600800230e+03 5.455474613718624266e-05
1.607303651825912766e+03 5.373344174274309479e-05
1.608204102051025529e+03 5.294273709294336510e-05
1.609104552276138065e+03 5.218031783462163671e-05
1.610005002501250601e+03 5.144417831982957577e-05
1.610905452726363137e+03 5.073256756527592715e-05
1.611805902951475673e+03 5.004394798999711860e-05
1.612706353176588209e+03 4.937696365141664833e-05
1.613606803401700745e+03 4.873041572594539078e-05
1.614507253626813281e+03 4.810324368554762166e-05
1.615407703851925817e+03 4.749451112517431292e-05
1.616308154077038353e+03 4.690339557542817545e-05
1.617208604302150889e+03 4.632918194421032499e-05
1.618109054527263652e+03 4.577125951212766109e-05
1.619009504752376188e+03 4.522912269664713030e-05
1.619909954977488724e+03 4.470237614020269098e-05
1.620810405202601260e+03 4.419074512018041594e-05
1.621710855427713796e+03 4.369409289972243227e-05
1.622611305652826331e+03 4.321244755510169526e-05
1.623511755877938867e+03 4.274604221761263911e-05
1.624412206103051403e+03 4.229537486894987446e-05
1.625312656328163939e+03 4.186129735347104709e-05
1.626213106553276475e+03 4.144514899488241805e-05
1.627113556778389011e+03 4.104895955200310538e-05
1.628014007003501774e+03 4.067576131642975160e-05
1.628914457228614310e+03 4.033007309407335086e-05
1.629814907453726846e+03 4.001864759661048743e-05
1.630715357678839382e+03 3.975158518919479664e-05
1.631615807903951918e+03 3.954382540670701751e-05
1.632516258129064454e+03 3.941674289568318561e-05
1.633416708354176990e+03 3.939990205183813935e-05
1.634317158579289526e+03 3.953542422080727269e-05
1.635217608804402062e+03 3.987801937357422387e-05
1.636118059029514598e+03 4.044441198842163701e-05
1.637018509254627133e+03 4.105836106443287449e-05
1.637918959479739897e+03 4.122287919909044289e-05
1.638819409704852433e+03 4.052836103585769962e-05
1.639719859929964969e+03 3.924966754726741906e-05
1.640620310155077505e+03 3.792728295445875052e-05
1.641520760380190040e+03 3.681365448311818794e-05
1.642421210605302576e+03 3.592493495373255452e-05
1.643321660830415112e+03 3.520868452996232833e-05
1.644222111055527648e+03 3.461314990744904577e-05
1.645122561280640184e+03 3.410084676665291176e-05
1.646023011505752720e+03 3.364673842798223617e-05
1.646923461730865256e+03 3.323436727676026809e-05
1.647823911955978019e+03 3.285282606442385152e-05
1.648724362181090555e+03 3.249475677251884118e-05
1.649624812406203091e+03 3.215508922225757246e-05
1.650525262631315627e+03 3.183025171094647075e-05
1.651425712856428163e+03 3.151767275433389347e-05
1.652326163081540699e+03 3.121546173631507473e-05
1.653226613306653235e+03 3.092220053893878715e-05
1.654127063531765771e+03 3.063680504584743178e-05
1.655027513756878307e+03 3.035843139587078736e-05
1.655927963981990843e+03 3.008641140789088811e-05
1.656828414207103378e+03 2.982020735661738322e-05
1.657728864432216142e+03 2.955937980292570161e-05
1.658629314657328678e+03 2.930356437342831528e-05
1.659529764882441214e+03 2.905245476859498677e-05
1.660430215107553749e+03 2.880579016810965381e-05
1.661330665332666285e+03 2.856334578243052824e-05
1.662231115557778821e+03 2.832492568393070429e-05
1.663131565782891357e+03 2.809035730931704237e-05
1.664032016008003893e+03 2.785948720102397557e-05
1.664932466233116429e+03 2.763217767673769817e-05
1.665832916458228965e+03 2.740830420107637284e-05
1.666733366683341501e+03 2.718775329342258627e-05
1.667633816908454037e+03 2.697042084876874802e-05
1.668534267133566800e+03 2.675621077937808160e-05
1.669434717358679336e+03 2.654503390762117778e-05
1.670335167583791872e+03 2.633680705695675607e-05
1.671235617808904408e+03 2.613145230034030289e-05
1.672136068034016944e+03 2.592889633457690703e-05
1.673036518259129480e+03 2.572906995609349013e-05
1.673936968484242016e+03 2.553190761889541862e-05
1.674837418709354552e+03 2.533734705952669800e-05
1.675737868934467087e+03 2.514532897697745200e-05
1.676638319159579623e+03 2.495579675790377143e-05
1.677538769384692159e+03 2.476869623941936277e-05
1.678439219609804923e+03 2.458397550320648735e-05
1.679339669834917459e+03 2.440158469586376983e-05
1.680240120060029994e+03 2.422147587134868484e-05
1.681140570285142530e+03 2.404360285211036102e-05
1.682041020510255066e+03 2.386792110611064951e-05
1.682941470735367602e+03 2.369438763741170929e-05
1.683841920960480138e+03 2.352296088840164558e-05
1.684742371185592674e+03 2.335360065204267918e-05
1.685642821410705210e+03 2.318626799279421724e-05
1.686543271635817746e+03 2.302092517506821543e-05
1.687443721860930282e+03 2.285753559825446296e-05
1.688344172086043045e+03 2.269606373750254413e-05
1.689244622311155581e+03 2.253647508955922797e-05
1.690145072536268117e+03 2.237873612306945034e-05
1.691045522761380653e+03 2.222281423282825426e-05
1.691945972986493189e+03 2.206867769754705287e-05
1.692846423211605725e+03 2.191629564074885588e-05
1.693746873436718261e+03 2.176563799446774430e-05
1.694647323661830796e+03 2.161667546546439884e-05
1.695547773886943332e+03 2.146937950370551374e-05
1.696448224112055868e+03 2.132372227289298954e-05
1.697348674337168404e+03 2.117967662284394716e-05
1.698249124562281168e+03 2.103721606355858718e-05
1.699149574787393703e+03 2.089631474082279493e-05
1.700050025012506239e+03 2.075694741321275455e-05
1.700950475237618775e+03 2.061908943038589769e-05
1.701850925462731311e+03 2.048271671255102040e-05
1.702751375687843847e+03 2.034780573102549565e-05
1.703651825912956383e+03 2.021433348979500690e-05
1.704552276138068919e+03 2.008227750799834672e-05
1.705452726363181455e+03 1.995161580327493541e-05
1.706353176588293991e+03 1.982232687590596877e-05
1.707253626813406527e+03 1.969438969370090414e-05
1.708154077038519290e+03 1.956778367757388521e-05
1.709054527263631826e+03 1.944248868776688322e-05
1.709954977488744362e+03 1.931848501067853462e-05
1.710855427713856898e+03 1.919575334625673319e-05
1.711755877938969434e+03 1.907427479592538160e-05
1.712656328164081970e+03 1.895403085100946932e-05
1.713556778389194506e+03 1.883500338163017257e-05
1.714457228614307041e+03 1.871717462604418906e-05
1.715357678839419577e+03 1.860052718040038566e-05
1.716258129064532113e+03 1.848504398889313520e-05
1.717158579289644649e+03 1.837070833428753813e-05
1.718059029514757185e+03 1.825750382880173957e-05
1.718959479739869948e+03 1.814541440532198475e-05
1.719859929964982484e+03 1.803442430893966209e-05
1.720760380190095020e+03 1.792451808878937843e-05
1.721660830415207556e+03 1.781568059017528633e-05
1.722561280640320092e+03 1.770789694697278181e-05
1.723461730865432628e+03 1.760115257429029539e-05
1.724362181090545164e+03 1.749543316138161178e-05
1.725262631315657700e+03 1.739072466479452527e-05
1.726163081540770236e+03 1.728701330174810597e-05
1.727063531765882772e+03 1.718428554372566808e-05
1.727963981990995308e+03 1.708252811027669775e-05
1.728864432216108071e+03 1.698172796301638361e-05
1.729764882441220607e+03 1.688187229981612608e-05
1.730665332666333143e+03 1.678294854917568787e-05
1.731565782891445679e+03 1.668494436477137820e-05
1.732466233116558215e+03 1.658784762017055027e-05
1.733366683341670750e+03 1.649164640370808871e-05
1.734267133566783286e+03 1.639632901351711122e-05
1.735167583791895822e+03 1.630188395270884625e-05
1.736068034017008358e+03 1.620829992469412448e-05
1.736968484242120894e+03 1.611556582864381751e-05
1.737868934467233430e+03 1.602367075507973661e-05
1.738769384692346193e+03 1.593260398159511738e-05
1.739669834917458729e+03 1.584235496869501367e-05
1.740570285142571265e+03 1.575291335575690593e-05
1.741470735367683801e+03 1.566426895710398181e-05
1.742371185592796337e+03 1.557641175818902233e-05
1.743271635817908873e+03 1.548933191188274079e-05
1.744172086043021409e+03 1.540301973486635415e-05
1.745072536268133945e+03 1.531746570412086185e-05
1.745972986493246481e+03 1.523266045351222399e-05
1.746873436718359017e+03 1.514859477046929986e-05
1.747773886943471553e+03 1.506525959274922727e-05
1.748674337168584316e+03 1.498264600528978039e-05
1.749574787393696852e+03 1.490074523714437761e-05
1.750475237618809388e+03 1.481954865849680204e-05
1.751375687843921924e+03 1.473904777775539566e-05
1.752276138069034459e+03 1.465923423871992388e-05
1.753176588294146995e+03 1.458009981782320256e-05
1.754077038519259531e+03 1.450163642144232746e-05
1.754977488744372067e+03 1.442383608327793903e-05
1.755877938969484603e+03 1.434669096180020127e-05
1.756778389194597139e+03 1.427019333775833509e-05
1.757678839419709675e+03 1.419433561175173782e-05
1.758579289644822438e+03 1.411911030186235836e-05
1.759479739869934974e+03 1.404451004134462156e-05
1.760380190095047510e+03 1.397052757637150906e-05
1.761280640320160046e+03 1.389715576383667823e-05
1.762181090545272582e+03 1.382438756920848049e-05
1.763081540770385118e+03 1.375221606443640753e-05
1.763981990995497654e+03 1.368063442590719746e-05
1.764882441220610190e+03 1.360963593244997228e-05
1.765782891445722726e+03 1.353921396338830938e-05
1.766683341670835262e+03 1.346936199663799532e-05
1.767583791895947797e+03 1.340007360684977226e-05
1.768484242121060333e+03 1.333134246359505434e-05
1.769384692346173097e+03 1.326316232959364850e-05
1.770285142571285633e+03 1.319552705898256142e-05
1.771185592796398169e+03 1.312843059562410878e-05
1.772086043021510704e+03 1.306186697145316768e-05
1.772986493246623240e+03 1.299583030486141384e-05
1.773886943471735776e+03 1.293031479911851992e-05
1.774787393696848312e+03 1.286531474082849731e-05
1.775687843921960848e+03 1.280082449842064423e-05
1.776588294147073384e+03 1.273683852067425150e-05
1.777488744372185920e+03 1.267335133527625624e-05
1.778389194597298456e+03 1.261035754740957161e-05
1.779289644822411219e+03 1.254785183837377336e-05
1.780190095047523755e+03 1.248582896423535275e-05
1.781090545272636291e+03 1.242428375450695169e-05
1.781990995497748827e+03 1.236321111085562559e-05
1.782891445722861363e+03 1.230260600583922778e-05
1.783791895947973899e+03 1.224246348166903160e-05
1.784692346173086435e+03 1.218277864899963197e-05
1.785592796398198971e+03 1.212354668574388540e-05
1.786493246623311506e+03 1.206476283591372838e-05
1.787393696848424042e+03 1.200642240848451122e-05
1.788294147073536578e+03 1.194852077628398390e-05
1.789194597298649342e+03 1.189105337490375198e-05
1.790095047523761878e+03 1.183401570163436309e-05
1.790995497748874413e+03 1.177740331442115245e-05
1.791895947973986949e+03 1.172121183084287532e-05
1.792796398199099485e+03 1.166543692711052759e-05
1.793696848424212021e+03 1.161007433708693226e-05
1.794597298649324557e+03 1.155511985132643276e-05
1.795497748874437093e+03 1.150056931613366320e-05
1.796398199099549629e+03 1.144641863264183587e-05
1.797298649324662165e+03 1.139266375590915023e-05
1.798199099549774701e+03 1.133930069403360623e-05
1.799099549774887464e+03 1.128632550728544093e-05
1.800000000000000000e+03 1.123373430725666342e-05
