0.000000000000000000e+00 9.475770851191043761e-04
9.004502251125562351e-01 1.248827464809856933e-03
1.800900450225112470e+00 1.543879257381882688e-03
2.701350675337668594e+00 1.701573159282350825e-03
3.601800900450224940e+00 1.634851206459107505e-03
4.502251125562780842e+00 1.387017477671255352e-03
5.402701350675337189e+00 1.082719693539788966e-03
6.303151575787893535e+00 8.169734928044569905e-04
7.203601800900449881e+00 6.171154361091960678e-04
8.104052026013006227e+00 4.738330231451810316e-04
9.004502251125561685e+00 3.708583166495883917e-04
9.904952476238118919e+00 2.957997620060417803e-04
1.080540270135067438e+01 2.402223411939424346e-04
1.170585292646323161e+01 1.983042250590931921e-04
1.260630315157578707e+01 1.662321884678241008e-04
1.350675337668834430e+01 1.414387995812861609e-04
1.440720360180089976e+01 1.220536434119247912e-04
1.530765382691345522e+01 1.066631457999104665e-04
1.620810405202601245e+01 9.424639490792574234e-05
1.710855427713856969e+01 8.418230766731354313e-05
1.800900450225112337e+01 7.606461843229621344e-05
1.890945472736368060e+01 6.945978606505309630e-05
1.980990495247623784e+01 6.379789653427307564e-05
2.071035517758879507e+01 5.847530375383282165e-05
2.161080540270134875e+01 5.329963646902480837e-05
2.251125562781390599e+01 4.853360343147505342e-05
2.341170585292646322e+01 4.441043471187878171e-05
2.431215607803901690e+01 4.095365530107444331e-05
2.521260630315157414e+01 3.809763601669005010e-05
2.611305652826413137e+01 3.577245312565863357e-05
2.701350675337668861e+01 3.381704133786100252e-05
2.791395697848924229e+01 3.194486866161004102e-05
2.881440720360179952e+01 2.997784999684989765e-05
2.971485742871435676e+01 2.800867533518097284e-05
3.061530765382691044e+01 2.619974026205353396e-05
3.151575787893946767e+01 2.459801490496818711e-05
3.241620810405202491e+01 2.316692303892303043e-05
3.331665832916458214e+01 2.187677920696683525e-05
3.421710855427713938e+01 2.071066653374560267e-05
3.511755877938969661e+01 1.965309810751498411e-05
3.601800900450224674e+01 1.870407965612791139e-05
3.691845922961480397e+01 1.786778151044507632e-05
3.781890945472736121e+01 1.713592414515808805e-05
3.871935967983991844e+01 1.650163759356458135e-05
3.961980990495247568e+01 1.596404677694694834e-05
4.052026013006503291e+01 1.550866545760614166e-05
4.142071035517759015e+01 1.512918069480527293e-05
4.232116058029014027e+01 1.484889886787552169e-05
4.322161080540269751e+01 1.470202346358847794e-05
4.412206103051525474e+01 1.472893874876699604e-05
4.502251125562781198e+01 1.494384682163560789e-05
4.592296148074036921e+01 1.526430433832159806e-05
4.682341170585292645e+01 1.549091980402941284e-05
4.772386193096548368e+01 1.546022137752004917e-05
4.862431215607803381e+01 1.519471350072109336e-05
4.952476238119059104e+01 1.480056951724730024e-05
5.042521260630314828e+01 1.434648353668937151e-05
5.132566283141570551e+01 1.387756640707873311e-05
5.222611305652826275e+01 1.344400130153393390e-05
5.312656328164081998e+01 1.308907624579234668e-05
5.402701350675337721e+01 1.284514355484314620e-05
5.492746373186592734e+01 1.272574430282067324e-05
5.582791395697848458e+01 1.270225943814932000e-05
5.672836418209104181e+01 1.269880860429152391e-05
5.762881440720359905e+01 1.267956581471689606e-05
5.852926463231615628e+01 1.271465481397665258e-05
5.942971485742871351e+01 1.290490508155998196e-05
6.033016508254127075e+01 1.329435583454386950e-05
6.123061530765382088e+01 1.388237389701824586e-05
6.213106553276637811e+01 1.457338620977717426e-05
6.303151575787893535e+01 1.514738707651549932e-05
6.393196598299149258e+01 1.548225106050014660e-05
6.483241620810404982e+01 1.563681531130559774e-05
6.573286643321659994e+01 1.570581202212228215e-05
6.663331665832916428e+01 1.586126781777578870e-05
6.753376688344171441e+01 1.624220737762649275e-05
6.843421710855427875e+01 1.672994120456389744e-05
6.933466733366682888e+01 1.707953057901330157e-05
7.023511755877939322e+01 1.717915662573537059e-05
7.113556778389194335e+01 1.713063439091290624e-05
7.203601800900449348e+01 1.709632707402118076e-05
7.293646823411705782e+01 1.709811208581440306e-05
7.383691845922960795e+01 1.706037963886479798e-05
7.473736868434217229e+01 1.693502598903772071e-05
7.563781890945472242e+01 1.678185696349770306e-05
7.653826913456728676e+01 1.672318630477102753e-05
7.743871935967983688e+01 1.677253005202452763e-05
7.833916958479238701e+01 1.680347578643599769e-05
7.923961980990495135e+01 1.663682182618592191e-05
8.014007003501750148e+01 1.624489863584010032e-05
8.104052026013006582e+01 1.587178508118881106e-05
8.194097048524261595e+01 1.570464060247950711e-05
8.284142071035518029e+01 1.567693104164624891e-05
8.374187093546773042e+01 1.566067890880415696e-05
8.464232116058028055e+01 1.565671546062756176e-05
8.554277138569284489e+01 1.562995207504340215e-05
8.644322161080539502e+01 1.549000490854563188e-05
8.734367183591795936e+01 1.530653236412202948e-05
8.824412206103050949e+01 1.517454484874316150e-05
8.914457228614307382e+01 1.508598660018116907e-05
9.004502251125562395e+01 1.502577373338893603e-05
9.094547273636817408e+01 1.505451510626276569e-05
9.184592296148073842e+01 1.527896675507473833e-05
9.274637318659328855e+01 1.573337680568600821e-05
9.364682341170585289e+01 1.637776873790730073e-05
9.454727363681840302e+01 1.718133692128200155e-05
9.544772386193096736e+01 1.804653142488898775e-05
9.634817408704351749e+01 1.870142358316334935e-05
9.724862431215606762e+01 1.897069482312819491e-05
9.814907453726863196e+01 1.897542755054442093e-05
9.904952476238118209e+01 1.885328132160779430e-05
9.994997498749374643e+01 1.860642196284440725e-05
1.008504252126062966e+02 1.830467492144377520e-05
1.017508754377188609e+02 1.810920983225053230e-05
1.026513256628314110e+02 1.810788086568381163e-05
1.035517758879439612e+02 1.825492345299362329e-05
1.044522261130565255e+02 1.840308164505573334e-05
1.053526763381690756e+02 1.844273955947575350e-05
1.062531265632816400e+02 1.839460878523254615e-05
1.071535767883941901e+02 1.830575862795346781e-05
1.080540270135067544e+02 1.817178131591810780e-05
1.089544772386193046e+02 1.800698343632847279e-05
1.098549274637318547e+02 1.793138581333615864e-05
1.107553776888444190e+02 1.810506835445671494e-05
1.116558279139569692e+02 1.855737119898024699e-05
1.125562781390695335e+02 1.908393973653092161e-05
1.134567283641820836e+02 1.935492528677958075e-05
1.143571785892946480e+02 1.922272185327407462e-05
1.152576288144071981e+02 1.887647251770053835e-05
1.161580790395197482e+02 1.856838293114500016e-05
1.170585292646323126e+02 1.837619804296892079e-05
1.179589794897448627e+02 1.827038115423452018e-05
1.188594297148574270e+02 1.820547466433925619e-05
1.197598799399699772e+02 1.812957049414801809e-05
1.206603301650825415e+02 1.803412951872976672e-05
1.215607803901950916e+02 1.800641484267440629e-05
1.224612306153076418e+02 1.814191620237003228e-05
1.233616808404202061e+02 1.842236225165083002e-05
1.242621310655327562e+02 1.876041080511333905e-05
1.251625812906453206e+02 1.914478520304953773e-05
1.260630315157578707e+02 1.961095805942716163e-05
1.269634817408704350e+02 2.007697621965141369e-05
1.278639319659829852e+02 2.044832377696828086e-05
1.287643821910955353e+02 2.080484679261274084e-05
1.296648324162080996e+02 2.121902410348519352e-05
1.305652826413206640e+02 2.150615180910930708e-05
1.314657328664331999e+02 2.154381512203710502e-05
1.323661830915457642e+02 2.152868527051433233e-05
1.332666333166583286e+02 2.153740746391028630e-05
1.341670835417708929e+02 2.136531766861473369e-05
1.350675337668834288e+02 2.091751805118002117e-05
1.359679839919959932e+02 2.044454056135125837e-05
1.368684342171085575e+02 2.027584383552894984e-05
1.377688844422210934e+02 2.052458229361064638e-05
1.386693346673336578e+02 2.101394529420130741e-05
1.395697848924462221e+02 2.142808415931625384e-05
1.404702351175587864e+02 2.152377137529382694e-05
1.413706853426713224e+02 2.127737367934473702e-05
1.422711355677838867e+02 2.092400782751393092e-05
1.431715857928964510e+02 2.073901083685031341e-05
1.440720360180089870e+02 2.071855042158064932e-05
1.449724862431215513e+02 2.062214733603453699e-05
1.458729364682341156e+02 2.036688420210609242e-05
1.467733866933466800e+02 2.017556581853643263e-05
1.476738369184592159e+02 2.028340090277568370e-05
1.485742871435717802e+02 2.073456262720572792e-05
1.494747373686843446e+02 2.143051157157739673e-05
1.503751875937968805e+02 2.225870857682140999e-05
1.512756378189094448e+02 2.308734423523516648e-05
1.521760880440220092e+02 2.375722263864561731e-05
1.530765382691345735e+02 2.424576061890463806e-05
1.539769884942471094e+02 2.457135385831670142e-05
1.548774387193596738e+02 2.456531021809772356e-05
1.557778889444722381e+02 2.414600175155453451e-05
1.566783391695847740e+02 2.345663971953708898e-05
1.575787893946973384e+02 2.271366886937833864e-05
1.584792396198099027e+02 2.217980141204129821e-05
1.593796898449224670e+02 2.202805092258797439e-05
1.602801400700350030e+02 2.229733550062635501e-05
1.611805902951475673e+02 2.288757489125342349e-05
1.620810405202601316e+02 2.350983619316516729e-05
1.629814907453726676e+02 2.389311599372106378e-05
1.638819409704852319e+02 2.405647607830486561e-05
1.647823911955977962e+02 2.420584696220380404e-05
1.656828414207103606e+02 2.439879150337948967e-05
1.665832916458228965e+02 2.447656929267219135e-05
1.674837418709354608e+02 2.430591829074909703e-05
1.683841920960480252e+02 2.398038654964271865e-05
1.692846423211605611e+02 2.365551662058617101e-05
1.701850925462731254e+02 2.337670642181040602e-05
1.710855427713856898e+02 2.317221480322195678e-05
1.719859929964982541e+02 2.304354611295435042e-05
1.728864432216107900e+02 2.293787653744762316e-05
1.737868934467233544e+02 2.288798033546965562e-05
1.746873436718359187e+02 2.295835615446511113e-05
1.755877938969484546e+02 2.307470043198069548e-05
1.764882441220610190e+02 2.318647379712737721e-05
1.773886943471735833e+02 2.342015140764988545e-05
1.782891445722861476e+02 2.386294561230288005e-05
1.791895947973986836e+02 2.440590729747419877e-05
1.800900450225112479e+02 2.489488736680344250e-05
1.809904952476238122e+02 2.527152865967217664e-05
1.818909454727363482e+02 2.560501476082614324e-05
1.827913956978489125e+02 2.607637650705655249e-05
1.836918459229614768e+02 2.676756918749449306e-05
1.845922961480740412e+02 2.760177243809361992e-05
1.854927463731865771e+02 2.848361967098348986e-05
1.863931965982991414e+02 2.934212465754963101e-05
1.872936468234117058e+02 3.018121650303638283e-05
1.881940970485242417e+02 3.105035458155963249e-05
1.890945472736368060e+02 3.193869960608085621e-05
1.899949974987493704e+02 3.281602633356374643e-05
1.908954477238619347e+02 3.356982040242346917e-05
1.917958979489744706e+02 3.395346792481704243e-05
1.926963481740870350e+02 3.378533552135989107e-05
1.935967983991995993e+02 3.315686033540647833e-05
1.944972486243121352e+02 3.256462704763864109e-05
1.953976988494246996e+02 3.243951264076828781e-05
1.962981490745372639e+02 3.263689510571082195e-05
1.971985992996498283e+02 3.279676861078852269e-05
1.980990495247623642e+02 3.284866488296440772e-05
1.989994997498749285e+02 3.286198158926087156e-05
1.998999499749874929e+02 3.262667245263119891e-05
2.008004002001000288e+02 3.191133853912104596e-05
2.017008504252125931e+02 3.098338190794400150e-05
2.026013006503251574e+02 3.028424869288509576e-05
2.035017508754377218e+02 2.994336951344461368e-05
2.044022011005502577e+02 2.989388558023164401e-05
2.053026513256628220e+02 3.007155158572031282e-05
2.062031015507753864e+02 3.044563110863269392e-05
2.071035517758879223e+02 3.100119644456876566e-05
2.080040020010004866e+02 3.167597553828486187e-05
2.089044522261130510e+02 3.216236512681122683e-05
2.098049024512256153e+02 3.213479649940945181e-05
2.107053526763381512e+02 3.176815127034587048e-05
2.116058029014507156e+02 3.142736929428477057e-05
2.125062531265632799e+02 3.122656858070168136e-05
2.134067033516758158e+02 3.117010734548260868e-05
2.143071535767883802e+02 3.132185860365608947e-05
2.152076038019009445e+02 3.173817148838082132e-05
2.161080540270135089e+02 3.232678161108227540e-05
2.170085042521260448e+02 3.280484024708080242e-05
2.179089544772386091e+02 3.297680532065166710e-05
2.188094047023511735e+02 3.290025341357153993e-05
2.197098549274637094e+02 3.260611265080404198e-05
2.206103051525762737e+02 3.212689398495152719e-05
2.215107553776888381e+02 3.166437825483349537e-05
2.224112056028014024e+02 3.133799473555118776e-05
2.233116558279139383e+02 3.114200736112101821e-05
2.242121060530265027e+02 3.113556077109059335e-05
2.251125562781390670e+02 3.144380946951937171e-05
2.260130065032516029e+02 3.206705795461386229e-05
2.269134567283641672e+02 3.278120290489308614e-05
2.278139069534767316e+02 3.329868179862258999e-05
2.287143571785892959e+02 3.354904996569751387e-05
2.296148074037018318e+02 3.365155652880598371e-05
2.305152576288143962e+02 3.368081387548670845e-05
2.314157078539269605e+02 3.354781241636571007e-05
2.323161580790394964e+02 3.316986895927248499e-05
2.332166083041520608e+02 3.263952566704467998e-05
2.341170585292646251e+02 3.223471850299643545e-05
2.350175087543771895e+02 3.217465660517037523e-05
2.359179589794897254e+02 3.249112357666140700e-05
2.368184092046022897e+02 3.311502950022098202e-05
2.377188594297148541e+02 3.390878871300539614e-05
2.386193096548273900e+02 3.459017758548155679e-05
2.395197598799399543e+02 3.504736469654823436e-05
2.404202101050525187e+02 3.554902285527735084e-05
2.413206603301650830e+02 3.625902936841418075e-05
2.422211105552776189e+02 3.708037085099204314e-05
2.431215607803901833e+02 3.785543278735750185e-05
2.440220110055027476e+02 3.858484880791386383e-05
2.449224612306152835e+02 3.936112168110492127e-05
2.458229114557278479e+02 4.009983278040781511e-05
2.467233616808404122e+02 4.069601567444820111e-05
2.476238119059529765e+02 4.121476047780543874e-05
2.485242621310655124e+02 4.167968360545875792e-05
2.494247123561780768e+02 4.197494125181613494e-05
2.503251625812906411e+02 4.200179449281659467e-05
2.512256128064031770e+02 4.194201002324948226e-05
2.521260630315157414e+02 4.206245408951350001e-05
2.530265132566283057e+02 4.229394825921493450e-05
2.539269634817408701e+02 4.225401700737913300e-05
2.548274137068534060e+02 4.168307714246191354e-05
2.557278639319659703e+02 4.068648067736975032e-05
2.566283141570785347e+02 3.955758270301594639e-05
2.575287643821910706e+02 3.863603593565447051e-05
2.584292146073036633e+02 3.823382886681456455e-05
2.593296648324161993e+02 3.841435663902996223e-05
2.602301150575287352e+02 3.888160830849399956e-05
2.611305652826413279e+02 3.930436900302646685e-05
2.620310155077538639e+02 3.951299376790425434e-05
2.629314657328663998e+02 3.948368460084400596e-05
2.638319159579789925e+02 3.949599722118337004e-05
2.647323661830915285e+02 3.977651084832724249e-05
2.656328164082040644e+02 4.018012946741288317e-05
2.665332666333166571e+02 4.039467411338486393e-05
2.674337168584291931e+02 4.031757885415221328e-05
2.683341670835417858e+02 4.018082637996951137e-05
2.692346173086543217e+02 4.029803880352359223e-05
2.701350675337668577e+02 4.083256425630969061e-05
2.710355177588794504e+02 4.171470767831517997e-05
2.719359679839919863e+02 4.282685015977963117e-05
2.728364182091045222e+02 4.394839225311634063e-05
2.737368684342171150e+02 4.469804652044959982e-05
2.746373186593296509e+02 4.490071976566545857e-05
2.755377688844421868e+02 4.476807037579781591e-05
2.764382191095547796e+02 4.462419568438679042e-05
2.773386693346673155e+02 4.464339833273534621e-05
2.782391195597798514e+02 4.485035027222685839e-05
2.791395697848924442e+02 4.525517412634490032e-05
2.800400200100049801e+02 4.580775333097772113e-05
2.809404702351175729e+02 4.640320665850370091e-05
2.818409204602301088e+02 4.684784688718725710e-05
2.827413706853426447e+02 4.697178541044011663e-05
2.836418209104552375e+02 4.687338952438451878e-05
2.845422711355677734e+02 4.675192449954260128e-05
2.854427213606803093e+02 4.661627499690252366e-05
2.863431715857929021e+02 4.633105641930249211e-05
2.872436218109054380e+02 4.607401778620170355e-05
2.881440720360179739e+02 4.630243176567862821e-05
2.890445222611305667e+02 4.714167314770482178e-05
2.899449724862431026e+02 4.826628598338838019e-05
2.908454227113556385e+02 4.935225173625327338e-05
2.917458729364682313e+02 5.035986458444160726e-05
2.926463231615807672e+02 5.132629853958740217e-05
2.935467733866933600e+02 5.209074759321955281e-05
2.944472236118058959e+02 5.234517948183314444e-05
2.953476738369184318e+02 5.202084605165109424e-05
2.962481240620310246e+02 5.142899383175404422e-05
2.971485742871435605e+02 5.093492900435045456e-05
2.980490245122560964e+02 5.083386046067221611e-05
2.989494747373686891e+02 5.127181414842758666e-05
2.998499249624812251e+02 5.212391997860190692e-05
3.007503751875937610e+02 5.308351411552913356e-05
3.016508254127063537e+02 5.377536845295025796e-05
3.025512756378188897e+02 5.393977633611944726e-05
3.034517258629314256e+02 5.364684770484453300e-05
3.043521760880440183e+02 5.314475027252413958e-05
3.052526263131565543e+02 5.261743933160915903e-05
3.061530765382691470e+02 5.214256667662249989e-05
3.070535267633816829e+02 5.187124034223263914e-05
3.079539769884942189e+02 5.210426315615286229e-05
3.088544272136068116e+02 5.303557265120488039e-05
3.097548774387193475e+02 5.457856697704811349e-05
3.106553276638318835e+02 5.632291268667395233e-05
3.115557778889444762e+02 5.769460805491314265e-05
3.124562281140570121e+02 5.836553251626598810e-05
3.133566783391695481e+02 5.833308081111017581e-05
3.142571285642821408e+02 5.786703376472703735e-05
3.151575787893946767e+02 5.735567125441211003e-05
3.160580290145072127e+02 5.697815923175022411e-05
3.169584792396198054e+02 5.665869935870077126e-05
3.178589294647323413e+02 5.638113993348825304e-05
3.187593796898449341e+02 5.634924348495621524e-05
3.196598299149574700e+02 5.660201030952517011e-05
3.205602801400700059e+02 5.683772285993273708e-05
3.214607303651825987e+02 5.687688698787740199e-05
3.223611805902951346e+02 5.692039356113616516e-05
3.232616308154076705e+02 5.708435432411753605e-05
3.241620810405202633e+02 5.733403724952287363e-05
3.250625312656327992e+02 5.764273614856710700e-05
3.259629814907453351e+02 5.769658472760171714e-05
3.268634317158579279e+02 5.697030882478369658e-05
3.277638819409704638e+02 5.546889438180501754e-05
3.286643321660829997e+02 5.382831286528739540e-05
3.295647823911955925e+02 5.269795384834731272e-05
3.304652326163081284e+02 5.222555742369351629e-05
3.313656828414207212e+02 5.196840146707198325e-05
3.322661330665332571e+02 5.154106514152998077e-05
3.331665832916457930e+02 5.094859777287186577e-05
3.340670335167583858e+02 5.032048579291489355e-05
3.349674837418709217e+02 4.991605754329358368e-05
3.358679339669834576e+02 5.001615948881963589e-05
3.367683841920960504e+02 5.063946075428928291e-05
3.376688344172085863e+02 5.157762747890952084e-05
3.385692846423211222e+02 5.264411616324329662e-05
3.394697348674337150e+02 5.375935175523807410e-05
3.403701850925462509e+02 5.487060709785927690e-05
3.412706353176587868e+02 5.604636327335052020e-05
3.421710855427713796e+02 5.739059676299011607e-05
3.430715357678839155e+02 5.870461976033342522e-05
3.439719859929965082e+02 5.954548287378171083e-05
3.448724362181090441e+02 5.961805415987602390e-05
3.457728864432215801e+02 5.909987514978300925e-05
3.466733366683341728e+02 5.846454688960586829e-05
3.475737868934467087e+02 5.798229405658569628e-05
3.484742371185592447e+02 5.758990889441254580e-05
3.493746873436718374e+02 5.718670578241831910e-05
3.502751375687843733e+02 5.684810778703887877e-05
3.511755877938969093e+02 5.661056574709143560e-05
3.520760380190095020e+02 5.629082017043457020e-05
3.529764882441220379e+02 5.590512193468569733e-05
3.538769384692345739e+02 5.570676794644976982e-05
3.547773886943471666e+02 5.579946846687272827e-05
3.556778389194597025e+02 5.615111202857969594e-05
3.565782891445722953e+02 5.668498000197393457e-05
3.574787393696848312e+02 5.711522914908665285e-05
3.583791895947973671e+02 5.709999183646557514e-05
3.592796398199099599e+02 5.677410573765085577e-05
3.601800900450224958e+02 5.656609799145810124e-05
3.610805402701350317e+02 5.673899826376331665e-05
3.619809904952476245e+02 5.726956938752785284e-05
3.628814407203601604e+02 5.786144080906570922e-05
3.637818909454726963e+02 5.826783531252204917e-05
3.646823411705852891e+02 5.852336161400730836e-05
3.655827913956978250e+02 5.853038282499857298e-05
3.664832416208103609e+02 5.800973513611331267e-05
3.673836918459229537e+02 5.703596580017870145e-05
3.682841420710354896e+02 5.607736777824130455e-05
3.691845922961480824e+02 5.543953905276796732e-05
3.700850425212606183e+02 5.510767941910582076e-05
3.709854927463731542e+02 5.487426986843145857e-05
3.718859429714857470e+02 5.445014882233631284e-05
3.727863931965982829e+02 5.368925736257995792e-05
3.736868434217108188e+02 5.265928556347542540e-05
3.745872936468234116e+02 5.158251405699841352e-05
3.754877438719359475e+02 5.087820872992255693e-05
3.763881940970484834e+02 5.086638118799540452e-05
3.772886443221610762e+02 5.141176783600355949e-05
3.781890945472736121e+02 5.186171596538332430e-05
3.790895447723861480e+02 5.153643001457554524e-05
3.799899949974987408e+02 5.051701809243784418e-05
3.808904452226112767e+02 4.935224674782260468e-05
3.817908954477238694e+02 4.838707604365067466e-05
3.826913456728364054e+02 4.774389715529803651e-05
3.835917958979489413e+02 4.751835077771067868e-05
3.844922461230615340e+02 4.767444104761338651e-05
3.853926963481740700e+02 4.807994842562628179e-05
3.862931465732866059e+02 4.863006879011342378e-05
3.871935967983991986e+02 4.917075432435060063e-05
3.880940470235117346e+02 4.964854353857198281e-05
3.889944972486242705e+02 5.008182517846430633e-05
3.898949474737368632e+02 5.043122602656728023e-05
3.907953976988493991e+02 5.065051408628390287e-05
3.916958479239619351e+02 5.073331655922641331e-05
3.925962981490745278e+02 5.071383359903262276e-05
3.934967483741870637e+02 5.071166071460748585e-05
3.943971985992996565e+02 5.086352207108128239e-05
3.952976488244121924e+02 5.115747405307426615e-05
3.961980990495247283e+02 5.131343041270717219e-05
3.970985492746373211e+02 5.105533620945034719e-05
3.979989994997498570e+02 5.055707446097330025e-05
3.988994497248623929e+02 5.029094322499303262e-05
3.997998999499749857e+02 5.046122612010728146e-05
4.007003501750875216e+02 5.102327494247596795e-05
4.016008004002000575e+02 5.188297230345452157e-05
4.025012506253126503e+02 5.277214646903035413e-05
4.034017008504251862e+02 5.342809008569432693e-05
4.043021510755377221e+02 5.379334162010661796e-05
4.052026013006503149e+02 5.384854165364012964e-05
4.061030515257628508e+02 5.347014585197648021e-05
4.070035017508754436e+02 5.264287803374023293e-05
4.079039519759879795e+02 5.174968602101698664e-05
4.088044022011005154e+02 5.121692364727062526e-05
4.097048524262131082e+02 5.104577729942534945e-05
4.106053026513256441e+02 5.091640552321104494e-05
4.115057528764381800e+02 5.059478185903019335e-05
4.124062031015507728e+02 5.017309910656142687e-05
4.133066533266633087e+02 4.983038401624994700e-05
4.142071035517758446e+02 4.953122996641212120e-05
4.151075537768884374e+02 4.907746282295089425e-05
4.160080040020009733e+02 4.840816487795006654e-05
4.169084542271135092e+02 4.782884456625300989e-05
4.178089044522261020e+02 4.765257244026418712e-05
4.187093546773386379e+02 4.777500204802866677e-05
4.196098049024512306e+02 4.795427818032013711e-05
4.205102551275637666e+02 4.820160310721761102e-05
4.214107053526763025e+02 4.872177420564978808e-05
4.223111555777888952e+02 4.950777842159069379e-05
4.232116058029014312e+02 5.020306465578635392e-05
4.241120560280139671e+02 5.046654362474879430e-05
4.250125062531265598e+02 5.050562725622580662e-05
4.259129564782390958e+02 5.074038785722008785e-05
4.268134067033516317e+02 5.119073814305478623e-05
4.277138569284642244e+02 5.164210206474991263e-05
4.286143071535767604e+02 5.196730564393169886e-05
4.295147573786892963e+02 5.224615777274473950e-05
4.304152076038018890e+02 5.257527039599846960e-05
4.313156578289144250e+02 5.284894864772437303e-05
4.322161080540270177e+02 5.291765849154715976e-05
4.331165582791395536e+02 5.270004037662989624e-05
4.340170085042520896e+02 5.229959128674456460e-05
4.349174587293646823e+02 5.199865581955045941e-05
4.358179089544772182e+02 5.195394987874408350e-05
4.367183591795897541e+02 5.213628434166051788e-05
4.376188094047023469e+02 5.253761730562478454e-05
4.385192596298148828e+02 5.311937440148300593e-05
4.394197098549274187e+02 5.376318279560141631e-05
4.403201600800400115e+02 5.432545697116958284e-05
4.412206103051525474e+02 5.467404001312104324e-05
4.421210605302650833e+02 5.483229718190359695e-05
4.430215107553776761e+02 5.496631778694954849e-05
4.439219609804902120e+02 5.520256785273262726e-05
4.448224112056028048e+02 5.557807251006850155e-05
4.457228614307153407e+02 5.603507296443524922e-05
4.466233116558278766e+02 5.648073492734750933e-05
4.475237618809404694e+02 5.681457857167418750e-05
4.484242121060530053e+02 5.692837136091636403e-05
4.493246623311655412e+02 5.685586869022250144e-05
4.502251125562781340e+02 5.686528028588018366e-05
4.511255627813906699e+02 5.720200592709070590e-05
4.520260130065032058e+02 5.778704395089233776e-05
4.529264632316157986e+02 5.829830724561813120e-05
4.538269134567283345e+02 5.860478345139664291e-05
4.547273636818408704e+02 5.894711437506978903e-05
4.556278139069534632e+02 5.950378894409637535e-05
4.565282641320659991e+02 6.005754087165313381e-05
4.574287143571785919e+02 6.028023596400826676e-05
4.583291645822911278e+02 6.020348458680039390e-05
4.592296148074036637e+02 6.021029344082358208e-05
4.601300650325162565e+02 6.036248897583340470e-05
4.610305152576287924e+02 6.012625100677305154e-05
4.619309654827413283e+02 5.917158743401767525e-05
4.628314157078539210e+02 5.794292013167199522e-05
4.637318659329664570e+02 5.706600954712957874e-05
4.646323161580789929e+02 5.669577833758023775e-05
4.655327663831915856e+02 5.660338198533909122e-05
4.664332166083041216e+02 5.657989617011998691e-05
4.673336668334167143e+02 5.658979104150838225e-05
4.682341170585292502e+02 5.652756552386921189e-05
4.691345672836417862e+02 5.629320463799755811e-05
4.700350175087543789e+02 5.593968009740095664e-05
4.709354677338669148e+02 5.549672841963416590e-05
4.718359179589794508e+02 5.501669875857794623e-05
4.727363681840920435e+02 5.468239901627067016e-05
4.736368184092045794e+02 5.454071058064722985e-05
4.745372686343171154e+02 5.444646664982370906e-05
4.754377188594297081e+02 5.432119262218768790e-05
4.763381690845422440e+02 5.431505144003198680e-05
4.772386193096547800e+02 5.470771676794430373e-05
4.781390695347673727e+02 5.559402774273664597e-05
4.790395197598799086e+02 5.680254053296875626e-05
4.799399699849925014e+02 5.807495895983263713e-05
4.808404202101050373e+02 5.934602031961702575e-05
4.817408704352175732e+02 6.066807330407295831e-05
4.826413206603301660e+02 6.198920070474743733e-05
4.835417708854427019e+02 6.324607365289141377e-05
4.844422211105552378e+02 6.430512397823341588e-05
4.853426713356678306e+02 6.504149622680764024e-05
4.862431215607803665e+02 6.549404699123531843e-05
4.871435717858929024e+02 6.571954943610154067e-05
4.880440220110054952e+02 6.574500536809025123e-05
4.889444722361180311e+02 6.547034919200619724e-05
4.898449224612305670e+02 6.462882047734432815e-05
4.907453726863431598e+02 6.318853806098891719e-05
4.916458229114556957e+02 6.161369720242996573e-05
4.925462731365682885e+02 6.056727432824302851e-05
4.934467233616808244e+02 6.039948488792908662e-05
4.943471735867933603e+02 6.098771162988975164e-05
4.952476238119059531e+02 6.203995733345997606e-05
4.961480740370184890e+02 6.329342352973227315e-05
4.970485242621310249e+02 6.447674808396732828e-05
4.979489744872436177e+02 6.541388894782652842e-05
4.988494247123561536e+02 6.617076907799986443e-05
4.997498749374686895e+02 6.687748288366193370e-05
5.006503251625812823e+02 6.750421429290504505e-05
5.015507753876938182e+02 6.784203371813350171e-05
5.024512256128063541e+02 6.771740440545231097e-05
5.033516758379189469e+02 6.723013511599845943e-05
5.042521260630314828e+02 6.666359449172694601e-05
5.051525762881440755e+02 6.630106341399147969e-05
5.060530265132566115e+02 6.628457471146975688e-05
5.069534767383691474e+02 6.659973372922851529e-05
5.078539269634817401e+02 6.703660138667616192e-05
5.087543771885942760e+02 6.723603687549979657e-05
5.096548274137068120e+02 6.704801685734296745e-05
5.105552776388194047e+02 6.672911937247653468e-05
5.114557278639319406e+02 6.654975787233727736e-05
5.123561780890445334e+02 6.645297054592248570e-05
5.132566283141570693e+02 6.635393549425204344e-05
5.141570785392696052e+02 6.629461723543892022e-05
5.150575287643821412e+02 6.639363634165912072e-05
5.159579789894946771e+02 6.681943282496552331e-05
5.168584292146073267e+02 6.763920132617566811e-05
5.177588794397198626e+02 6.868719629904006686e-05
5.186593296648323985e+02 6.973109166944169114e-05
5.195597798899449344e+02 7.069496942633225691e-05
5.204602301150574704e+02 7.157332511210397338e-05
5.213606803401700063e+02 7.244863692253413162e-05
5.222611305652826559e+02 7.345569160837204701e-05
5.231615807903951918e+02 7.451465254324377637e-05
5.240620310155077277e+02 7.537424907217283969e-05
5.249624812406202636e+02 7.576641820112224341e-05
5.258629314657327996e+02 7.556594138745923632e-05
5.267633816908454492e+02 7.504011113781000077e-05
5.276638319159579851e+02 7.468746212511464925e-05
5.285642821410705210e+02 7.474402863715966152e-05
5.294647323661830569e+02 7.495929683534704503e-05
5.303651825912955928e+02 7.497737956642310268e-05
5.312656328164081287e+02 7.474960377770326146e-05
5.321660830415207784e+02 7.446776108436431766e-05
5.330665332666333143e+02 7.444468924208700927e-05
5.339669834917458502e+02 7.470931717527743538e-05
5.348674337168583861e+02 7.486911353310006696e-05
5.357678839419709220e+02 7.462194297763663834e-05
5.366683341670835716e+02 7.415281924404558563e-05
5.375687843921961075e+02 7.388096980512347289e-05
5.384692346173086435e+02 7.405794522796742957e-05
5.393696848424211794e+02 7.461529416242342679e-05
5.402701350675337153e+02 7.524219377355626469e-05
5.411705852926462512e+02 7.570466298672063677e-05
5.420710355177589008e+02 7.595838613517234621e-05
5.429714857428714367e+02 7.607934800400636402e-05
5.438719359679839727e+02 7.598176431995620587e-05
5.447723861930965086e+02 7.542155095205167628e-05
5.456728364182090445e+02 7.456663087911091911e-05
5.465732866433215804e+02 7.390547876961908822e-05
5.474737368684342300e+02 7.374478712132275524e-05
5.483741870935467659e+02 7.409089654485203388e-05
5.492746373186593019e+02 7.482915132310665818e-05
5.501750875437718378e+02 7.587128135300421424e-05
5.510755377688843737e+02 7.715583055654633821e-05
5.519759879939970233e+02 7.866917657977836188e-05
5.528764382191095592e+02 8.023290080441951473e-05
5.537768884442220951e+02 8.155438735148889560e-05
5.546773386693346310e+02 8.248590021146339055e-05
5.555777888944471670e+02 8.302988635314023744e-05
5.564782391195597029e+02 8.337004780616718365e-05
5.573786893446723525e+02 8.372131690935876109e-05
5.582791395697848884e+02 8.403272983479405161e-05
5.591795897948974243e+02 8.397437355723297715e-05
5.600800400200099602e+02 8.330264603515729184e-05
5.609804902451224962e+02 8.203782013199068153e-05
5.618809404702351458e+02 8.040673389744592311e-05
5.627813906953476817e+02 7.888094878508763574e-05
5.636818409204602176e+02 7.779288288513724881e-05
5.645822911455727535e+02 7.708528155676593714e-05
5.654827413706852894e+02 7.661723968780171268e-05
5.663831915957978254e+02 7.651843096097968636e-05
5.672836418209104750e+02 7.706060313459964781e-05
5.681840920460230109e+02 7.834133488155800465e-05
5.690845422711355468e+02 7.997053620618406336e-05
5.699849924962480827e+02 8.119676612227727161e-05
5.708854427213606186e+02 8.168435980125177999e-05
5.717858929464731546e+02 8.179999866137711221e-05
5.726863431715858042e+02 8.198486899899486689e-05
5.735867933966983401e+02 8.223593246290665396e-05
5.744872436218108760e+02 8.237680250107847347e-05
5.753876938469234119e+02 8.251597649061828319e-05
5.762881440720359478e+02 8.282410914814465641e-05
5.771885942971485974e+02 8.331151792176464147e-05
5.780890445222611334e+02 8.396031514347234218e-05
5.789894947473736693e+02 8.461673569278951629e-05
5.798899449724862052e+02 8.501627766628952476e-05
5.807903951975987411e+02 8.501246866657109259e-05
5.816908454227112770e+02 8.459279339131937751e-05
5.825912956478239266e+02 8.382419362277061055e-05
5.834917458729364625e+02 8.285469378533283011e-05
5.843921960980489985e+02 8.180615389373175163e-05
5.852926463231615344e+02 8.082395636742256066e-05
5.861930965482740703e+02 8.010260919114881972e-05
5.870935467733867199e+02 7.967756233413012380e-05
5.879939969984992558e+02 7.947458914484895921e-05
5.888944472236117917e+02 7.946882828187202305e-05
5.897948974487243277e+02 7.963933904172835478e-05
5.906953476738368636e+02 7.979941961348741605e-05
5.915957978989493995e+02 7.958484622730307686e-05
5.924962481240620491e+02 7.896785969508709612e-05
5.933966983491745850e+02 7.835332535231813922e-05
5.942971485742871209e+02 7.797240715202230705e-05
5.951975987993996569e+02 7.761800538585625873e-05
5.960980490245121928e+02 7.692101915148433070e-05
5.969984992496247287e+02 7.596878546838177167e-05
5.978989494747373783e+02 7.510106057406788153e-05
5.987993996998499142e+02 7.436656173260913034e-05
5.996998499249624501e+02 7.353074312612540968e-05
6.006003001500749860e+02 7.236131304927757499e-05
6.015007503751875220e+02 7.093192763959030756e-05
6.024012006003001716e+02 6.955162315660625761e-05
6.033016508254127075e+02 6.852807103237902641e-05
6.042021010505252434e+02 6.809851745920812976e-05
6.051025512756377793e+02 6.828281683338182544e-05
6.060030015007503152e+02 6.891617716035245745e-05
6.069034517258628512e+02 6.971829422267791776e-05
6.078039019509755008e+02 7.032925505284015946e-05
6.087043521760880367e+02 7.064269050224157218e-05
6.096048024012005726e+02 7.079400066228831246e-05
6.105052526263131085e+02 7.082738375667181705e-05
6.114057028514256444e+02 7.068679275975353431e-05
6.123061530765382940e+02 7.025197874379078208e-05
6.132066033016508300e+02 6.953495839726275786e-05
6.141070535267633659e+02 6.879307775119175962e-05
6.150075037518759018e+02 6.812746562199795564e-05
6.159079539769884377e+02 6.739264513943938261e-05
6.168084042021009736e+02 6.652799418787732288e-05
6.177088544272136232e+02 6.575602393003033273e-05
6.186093046523261592e+02 6.543094396349962674e-05
6.195097548774386951e+02 6.560868787019941215e-05
6.204102051025512310e+02 6.598780332159613670e-05
6.213106553276637669e+02 6.619066966671639546e-05
6.222111055527763028e+02 6.600904314084876049e-05
6.231115557778889524e+02 6.552258851775708383e-05
6.240120060030014884e+02 6.502457991406043638e-05
6.249124562281140243e+02 6.479543836896331358e-05
6.258129064532265602e+02 6.491798714728695620e-05
6.267133566783390961e+02 6.524871251495690280e-05
6.276138069034517457e+02 6.563904156607393303e-05
6.285142571285642816e+02 6.609146462119615945e-05
6.294147073536768175e+02 6.657326890768230964e-05
6.303151575787893535e+02 6.705137488588601175e-05
6.312156078039018894e+02 6.762971465083982068e-05
6.321160580290144253e+02 6.841554717102574820e-05
6.330165082541270749e+02 6.939365892810076756e-05
6.339169584792396108e+02 7.045656361795106157e-05
6.348174087043521467e+02 7.146965776819654849e-05
6.357178589294646827e+02 7.230227118635485265e-05
6.366183091545772186e+02 7.279825555285274056e-05
6.375187593796898682e+02 7.283695908098492368e-05
6.384192096048024041e+02 7.237254796700184271e-05
6.393196598299149400e+02 7.155119636417853191e-05
6.402201100550274759e+02 7.069433816775869941e-05
6.411205602801400119e+02 6.990161903551395052e-05
6.420210105052525478e+02 6.910776264002913211e-05
6.429214607303651974e+02 6.840577378627804648e-05
6.438219109554777333e+02 6.802526177326609542e-05
6.447223611805902692e+02 6.814456695868986551e-05
6.456228114057028051e+02 6.879162763634026536e-05
6.465232616308153411e+02 6.990439755579270250e-05
6.474237118559278770e+02 7.136990610180182597e-05
6.483241620810405266e+02 7.286476664523325753e-05
6.492246123061530625e+02 7.399657119809183756e-05
6.501250625312655984e+02 7.456042506396666806e-05
6.510255127563781343e+02 7.442560215954502519e-05
6.519259629814906702e+02 7.363431046853299649e-05
6.528264132066033198e+02 7.255372103120247154e-05
6.537268634317158558e+02 7.148395448622479214e-05
6.546273136568283917e+02 7.041685257348180907e-05
6.555277638819409276e+02 6.929983238086562475e-05
6.564282141070534635e+02 6.825095874787951377e-05
6.573286643321659994e+02 6.734195475432302362e-05
6.582291145572786490e+02 6.658217771816130721e-05
6.591295647823911850e+02 6.598806991011168176e-05
6.600300150075037209e+02 6.547492131236238265e-05
6.609304652326162568e+02 6.499560349140962002e-05
6.618309154577287927e+02 6.460106085095941705e-05
6.627313656828414423e+02 6.439797938446596942e-05
6.636318159079539782e+02 6.437458155822359262e-05
6.645322661330665142e+02 6.436819771106852290e-05
6.654327163581790501e+02 6.443386550399210911e-05
6.663331665832915860e+02 6.483470978992339311e-05
6.672336168084041219e+02 6.570473640053590709e-05
6.681340670335167715e+02 6.685600080190343662e-05
6.690345172586293074e+02 6.760809111594807291e-05
6.699349674837418434e+02 6.732112042798797712e-05
6.708354177088543793e+02 6.620678310273006464e-05
6.717358679339669152e+02 6.488004552201407120e-05
6.726363181590794511e+02 6.377672627137503795e-05
6.735367683841921007e+02 6.317865048707057738e-05
6.744372186093046366e+02 6.316605561519187957e-05
6.753376688344171725e+02 6.348680514010335968e-05
6.762381190595297085e+02 6.379704074415791114e-05
6.771385692846422444e+02 6.408568952741240188e-05
6.780390195097548940e+02 6.461754215818600242e-05
6.789394697348674299e+02 6.541992704944719569e-05
6.798399199599799658e+02 6.629964728281166999e-05
6.807403701850925017e+02 6.713529897943104293e-05
6.816408204102050377e+02 6.778084314597031018e-05
6.825412706353175736e+02 6.802610205601824741e-05
6.834417208604302232e+02 6.783732057621895319e-05
6.843421710855427591e+02 6.746319010892967108e-05
6.852426213106552950e+02 6.725610026936118134e-05
6.861430715357678309e+02 6.720605806824397270e-05
6.870435217608803669e+02 6.692290612185649657e-05
6.879439719859930165e+02 6.617655711234843926e-05
6.888444222111055524e+02 6.516733502872063520e-05
6.897448724362180883e+02 6.428074515634454769e-05
6.906453226613306242e+02 6.379608304442456479e-05
6.915457728864431601e+02 6.387252978687046174e-05
6.924462231115556961e+02 6.451216137307490479e-05
6.933466733366683457e+02 6.556586695836935208e-05
6.942471235617808816e+02 6.669168218159620797e-05
6.951475737868934175e+02 6.753661491366147853e-05
6.960480240120059534e+02 6.806832041160456952e-05
6.969484742371184893e+02 6.825045740946951867e-05
6.978489244622311389e+02 6.795905690686937148e-05
6.987493746873436749e+02 6.732996034678118873e-05
6.996498249124562108e+02 6.669225332673688435e-05
7.005502751375687467e+02 6.618435132518084979e-05
7.014507253626812826e+02 6.582293110516175712e-05
7.023511755877938185e+02 6.572837755144001360e-05
7.032516258129064681e+02 6.598555312290709494e-05
7.041520760380190040e+02 6.646517302984825658e-05
7.050525262631315400e+02 6.687842409030629457e-05
7.059529764882440759e+02 6.702853471013978191e-05
7.068534267133566118e+02 6.693532363072617628e-05
7.077538769384691477e+02 6.673812948945195421e-05
7.086543271635817973e+02 6.655685142549251914e-05
7.095547773886943332e+02 6.643059155355346900e-05
7.104552276138068692e+02 6.642118107765146928e-05
7.113556778389194051e+02 6.661020390107160578e-05
7.122561280640319410e+02 6.693647648490376305e-05
7.131565782891445906e+02 6.720297320324250599e-05
7.140570285142571265e+02 6.740143901235008748e-05
7.149574787393696624e+02 6.766819222564626540e-05
7.158579289644821984e+02 6.806698589573901171e-05
7.167583791895947343e+02 6.851685671499071670e-05
7.176588294147072702e+02 6.868912266997939133e-05
7.185592796398199198e+02 6.848204608046721360e-05
7.194597298649324557e+02 6.835469239099131928e-05
7.203601800900449916e+02 6.865709363265263307e-05
7.212606303151575275e+02 6.907521536415725169e-05
7.221610805402700635e+02 6.910769471111640676e-05
7.230615307653827131e+02 6.867526841554341557e-05
7.239619809904952490e+02 6.803012574617937642e-05
7.248624312156077849e+02 6.733111954447433209e-05
7.257628814407203208e+02 6.662492162225242302e-05
7.266633316658328567e+02 6.594459368323533509e-05
7.275637818909453927e+02 6.544657471085218742e-05
7.284642321160580423e+02 6.546755167779280563e-05
7.293646823411705782e+02 6.610708438399554151e-05
7.302651325662831141e+02 6.705986642277237731e-05
7.311655827913956500e+02 6.787884583861922782e-05
7.320660330165081859e+02 6.843087331346889789e-05
7.329664832416207219e+02 6.902917700312995967e-05
7.338669334667333715e+02 6.990238547982948966e-05
7.347673836918459074e+02 7.074045267183166322e-05
7.356678339169584433e+02 7.113383386393104123e-05
7.365682841420709792e+02 7.123288199207652624e-05
7.374687343671835151e+02 7.148577089563810721e-05
7.383691845922961647e+02 7.202057298893759288e-05
7.392696348174087007e+02 7.256550856622563856e-05
7.401700850425212366e+02 7.274233767115846606e-05
7.410705352676337725e+02 7.246942129549602089e-05
7.419709854927463084e+02 7.197846391498344905e-05
7.428714357178588443e+02 7.145879697984537898e-05
7.437718859429714939e+02 7.089835558527027857e-05
7.446723361680840299e+02 7.032266670361903807e-05
7.455727863931965658e+02 6.980940701626110333e-05
7.464732366183091017e+02 6.940290387584859553e-05
7.473736868434216376e+02 6.926008783443010218e-05
7.482741370685342872e+02 6.953388413428133053e-05
7.491745872936468231e+02 7.005308866511908525e-05
7.500750375187593590e+02 7.042784168527029042e-05
7.509754877438718950e+02 7.061653682528686276e-05
7.518759379689844309e+02 7.085568103820105170e-05
7.527763881940969668e+02 7.119383356125908726e-05
7.536768384192096164e+02 7.150059489771452132e-05
7.545772886443221523e+02 7.158001352692034964e-05
7.554777388694346882e+02 7.139212223076378311e-05
7.563781890945472242e+02 7.114518649238151210e-05
7.572786393196597601e+02 7.119738451323105917e-05
7.581790895447722960e+02 7.191298907897659715e-05
7.590795397698849456e+02 7.348059567647150848e-05
7.599799899949974815e+02 7.578974009218969704e-05
7.608804402201100174e+02 7.816651969634838440e-05
7.617808904452225534e+02 7.962369339864371249e-05
7.626813406703350893e+02 7.972578338371290644e-05
7.635817908954477389e+02 7.888429353178569585e-05
7.644822411205602748e+02 7.790081647837436769e-05
7.653826913456728107e+02 7.715841248896074896e-05
7.662831415707853466e+02 7.660803865907761664e-05
7.671835917958978825e+02 7.629431443774569604e-05
7.680840420210104185e+02 7.632908033341591141e-05
7.689844922461230681e+02 7.664913783802325322e-05
7.698849424712356040e+02 7.694815758130028568e-05
7.707853926963481399e+02 7.695984384609459630e-05
7.716858429214606758e+02 7.659979743216273167e-05
7.725862931465732117e+02 7.580618834839545923e-05
7.734867433716858613e+02 7.461169196135391916e-05
7.743871935967983973e+02 7.324786783311722953e-05
7.752876438219109332e+02 7.209240304563977776e-05
7.761880940470234691e+02 7.146583067407605457e-05
7.770885442721360050e+02 7.158601890855868083e-05
7.779889944972485409e+02 7.251888568679208116e-05
7.788894447223611905e+02 7.404558140912459376e-05
7.797898949474737265e+02 7.565423320921327050e-05
7.806903451725862624e+02 7.685058326103976487e-05
7.815907953976987983e+02 7.748710757191316770e-05
7.824912456228113342e+02 7.773714350919033505e-05
7.833916958479238701e+02 7.786263131924912374e-05
7.842921460730365197e+02 7.795911149476604637e-05
7.851925962981490557e+02 7.785103031573573161e-05
7.860930465232615916e+02 7.733457178555378875e-05
7.869934967483741275e+02 7.644765695426518001e-05
7.878939469734866634e+02 7.540163820766220622e-05
7.887943971985993130e+02 7.459526047377576757e-05
7.896948474237118489e+02 7.452929911238852126e-05
7.905952976488243849e+02 7.538433266655986229e-05
7.914957478739369208e+02 7.678406844148914540e-05
7.923961980990494567e+02 7.807906257789715121e-05
7.932966483241619926e+02 7.890051984902812982e-05
7.941970985492746422e+02 7.934438387016653409e-05
7.950975487743871781e+02 7.963580940532627038e-05
7.959979989994997140e+02 7.971642113441140842e-05
7.968984492246122500e+02 7.947435897575305891e-05
7.977988994497247859e+02 7.916565981565642216e-05
7.986993496748374355e+02 7.917503804062365677e-05
7.995997998999499714e+02 7.962496430946066055e-05
8.005002501250625073e+02 8.034049141384020949e-05
8.014007003501750432e+02 8.094055814143575971e-05
8.023011505752875792e+02 8.107369145344985029e-05
8.032016008004001151e+02 8.089014238348536602e-05
8.041020510255127647e+02 8.078643858234316774e-05
8.050025012506253006e+02 8.088649069614342450e-05
8.059029514757378365e+02 8.105215122389051563e-05
8.068034017008503724e+02 8.117532447999752587e-05
8.077038519259629084e+02 8.155974215339027993e-05
8.086043021510754443e+02 8.256975675137028263e-05
8.095047523761880939e+02 8.392376178449934845e-05
8.104052026013006298e+02 8.498233839762796033e-05
8.113056528264131657e+02 8.557321826150010276e-05
8.122061030515257016e+02 8.598599001207744201e-05
8.131065532766382375e+02 8.625151402778283391e-05
8.140070035017508872e+02 8.596743586441815146e-05
8.149074537268634231e+02 8.509954117764151099e-05
8.158079039519759590e+02 8.420663358718667615e-05
8.167083541770884949e+02 8.371681248475598398e-05
8.176088044022010308e+02 8.334865405589069441e-05
8.185092546273135667e+02 8.257547633767441098e-05
8.194097048524262163e+02 8.129270952588908542e-05
8.203101550775387523e+02 7.969551828970871938e-05
8.212106053026512882e+02 7.818281444678342980e-05
8.221110555277638241e+02 7.715315680057518045e-05
8.230115057528763600e+02 7.654326762072962928e-05
8.239119559779890096e+02 7.624061000896365892e-05
8.248124062031015455e+02 7.631401406513397385e-05
8.257128564282140815e+02 7.666672663180655112e-05
8.266133066533266174e+02 7.729742000524181017e-05
8.275137568784391533e+02 7.841169912682643701e-05
8.284142071035516892e+02 7.986568179653832976e-05
8.293146573286643388e+02 8.116605944091898560e-05
8.302151075537768747e+02 8.214174627991169947e-05
8.311155577788894107e+02 8.279856262802093010e-05
8.320160080040019466e+02 8.305563718551014878e-05
8.329164582291144825e+02 8.297577608190857422e-05
8.338169084542270184e+02 8.277560543815682260e-05
8.347173586793396680e+02 8.284342073238795440e-05
8.356178089044522039e+02 8.365147706989091859e-05
8.365182591295647399e+02 8.525941392131908638e-05
8.374187093546772758e+02 8.706283924076907053e-05
8.383191595797898117e+02 8.846894382766038920e-05
8.392196098049024613e+02 8.962601402043098736e-05
8.401200600300149972e+02 9.098839525821614824e-05
8.410205102551275331e+02 9.266835465440254006e-05
8.419209604802400690e+02 9.444687913450293111e-05
8.428214107053526050e+02 9.612230134443837447e-05
8.437218609304651409e+02 9.750722948796740688e-05
8.446223111555777905e+02 9.817913696138999308e-05
8.455227613806903264e+02 9.781707341834903916e-05
8.464232116058028623e+02 9.663202229562784711e-05
8.473236618309153982e+02 9.516994015811923956e-05
8.482241120560279342e+02 9.402529401397688327e-05
8.491245622811405838e+02 9.363637785361955061e-05
8.500250125062531197e+02 9.415057566372759515e-05
8.509254627313656556e+02 9.557679246398690916e-05
8.518259129564781915e+02 9.771075314572879081e-05
8.527263631815907274e+02 9.986703464190143287e-05
8.536268134067032634e+02 1.011427651921329113e-04
8.545272636318159130e+02 1.010239363867194230e-04
8.554277138569284489e+02 9.976513638586008892e-05
8.563281640820409848e+02 9.824722532854574897e-05
8.572286143071535207e+02 9.735725485851619114e-05
8.581290645322660566e+02 9.750491634515655369e-05
8.590295147573785925e+02 9.859004858079469067e-05
8.599299649824912422e+02 1.001392043184987091e-04
8.608304152076037781e+02 1.017781822146922961e-04
8.617308654327163140e+02 1.035073423476783196e-04
8.626313156578288499e+02 1.054204950687267941e-04
8.635317658829413858e+02 1.076283596888105221e-04
8.644322161080540354e+02 1.099043329613639484e-04
8.653326663331665713e+02 1.116690455468157808e-04
8.662331165582791073e+02 1.125217255440813464e-04
8.671335667833916432e+02 1.126216228905684480e-04
8.680340170085041791e+02 1.123598270285269059e-04
8.689344672336167150e+02 1.119379223189630206e-04
8.698349174587293646e+02 1.114711913280009317e-04
8.707353676838419005e+02 1.110325222652682538e-04
8.716358179089544365e+02 1.107509839187142801e-04
8.725362681340669724e+02 1.105609890948918854e-04
8.734367183591795083e+02 1.104058622176769597e-04
8.743371685842921579e+02 1.106883101788570269e-04
8.752376188094046938e+02 1.115165048862040465e-04
8.761380690345172297e+02 1.123946176855807251e-04
8.770385192596297657e+02 1.132360850955238329e-04
8.779389694847423016e+02 1.147002315720848953e-04
8.788394197098548375e+02 1.170833156161677261e-04
8.797398699349674871e+02 1.196853431800271240e-04
8.806403201600800230e+02 1.217263642272815746e-04
8.815407703851925589e+02 1.231657181045446364e-04
8.824412206103050949e+02 1.241337661507508727e-04
8.833416708354176308e+02 1.242716903004539408e-04
8.842421210605301667e+02 1.232155893412889103e-04
8.851425712856428163e+02 1.211503210885005996e-04
8.860430215107553522e+02 1.190652784832501448e-04
8.869434717358678881e+02 1.180374510848226742e-04
8.878439219609804240e+02 1.184530369141490233e-04
8.887443721860929600e+02 1.199045307523785526e-04
8.896448224112056096e+02 1.213779344113775650e-04
8.905452726363181455e+02 1.220526938065838159e-04
8.914457228614306814e+02 1.218216233670723009e-04
8.923461730865432173e+02 1.209623995342825687e-04
8.932466233116557532e+02 1.198197289776510425e-04
8.941470735367682892e+02 1.188871576950974201e-04
8.950475237618809388e+02 1.187963925540132948e-04
8.959479739869934747e+02 1.197087383626421590e-04
8.968484242121060106e+02 1.213066284829178692e-04
8.977488744372185465e+02 1.236010988439319115e-04
8.986493246623310824e+02 1.268457992476740347e-04
8.995497748874437320e+02 1.309117720934761971e-04
9.004502251125562680e+02 1.354860448146724640e-04
9.013506753376688039e+02 1.402098002588268147e-04
9.022511255627813398e+02 1.444094562447024381e-04
9.031515757878938757e+02 1.474053053214129029e-04
9.040520260130064116e+02 1.491452111566525431e-04
9.049524762381190612e+02 1.498938323890448810e-04
9.058529264632315972e+02 1.497057948787423670e-04
9.067533766883441331e+02 1.484988795806467619e-04
9.076538269134566690e+02 1.466593056856326698e-04
9.085542771385692049e+02 1.451104068831460703e-04
9.094547273636817408e+02 1.442954730312105422e-04
9.103551775887943904e+02 1.436662579261271011e-04
9.112556278139069263e+02 1.426945352574984663e-04
9.121560780390194623e+02 1.416189863486265390e-04
9.130565282641319982e+02 1.412479566655430328e-04
9.139569784892445341e+02 1.421135013660372820e-04
9.148574287143571837e+02 1.441604981704605333e-04
9.157578789394697196e+02 1.471021045017242249e-04
9.166583291645822555e+02 1.501260202842089834e-04
9.175587793896947915e+02 1.520956990809506121e-04
9.184592296148073274e+02 1.527089022866430675e-04
9.193596798399198633e+02 1.524711239053917766e-04
9.202601300650325129e+02 1.517923991720309459e-04
9.211605802901450488e+02 1.509411360804258485e-04
9.220610305152575847e+02 1.504589005276777249e-04
9.229614807403701207e+02 1.509388857690921720e-04
9.238619309654826566e+02 1.523486411565036882e-04
9.247623811905953062e+02 1.543299944594420190e-04
9.256628314157078421e+02 1.564784488451967024e-04
9.265632816408203780e+02 1.582576186372642722e-04
9.274637318659329139e+02 1.598369007506923289e-04
9.283641820910454499e+02 1.618458037390209283e-04
9.292646323161579858e+02 1.641405195229947574e-04
9.301650825412706354e+02 1.662094986142571764e-04
9.310655327663831713e+02 1.683180645169564036e-04
9.319659829914957072e+02 1.713562359014522934e-04
9.328664332166082431e+02 1.755505137384011968e-04
9.337668834417207790e+02 1.799785535810779677e-04
9.346673336668334287e+02 1.835112821802616860e-04
9.355677838919459646e+02 1.858057921337355185e-04
9.364682341170585005e+02 1.866653144141912455e-04
9.373686843421710364e+02 1.857719570001909197e-04
9.382691345672835723e+02 1.838791319098250691e-04
9.391695847923961082e+02 1.823971589203299075e-04
9.400700350175087578e+02 1.819326788319818565e-04
9.409704852426212938e+02 1.822133416113289040e-04
9.418709354677338297e+02 1.828852152698946917e-04
9.427713856928463656e+02 1.841253152191999344e-04
9.436718359179589015e+02 1.860198890410645037e-04
9.445722861430714374e+02 1.877227143441070629e-04
9.454727363681840870e+02 1.884994006331278680e-04
9.463731865932966230e+02 1.887830743954052939e-04
9.472736368184091589e+02 1.891040277646358026e-04
9.481740870435216948e+02 1.895107153478170806e-04
9.490745372686342307e+02 1.902211868033745203e-04
9.499749874937468803e+02 1.908935965801568878e-04
9.508754377188594162e+02 1.905995548159724435e-04
9.517758879439719522e+02 1.892408556729718741e-04
9.526763381690844881e+02 1.876552051123772289e-04
9.535767883941970240e+02 1.873411406103148082e-04
9.544772386193095599e+02 1.895213193984975899e-04
9.553776888444222095e+02 1.942405793136789882e-04
9.562781390695347454e+02 2.008795853848836322e-04
9.571785892946472813e+02 2.084496250637082946e-04
9.580790395197598173e+02 2.154662635225198998e-04
9.589794897448723532e+02 2.207612961933977261e-04
9.598799399699850028e+02 2.240992785963560104e-04
9.607803901950975387e+02 2.262535521659544426e-04
9.616808404202100746e+02 2.285516258113601045e-04
9.625812906453226105e+02 2.310281861021813926e-04
9.634817408704351465e+02 2.320748366015630104e-04
9.643821910955476824e+02 2.309973882323557799e-04
9.652826413206603320e+02 2.289211481665904462e-04
9.661830915457728679e+02 2.275098868726857569e-04
9.670835417708854038e+02 2.271696454137357951e-04
9.679839919959979397e+02 2.270508077104618446e-04
9.688844422211104757e+02 2.265160942716231524e-04
9.697848924462230116e+02 2.251932281207338069e-04
9.706853426713356612e+02 2.229771894105620129e-04
9.715857928964481971e+02 2.209371676251076038e-04
9.724862431215607330e+02 2.204564703064511777e-04
9.733866933466732689e+02 2.218833961539263167e-04
9.742871435717858049e+02 2.250606529017935733e-04
9.751875937968984545e+02 2.299882957445509540e-04
9.760880440220109904e+02 2.361587165313132981e-04
9.769884942471235263e+02 2.426070476152595711e-04
9.778889444722360622e+02 2.487483564789170478e-04
9.787893946973485981e+02 2.538825683242976498e-04
9.796898449224611340e+02 2.564798830743894868e-04
9.805902951475737837e+02 2.559605615208064241e-04
9.814907453726863196e+02 2.538671206982145664e-04
9.823911955977988555e+02 2.520642430033028956e-04
9.832916458229113914e+02 2.515394222009035294e-04
9.841920960480239273e+02 2.526333248775357266e-04
9.850925462731365769e+02 2.548655338227047429e-04
9.859929964982491128e+02 2.575706961943088425e-04
9.868934467233616488e+02 2.604004364411781607e-04
9.877938969484741847e+02 2.629893621462084060e-04
9.886943471735867206e+02 2.653770974853612180e-04
9.895947973986992565e+02 2.679393452475639062e-04
9.904952476238119061e+02 2.706626321600424847e-04
9.913956978489244420e+02 2.731320745558529599e-04
9.922961480740369780e+02 2.752703308933377260e-04
9.931965982991495139e+02 2.777090009395442394e-04
9.940970485242620498e+02 2.808680475370280063e-04
9.949974987493745857e+02 2.838939527475453682e-04
9.958979489744872353e+02 2.861698766237163972e-04
9.967983991995997712e+02 2.885479934749864681e-04
9.976988494247123072e+02 2.920137112254289039e-04
9.985992996498248431e+02 2.965868100112403153e-04
9.994997498749373790e+02 3.022008501254833828e-04
1.000400200100050029e+03 3.082728017274350427e-04
1.001300650325162565e+03 3.132313259312867037e-04
1.002201100550275100e+03 3.159207428693790458e-04
1.003101550775387636e+03 3.168345062510933424e-04
1.004002001000500172e+03 3.179627950802839213e-04
1.004902451225612708e+03 3.204042308943509383e-04
1.005802901450725358e+03 3.229467252862728882e-04
1.006703351675837894e+03 3.242236399924433208e-04
1.007603801900950430e+03 3.248963809452329603e-04
1.008504252126062966e+03 3.262497402283174707e-04
1.009404702351175501e+03 3.283579194273022377e-04
1.010305152576288151e+03 3.304121933656961564e-04
1.011205602801400687e+03 3.310551600141897451e-04
1.012106053026513223e+03 3.295891774150565821e-04
1.013006503251625759e+03 3.268183745622175464e-04
1.013906953476738295e+03 3.242238972926442145e-04
1.014807403701850831e+03 3.229591957040663921e-04
1.015707853926963480e+03 3.233310486538684215e-04
1.016608304152076016e+03 3.247453438381849022e-04
1.017508754377188552e+03 3.267914154850638298e-04
1.018409204602301088e+03 3.295610178123331221e-04
1.019309654827413624e+03 3.332509670143443009e-04
1.020210105052526160e+03 3.373753351965492835e-04
1.021110555277638809e+03 3.414415675045937731e-04
1.022011005502751345e+03 3.461613649109949705e-04
1.022911455727863881e+03 3.522038321856286644e-04
1.023811905952976417e+03 3.582562021511158813e-04
1.024712356178089067e+03 3.620404764096283234e-04
1.025612806403201603e+03 3.630601395237138818e-04
1.026513256628314139e+03 3.628089245630871144e-04
1.027413706853426675e+03 3.623066544429389790e-04
1.028314157078539210e+03 3.612670114544084621e-04
1.029214607303651746e+03 3.590274976990430467e-04
1.030115057528764282e+03 3.559976797907434313e-04
1.031015507753876818e+03 3.541496863410515381e-04
1.031915957978989354e+03 3.545325951346185202e-04
1.032816408204101890e+03 3.563776888157554174e-04
1.033716858429214653e+03 3.593145301673867807e-04
1.034617308654327189e+03 3.635422866042638777e-04
1.035517758879439725e+03 3.681984299829629457e-04
1.036418209104552261e+03 3.716543657752153086e-04
1.037318659329664797e+03 3.728603325863758975e-04
1.038219109554777333e+03 3.726745758361624749e-04
1.039119559779889869e+03 3.736426969651805946e-04
1.040020010005002405e+03 3.770319693699966559e-04
1.040920460230114941e+03 3.812619558396498150e-04
1.041820910455227477e+03 3.853980945146459592e-04
1.042721360680340013e+03 3.900636072715935347e-04
1.043621810905452776e+03 3.950542309183541971e-04
1.044522261130565312e+03 3.993451463904796597e-04
1.045422711355677848e+03 4.027612440833025216e-04
1.046323161580790384e+03 4.063102996863660055e-04
1.047223611805902920e+03 4.113621243315334817e-04
1.048124062031015455e+03 4.183840766033983726e-04
1.049024512256127991e+03 4.261748405190813401e-04
1.049924962481240527e+03 4.328410348866241326e-04
1.050825412706353063e+03 4.364737324674663934e-04
1.051725862931465599e+03 4.362190493834872682e-04
1.052626313156578135e+03 4.327479963282273136e-04
1.053526763381690898e+03 4.278858780592147202e-04
1.054427213606803434e+03 4.244835275096182025e-04
1.055327663831915970e+03 4.248294982883231950e-04
1.056228114057028506e+03 4.288620531439130590e-04
1.057128564282141042e+03 4.338868000234937677e-04
1.058029014507253578e+03 4.360840052633343589e-04
1.058929464732366114e+03 4.336449101082787898e-04
1.059829914957478650e+03 4.286296218171572049e-04
1.060730365182591186e+03 4.241280144653969950e-04
1.061630815407703722e+03 4.217656161329033757e-04
1.062531265632816257e+03 4.223462941171267967e-04
1.063431715857929021e+03 4.260457136383960486e-04
1.064332166083041557e+03 4.317370112038550808e-04
1.065232616308154093e+03 4.371777740929205336e-04
1.066133066533266629e+03 4.405376558253248334e-04
1.067033516758379164e+03 4.418168704121461536e-04
1.067933966983491700e+03 4.419992132087020441e-04
1.068834417208604236e+03 4.426838065942507853e-04
1.069734867433716772e+03 4.455005324385781854e-04
1.070635317658829308e+03 4.506879017871974502e-04
1.071535767883941844e+03 4.570214011021337124e-04
1.072436218109054380e+03 4.621838736143963895e-04
1.073336668334167143e+03 4.637835649487699499e-04
1.074237118559279679e+03 4.617059760038658600e-04
1.075137568784392215e+03 4.581347886849993769e-04
1.076038019009504751e+03 4.550543237324464869e-04
1.076938469234617287e+03 4.523658098755679044e-04
1.077838919459729823e+03 4.491964284282658052e-04
1.078739369684842359e+03 4.476497999115108318e-04
1.079639819909954895e+03 4.514483117954188208e-04
1.080540270135067431e+03 4.616116251136646712e-04
1.081440720360179967e+03 4.750964854203669268e-04
1.082341170585292502e+03 4.868744987864429084e-04
1.083241620810405038e+03 4.943888798770398364e-04
1.084142071035517802e+03 4.990747471975138898e-04
1.085042521260630338e+03 5.026961644369580410e-04
1.085942971485742873e+03 5.056743716801963967e-04
1.086843421710855409e+03 5.089441976802685282e-04
1.087743871935967945e+03 5.137839507232688525e-04
1.088644322161080481e+03 5.211266622907723654e-04
1.089544772386193017e+03 5.311099922329609287e-04
1.090445222611305553e+03 5.407203918532480511e-04
1.091345672836418089e+03 5.455957918175309866e-04
1.092246123061530625e+03 5.456717204222416790e-04
1.093146573286643161e+03 5.438707594659468458e-04
1.094047023511755924e+03 5.424473661488684326e-04
1.094947473736868460e+03 5.429570860879578877e-04
1.095847923961980996e+03 5.451962516732256243e-04
1.096748374187093532e+03 5.468212364395585393e-04
1.097648824412206068e+03 5.463846658009919406e-04
1.098549274637318604e+03 5.447724622498611178e-04
1.099449724862431140e+03 5.429153848698948940e-04
1.100350175087543676e+03 5.398738568497519173e-04
1.101250625312656211e+03 5.351474258634119491e-04
1.102151075537768747e+03 5.308595535980460472e-04
1.103051525762881283e+03 5.294483264202903914e-04
1.103951975987994047e+03 5.305719341563683343e-04
1.104852426213106583e+03 5.328299141812457493e-04
1.105752876438219118e+03 5.360498524906508015e-04
1.106653326663331654e+03 5.405532419315154432e-04
1.107553776888444190e+03 5.473442035756576974e-04
1.108454227113556726e+03 5.572601221743785386e-04
1.109354677338669262e+03 5.688471851410629998e-04
1.110255127563781798e+03 5.788572162009360646e-04
1.111155577788894334e+03 5.857131934315085164e-04
1.112056028014006870e+03 5.908570211943405242e-04
1.112956478239119406e+03 5.962765262540631892e-04
1.113856928464232169e+03 6.020608211185282796e-04
1.114757378689344705e+03 6.076397263982578293e-04
1.115657828914457241e+03 6.128215727566106328e-04
1.116558279139569777e+03 6.157443950041921075e-04
1.117458729364682313e+03 6.153257958600825972e-04
1.118359179589794849e+03 6.145252791693373755e-04
1.119259629814907385e+03 6.158453127605301039e-04
1.120160080040019920e+03 6.178250548857080809e-04
1.121060530265132456e+03 6.191489141470501870e-04
1.121960980490244992e+03 6.217663076009179862e-04
1.122861430715357528e+03 6.281435825827744006e-04
1.123761880940470292e+03 6.383708436509078973e-04
1.124662331165582827e+03 6.512930718620738545e-04
1.125562781390695363e+03 6.658059624044948555e-04
1.126463231615807899e+03 6.808467270195205740e-04
1.127363681840920435e+03 6.961852745148833623e-04
1.128264132066032971e+03 7.128828555145040428e-04
1.129164582291145507e+03 7.322928153341737127e-04
1.130065032516258043e+03 7.516180371804982762e-04
1.130965482741370579e+03 7.636752678204905120e-04
1.131865932966483115e+03 7.644803562483346504e-04
1.132766383191595651e+03 7.564092339654488904e-04
1.133666833416708187e+03 7.441618497123496552e-04
1.134567283641820950e+03 7.314125575804735152e-04
1.135467733866933486e+03 7.211254598450264012e-04
1.136368184092046022e+03 7.172857744102759375e-04
1.137268634317158558e+03 7.232506776083353706e-04
1.138169084542271094e+03 7.389708734600328524e-04
1.139069534767383630e+03 7.616155276539514482e-04
1.139969984992496165e+03 7.863955552414789423e-04
1.140870435217608701e+03 8.090190145963224288e-04
1.141770885442721237e+03 8.292539514105417772e-04
1.142671335667833773e+03 8.522246089309862055e-04
1.143571785892946309e+03 8.826729483201049874e-04
1.144472236118059072e+03 9.178096432579777074e-04
1.145372686343171608e+03 9.545524030745381611e-04
1.146273136568284144e+03 9.988640841011428486e-04
1.147173586793396680e+03 1.062714481466556921e-03
1.148074037018509216e+03 1.150625018546245441e-03
1.148974487243621752e+03 1.247359703731978475e-03
1.149874937468734288e+03 1.327308134005213310e-03
1.150775387693846824e+03 1.381501353595340114e-03
1.151675837918959360e+03 1.422845637244469488e-03
1.152576288144071896e+03 1.467810702515615941e-03
1.153476738369184432e+03 1.517572027434102317e-03
1.154377188594297195e+03 1.566160806046371177e-03
1.155277638819409731e+03 1.618445630965906299e-03
1.156178089044522267e+03 1.686054411987273488e-03
1.157078539269634803e+03 1.770749976302221423e-03
1.157978989494747339e+03 1.862818820040264018e-03
1.158879439719859874e+03 1.952305735086335651e-03
1.159779889944972410e+03 2.033019507020048400e-03
1.160680340170084946e+03 2.101994640696545121e-03
1.161580790395197482e+03 2.158206965362620758e-03
1.162481240620310018e+03 2.197659972523820400e-03
1.163381690845422554e+03 2.212648403850964174e-03
1.164282141070535317e+03 2.193302795607536288e-03
1.165182591295647853e+03 2.142543688264984727e-03
1.166083041520760389e+03 2.086615311040784272e-03
1.166983491745872925e+03 2.047994346348715796e-03
1.167883941970985461e+03 2.018627903262971198e-03
1.168784392196097997e+03 1.977242013172652354e-03
1.169684842421210533e+03 1.920180307287005150e-03
1.170585292646323069e+03 1.857473761661308570e-03
1.171485742871435605e+03 1.797771063644727600e-03
1.172386193096548141e+03 1.745807114714047117e-03
1.173286643321660677e+03 1.702218173187042532e-03
1.174187093546773440e+03 1.665833783645925738e-03
1.175087543771885976e+03 1.636263608476198460e-03
1.175987993996998512e+03 1.611072503730945479e-03
1.176888444222111048e+03 1.586029447542568411e-03
1.177788894447223583e+03 1.558915399955950864e-03
1.178689344672336119e+03 1.530033099737914629e-03
1.179589794897448655e+03 1.499096148405256075e-03
1.180490245122561191e+03 1.466783204116113917e-03
1.181390695347673727e+03 1.435881470667893728e-03
1.182291145572786263e+03 1.409090240525992565e-03
1.183191595797898799e+03 1.388054674110717011e-03
1.184092046023011562e+03 1.371582669514464581e-03
1.184992496248124098e+03 1.360564629247804557e-03
1.185892946473236634e+03 1.358850044833008605e-03
1.186793396698349170e+03 1.364538585273338900e-03
1.187693846923461706e+03 1.368481978196438732e-03
1.188594297148574242e+03 1.363487594580399921e-03
1.189494747373686778e+03 1.352603685277514603e-03
1.190395197598799314e+03 1.344400103199310361e-03
1.191295647823911850e+03 1.346142123605837846e-03
1.192196098049024386e+03 1.357638210583010869e-03
1.193096548274136921e+03 1.370147459526838835e-03
1.193996998499249457e+03 1.375338533595808202e-03
1.194897448724362221e+03 1.369408560528975359e-03
1.195797898949474757e+03 1.351768508507213053e-03
1.196698349174587293e+03 1.325079000669039534e-03
1.197598799399699828e+03 1.293184566036912394e-03
1.198499249624812364e+03 1.259999724769491746e-03
1.199399699849924900e+03 1.231021723617977716e-03
1.200300150075037436e+03 1.212377328042321548e-03
1.201200600300149972e+03 1.205273414773285574e-03
1.202101050525262508e+03 1.203387718310667447e-03
1.203001500750375044e+03 1.199068562193964741e-03
1.203901950975487580e+03 1.191836529245012552e-03
1.204802401200600343e+03 1.184875231117203231e-03
1.205702851425712879e+03 1.178439422833997075e-03
1.206603301650825415e+03 1.171442649068879993e-03
1.207503751875937951e+03 1.164019030743791488e-03
1.208404202101050487e+03 1.156972578553692186e-03
1.209304652326163023e+03 1.146899204541059706e-03
1.210205102551275559e+03 1.129683728303253675e-03
1.211105552776388095e+03 1.107117191165778430e-03
1.212006003001500630e+03 1.085593604239112669e-03
1.212906453226613166e+03 1.071739773494495606e-03
1.213806903451725702e+03 1.068538727261750341e-03
1.214707353676838466e+03 1.074483173627413871e-03
1.215607803901951002e+03 1.083792964574498271e-03
1.216508254127063537e+03 1.090080256885654674e-03
1.217408704352176073e+03 1.090248760014279851e-03
1.218309154577288609e+03 1.085881377918995706e-03
1.219209604802401145e+03 1.079429830242849969e-03
1.220110055027513681e+03 1.072018102617139498e-03
1.221010505252626217e+03 1.063916596921726928e-03
1.221910955477738753e+03 1.055164368549394490e-03
1.222811405702851289e+03 1.046621794785675390e-03
1.223711855927963825e+03 1.040811124729206991e-03
1.224612306153076588e+03 1.039802729894391065e-03
1.225512756378189124e+03 1.043530432757987193e-03
1.226413206603301660e+03 1.051195632406622723e-03
1.227313656828414196e+03 1.065813246524598785e-03
1.228214107053526732e+03 1.094975957339083426e-03
1.229114557278639268e+03 1.138414114887659851e-03
1.230015007503751804e+03 1.184111867595218819e-03
1.230915457728864340e+03 1.223486685507097025e-03
1.231815907953976875e+03 1.255243217916150039e-03
1.232716358179089411e+03 1.272189918290193844e-03
1.233616808404201947e+03 1.267096263521252887e-03
1.234517258629314711e+03 1.247616706449047267e-03
1.235417708854427246e+03 1.227377090772724172e-03
1.236318159079539782e+03 1.211416099221319627e-03
1.237218609304652318e+03 1.199002418745279781e-03
1.238119059529764854e+03 1.191092927128519288e-03
1.239019509754877390e+03 1.188223913418553655e-03
1.239919959979989926e+03 1.187034613325989177e-03
1.240820410205102462e+03 1.183394759962768002e-03
1.241720860430214998e+03 1.176790098612847746e-03
1.242621310655327534e+03 1.171036317593514070e-03
1.243521760880440070e+03 1.172335920603872258e-03
1.244422211105552606e+03 1.182536099430552641e-03
1.245322661330665369e+03 1.193472889398587006e-03
1.246223111555777905e+03 1.195915615407212038e-03
1.247123561780890441e+03 1.193067868162905193e-03
1.248024012006002977e+03 1.195824809515886244e-03
1.248924462231115513e+03 1.210052962323959758e-03
1.249824912456228049e+03 1.234624063336376863e-03
1.250725362681340584e+03 1.263166840954912939e-03
1.251625812906453120e+03 1.287330489434691501e-03
1.252526263131565656e+03 1.302540480834991866e-03
1.253426713356678192e+03 1.310200637546669400e-03
1.254327163581790728e+03 1.314322185282323051e-03
1.255227613806903491e+03 1.317354096366926339e-03
1.256128064032016027e+03 1.320910177148204752e-03
1.257028514257128563e+03 1.327015991979307473e-03
1.257928964482241099e+03 1.334845468014980371e-03
1.258829414707353635e+03 1.340675585917492415e-03
1.259729864932466171e+03 1.340833969214405390e-03
1.260630315157578707e+03 1.337878603766015943e-03
1.261530765382691243e+03 1.338350154912667849e-03
1.262431215607803779e+03 1.343291140889622598e-03
1.263331665832916315e+03 1.351313919546557642e-03
1.264232116058028851e+03 1.364940543339407788e-03
1.265132566283141614e+03 1.386785152825389467e-03
1.266033016508254150e+03 1.415769852867894895e-03
1.266933466733366686e+03 1.450187167705731597e-03
1.267833916958479222e+03 1.488119003472664200e-03
1.268734367183591758e+03 1.526329319900674624e-03
1.269634817408704293e+03 1.561515809128290059e-03
1.270535267633816829e+03 1.591687070320304750e-03
1.271435717858929365e+03 1.618674969426459531e-03
1.272336168084041901e+03 1.646021079428579498e-03
1.273236618309154437e+03 1.673105936030797177e-03
1.274137068534266973e+03 1.697246472427498725e-03
1.275037518759379736e+03 1.718311963748987226e-03
1.275937968984492272e+03 1.735846865817796672e-03
1.276838419209604808e+03 1.750037206991692526e-03
1.277738869434717344e+03 1.764072005329618683e-03
1.278639319659829880e+03 1.781308598115910208e-03
1.279539769884942416e+03 1.805690030955306880e-03
1.280440220110054952e+03 1.840111844182225603e-03
1.281340670335167488e+03 1.881204950746203589e-03
1.282241120560280024e+03 1.921188581346323183e-03
1.283141570785392560e+03 1.953485070939568920e-03
1.284042021010505096e+03 1.976695878335060601e-03
1.284942471235617859e+03 1.994654975983992627e-03
1.285842921460730395e+03 2.012230204960650717e-03
1.286743371685842931e+03 2.027799811999009532e-03
1.287643821910955467e+03 2.037149162838464318e-03
1.288544272136068003e+03 2.042506390226276562e-03
1.289444722361180538e+03 2.050304837859184999e-03
1.290345172586293074e+03 2.066199932564034142e-03
1.291245622811405610e+03 2.091986857736141767e-03
1.292146073036518146e+03 2.125491103685389020e-03
1.293046523261630682e+03 2.164109382947767678e-03
1.293946973486743218e+03 2.203867744757366000e-03
1.294847423711855754e+03 2.239740995254116580e-03
1.295747873936968517e+03 2.270367289632751074e-03
1.296648324162081053e+03 2.295371648861198322e-03
1.297548774387193589e+03 2.310934240848011405e-03
1.298449224612306125e+03 2.317422456505680451e-03
1.299349674837418661e+03 2.322521355033592937e-03
1.300250125062531197e+03 2.332243943508928007e-03
1.301150575287643733e+03 2.348158197377294993e-03
1.302051025512756269e+03 2.368683630773679282e-03
1.302951475737868805e+03 2.391240793233839063e-03
1.303851925962981340e+03 2.417318201342907955e-03
1.304752376188093876e+03 2.450967593218119668e-03
1.305652826413206640e+03 2.495008622435859313e-03
1.306553276638319176e+03 2.551055108126609652e-03
1.307453726863431712e+03 2.615850458392931979e-03
1.308354177088544247e+03 2.677637555318698650e-03
1.309254627313656783e+03 2.727530095775563840e-03
1.310155077538769319e+03 2.767603212350217695e-03
1.311055527763881855e+03 2.803076186940561387e-03
1.311955977988994391e+03 2.836506164888689865e-03
1.312856428214106927e+03 2.869366654259515419e-03
1.313756878439219463e+03 2.902875373006119555e-03
1.314657328664331999e+03 2.934087571942593266e-03
1.315557778889444762e+03 2.956832728273924623e-03
1.316458229114557298e+03 2.969783036578775744e-03
1.317358679339669834e+03 2.981408115403666719e-03
1.318259129564782370e+03 3.001780015993016706e-03
1.319159579789894906e+03 3.037125195377901685e-03
1.320060030015007442e+03 3.091726000769118646e-03
1.320960480240119978e+03 3.160258355148082374e-03
1.321860930465232514e+03 3.226424005136013882e-03
1.322761380690345050e+03 3.280436644871204035e-03
1.323661830915457585e+03 3.330419247647505628e-03
1.324562281140570121e+03 3.390185897356841598e-03
1.325462731365682885e+03 3.466899635552555745e-03
1.326363181590795421e+03 3.557723046895541318e-03
1.327263631815907956e+03 3.651820510847202713e-03
1.328164082041020492e+03 3.740650323494340568e-03
1.329064532266133028e+03 3.819208190489098605e-03
1.329964982491245564e+03 3.884030829385640149e-03
1.330865432716358100e+03 3.937362377525253920e-03
1.331765882941470636e+03 3.988425669555739281e-03
1.332666333166583172e+03 4.053062270152782594e-03
1.333566783391695708e+03 4.145204882194374399e-03
1.334467233616808244e+03 4.261564031281142410e-03
1.335367683841921007e+03 4.381628936598985259e-03
1.336268134067033543e+03 4.487510477964502288e-03
1.337168584292146079e+03 4.579718482888168671e-03
1.338069034517258615e+03 4.665396315066277361e-03
1.338969484742371151e+03 4.751541544749866494e-03
1.339869934967483687e+03 4.845916614816264331e-03
1.340770385192596223e+03 4.954901555380995803e-03
1.341670835417708759e+03 5.084101827099200485e-03
1.342571285642821294e+03 5.234142625786780689e-03
1.343471735867933830e+03 5.401458053095282118e-03
1.344372186093046366e+03 5.581322540161973850e-03
1.345272636318158902e+03 5.759240414406501841e-03
1.346173086543271666e+03 5.917369058063335838e-03
1.347073536768384201e+03 6.059961337107920565e-03
1.347973986993496737e+03 6.205364404822593521e-03
1.348874437218609273e+03 6.358869349942079287e-03
1.349774887443721809e+03 6.513544628793474338e-03
1.350675337668834345e+03 6.661172341528205816e-03
1.351575787893946881e+03 6.797689404717698579e-03
1.352476238119059417e+03 6.931826826926326332e-03
1.353376688344171953e+03 7.078601974160310915e-03
1.354277138569284489e+03 7.249383252014869779e-03
1.355177588794397025e+03 7.446634197741973556e-03
1.356078039019509788e+03 7.652796534629874130e-03
1.356978489244622324e+03 7.837405113525215683e-03
1.357878939469734860e+03 7.987522736380958319e-03
1.358779389694847396e+03 8.123107758302852005e-03
1.359679839919959932e+03 8.278856809738055489e-03
1.360580290145072468e+03 8.490397070606985758e-03
1.361480740370185003e+03 8.767627882124378810e-03
1.362381190595297539e+03 9.070696657651087721e-03
1.363281640820410075e+03 9.345815192164763641e-03
1.364182091045522611e+03 9.571758369618519474e-03
1.365082541270635147e+03 9.762051948354990780e-03
1.365982991495747910e+03 9.950298608769274356e-03
1.366883441720860446e+03 1.016327535204916699e-02
1.367783891945972982e+03 1.040362404859573181e-02
1.368684342171085518e+03 1.066240465530781702e-02
1.369584792396198054e+03 1.093236664766528837e-02
1.370485242621310590e+03 1.120476900232800048e-02
1.371385692846423126e+03 1.147492077711562142e-02
1.372286143071535662e+03 1.176381421315518191e-02
1.373186593296648198e+03 1.210879393929066225e-02
1.374087043521760734e+03 1.251542923030109743e-02
1.374987493746873270e+03 1.292319449508997665e-02
1.375887943971986033e+03 1.324508069586980211e-02
1.376788394197098569e+03 1.343571139019864198e-02
1.377688844422211105e+03 1.349642467861088442e-02
1.378589294647323641e+03 1.349307745617304467e-02
1.379489744872436177e+03 1.351850316596201959e-02
1.380390195097548713e+03 1.362501512057114755e-02
1.381290645322661248e+03 1.382041761483983680e-02
1.382191095547773784e+03 1.410181508778761070e-02
1.383091545772886320e+03 1.446519671831613015e-02
1.383991995997998856e+03 1.486779973876462338e-02
1.384892446223111392e+03 1.523119907274301903e-02
1.385792896448224155e+03 1.549244126539488925e-02
1.386693346673336691e+03 1.561197715519073437e-02
1.387593796898449227e+03 1.559726576093957255e-02
1.388494247123561763e+03 1.552067185856224538e-02
1.389394697348674299e+03 1.546189565432646781e-02
1.390295147573786835e+03 1.546472002994821703e-02
1.391195597798899371e+03 1.553795054642895593e-02
1.392096048024011907e+03 1.567841298394583374e-02
1.392996498249124443e+03 1.589989547730398523e-02
1.393896948474236979e+03 1.621406949098268616e-02
1.394797398699349515e+03 1.658154309931219803e-02
1.395697848924462278e+03 1.692852317355976119e-02
1.396598299149574814e+03 1.720920267100951168e-02
1.397498749374687350e+03 1.739463104131725238e-02
1.398399199599799886e+03 1.743607133746130980e-02
1.399299649824912422e+03 1.730536849786580914e-02
1.400200100050024957e+03 1.703346270020153833e-02
1.401100550275137493e+03 1.669449073731298777e-02
1.402001000500250029e+03 1.638148758518320758e-02
1.402901450725362565e+03 1.617026440096253417e-02
1.403801900950475101e+03 1.607295451731574273e-02
1.404702351175587637e+03 1.605765863631796603e-02
1.405602801400700173e+03 1.608907186276354803e-02
1.406503251625812936e+03 1.612408330295540468e-02
1.407403701850925472e+03 1.610799448502425041e-02
1.408304152076038008e+03 1.603479670161639739e-02
1.409204602301150544e+03 1.594675395010201543e-02
1.410105052526263080e+03 1.585862629270447244e-02
1.411005502751375616e+03 1.572064006302320224e-02
1.411905952976488152e+03 1.546679664256882421e-02
1.412806403201600688e+03 1.510570710050265081e-02
1.413706853426713224e+03 1.469451587051205828e-02
1.414607303651825760e+03 1.424445003451252009e-02
1.415507753876938295e+03 1.377939719754940617e-02
1.416408204102051059e+03 1.336029753759809813e-02
1.417308654327163595e+03 1.299153224128848927e-02
1.418209104552276131e+03 1.263722291631013198e-02
1.419109554777388666e+03 1.229697563275474956e-02
1.420010005002501202e+03 1.201349271428001249e-02
1.420910455227613738e+03 1.184044555589347167e-02
1.421810905452726274e+03 1.176224266761772934e-02
1.422711355677838810e+03 1.167522622253420496e-02
1.423611805902951346e+03 1.149915870114024720e-02
1.424512256128063882e+03 1.123492956222142680e-02
1.425412706353176418e+03 1.090937663843677581e-02
1.426313156578289181e+03 1.055877104555080596e-02
1.427213606803401717e+03 1.023182220752940665e-02
1.428114057028514253e+03 9.952678858613445492e-03
1.429014507253626789e+03 9.718767534423949223e-03
1.429914957478739325e+03 9.527293977524690580e-03
1.430815407703851861e+03 9.379689284024017928e-03
1.431715857928964397e+03 9.261504040075335675e-03
1.432616308154076933e+03 9.143530916668753464e-03
1.433516758379189469e+03 9.006277838921470519e-03
1.434417208604302004e+03 8.849105650057155145e-03
1.435317658829414540e+03 8.673233598126573254e-03
1.436218109054527304e+03 8.471322266311188259e-03
1.437118559279639840e+03 8.256954114701071934e-03
1.438019009504752376e+03 8.065756768014529024e-03
1.438919459729864911e+03 7.913087693731210570e-03
1.439819909954977447e+03 7.787444820214684503e-03
1.440720360180089983e+03 7.670999092364668391e-03
1.441620810405202519e+03 7.532742961716121059e-03
1.442521260630315055e+03 7.344516624824800125e-03
1.443421710855427591e+03 7.104561940633347811e-03
1.444322161080540127e+03 6.830807074217479756e-03
1.445222611305652663e+03 6.562633407606163240e-03
1.446123061530765426e+03 6.341417595066021866e-03
1.447023511755877962e+03 6.176751865311290793e-03
1.447923961980990498e+03 6.041875728566354319e-03
1.448824412206103034e+03 5.913328864645741971e-03
1.449724862431215570e+03 5.787674553791016113e-03
1.450625312656328106e+03 5.668118320354495303e-03
1.451525762881440642e+03 5.558905652328464952e-03
1.452426213106553178e+03 5.462569863502557237e-03
1.453326663331665713e+03 5.380916757874233333e-03
1.454227113556778249e+03 5.309181797956610133e-03
1.455127563781890785e+03 5.226223411156351480e-03
1.456028014007003321e+03 5.109856453388455545e-03
1.456928464232116085e+03 4.960143644638568411e-03
1.457828914457228620e+03 4.795188190579264750e-03
1.458729364682341156e+03 4.631385780392934318e-03
1.459629814907453692e+03 4.479301566149221890e-03
1.460530265132566228e+03 4.355653147378615517e-03
1.461430715357678764e+03 4.269741761476771036e-03
1.462331165582791300e+03 4.197208541396232548e-03
1.463231615807903836e+03 4.109031035082140286e-03
1.464132066033016372e+03 4.005629033717297317e-03
1.465032516258128908e+03 3.906595575062826904e-03
1.465932966483241444e+03 3.825458640817429833e-03
1.466833416708354207e+03 3.752776333281286885e-03
1.467733866933466743e+03 3.668580323410254151e-03
1.468634317158579279e+03 3.567165326294966486e-03
1.469534767383691815e+03 3.454362728171946235e-03
1.470435217608804351e+03 3.337563171648452818e-03
1.471335667833916887e+03 3.224607824794018668e-03
1.472236118059029423e+03 3.122472464036553808e-03
1.473136568284141958e+03 3.036869014665011159e-03
1.474037018509254494e+03 2.966927980868681262e-03
1.474937468734367030e+03 2.903236006715279819e-03
1.475837918959479566e+03 2.838364175468326405e-03
1.476738369184592329e+03 2.773220156611234683e-03
1.477638819409704865e+03 2.711201296972276086e-03
1.478539269634817401e+03 2.653585568949575358e-03
1.479439719859929937e+03 2.602422836407894836e-03
1.480340170085042473e+03 2.561312202920135173e-03
1.481240620310155009e+03 2.529965618587702667e-03
1.482141070535267545e+03 2.497920639255129562e-03
1.483041520760380081e+03 2.453631920164611128e-03
1.483941970985492617e+03 2.401486599305053486e-03
1.484842421210605153e+03 2.352170448285618477e-03
1.485742871435717689e+03 2.306208488228530216e-03
1.486643321660830452e+03 2.261260042968658325e-03
1.487543771885942988e+03 2.225807820289795944e-03
1.488444222111055524e+03 2.211596850415885416e-03
1.489344672336168060e+03 2.217319487216128700e-03
1.490245122561280596e+03 2.227789588064371488e-03
1.491145572786393132e+03 2.224810628506451553e-03
1.492046023011505667e+03 2.194201701589233548e-03
1.492946473236618203e+03 2.133177500693484059e-03
1.493846923461730739e+03 2.055829074109180934e-03
1.494747373686843275e+03 1.981018189860896291e-03
1.495647823911955811e+03 1.918948281417167962e-03
1.496548274137068574e+03 1.870632662578261465e-03
1.497448724362181110e+03 1.835224266210956157e-03
1.498349174587293646e+03 1.813593862744800576e-03
1.499249624812406182e+03 1.802391483592377056e-03
1.500150075037518718e+03 1.795147140282238058e-03
1.501050525262631254e+03 1.788488604501559456e-03
1.501950975487743790e+03 1.778363360451760489e-03
1.502851425712856326e+03 1.757752495659013195e-03
1.503751875937968862e+03 1.724561654820745910e-03
1.504652326163081398e+03 1.687093133246657817e-03
1.505552776388193934e+03 1.655119093633335712e-03
1.506453226613306470e+03 1.628852359090742679e-03
1.507353676838419233e+03 1.603151501063340050e-03
1.508254127063531769e+03 1.573648671463547064e-03
1.509154577288644305e+03 1.539933090381669437e-03
1.510055027513756841e+03 1.505526172841905371e-03
1.510955477738869376e+03 1.475535012383756605e-03
1.511855927963981912e+03 1.451499189617244624e-03
1.512756378189094448e+03 1.430346480608995184e-03
1.513656828414206984e+03 1.410137178928937097e-03
1.514557278639319520e+03 1.391504276448552423e-03
1.515457728864432056e+03 1.377328706655947012e-03
1.516358179089544592e+03 1.370593955286173544e-03
1.517258629314657355e+03 1.366994459229739587e-03
1.518159079539769891e+03 1.356921718235331318e-03
1.519059529764882427e+03 1.336592209716906112e-03
1.519959979989994963e+03 1.312206967761727749e-03
1.520860430215107499e+03 1.291720656403025358e-03
1.521760880440220035e+03 1.276177346496135036e-03
1.522661330665332571e+03 1.264338938599378608e-03
1.523561780890445107e+03 1.255409065368123106e-03
1.524462231115557643e+03 1.247433760501878968e-03
1.525362681340670179e+03 1.237895448032272231e-03
1.526263131565782714e+03 1.222749039471660287e-03
1.527163581790895478e+03 1.197528207591735472e-03
1.528064032016008014e+03 1.161337637818512765e-03
1.528964482241120550e+03 1.120767380477844270e-03
1.529864932466233086e+03 1.085060307868668380e-03
1.530765382691345621e+03 1.060894037407437334e-03
1.531665832916458157e+03 1.049327691534976056e-03
1.532566283141570693e+03 1.044282810629434347e-03
1.533466733366683229e+03 1.037417157738145142e-03
1.534367183591795765e+03 1.024852204676174154e-03
1.535267633816908301e+03 1.005871558511622563e-03
1.536168084042020837e+03 9.805701899576911226e-04
1.537068534267133600e+03 9.498465060569829524e-04
1.537968984492246136e+03 9.150860895721296207e-04
1.538869434717358672e+03 8.819853011096823875e-04
1.539769884942471208e+03 8.573819424074020576e-04
1.540670335167583744e+03 8.413202763484058577e-04
1.541570785392696280e+03 8.264912981691380873e-04
1.542471235617808816e+03 8.057407951374551125e-04
1.543371685842921352e+03 7.803084513885931266e-04
1.544272136068033888e+03 7.561467157485312653e-04
1.545172586293146423e+03 7.388182206085534788e-04
1.546073036518258959e+03 7.317986190977270522e-04
1.546973486743371723e+03 7.356405500404116253e-04
1.547873936968484259e+03 7.446642395616221918e-04
1.548774387193596795e+03 7.480776518012145510e-04
1.549674837418709330e+03 7.400036120208016962e-04
1.550575287643821866e+03 7.231590726984591429e-04
1.551475737868934402e+03 7.013599722239381067e-04
1.552376188094046938e+03 6.723080355556748742e-04
1.553276638319159474e+03 6.349228437606193199e-04
1.554177088544272010e+03 5.949105922549885765e-04
1.555077538769384546e+03 5.589733648063538972e-04
1.555977988994497082e+03 5.295263595075036262e-04
1.556878439219609618e+03 5.049405051353008300e-04
1.557778889444722381e+03 4.832342731681908417e-04
1.558679339669834917e+03 4.635197762539216204e-04
1.559579789894947453e+03 4.456683667773614962e-04
1.560480240120059989e+03 4.300839942879017361e-04
1.561380690345172525e+03 4.156767117533901896e-04
1.562281140570285061e+03 3.996286047235231721e-04
1.563181590795397597e+03 3.808941637296137995e-04
1.564082041020510133e+03 3.598606980973294961e-04
1.564982491245622668e+03 3.367558271987969244e-04
1.565882941470735204e+03 3.132687035449198691e-04
1.566783391695847740e+03 2.918126079599510630e-04
1.567683841920960504e+03 2.735565945143081661e-04
1.568584292146073039e+03 2.587001510914223594e-04
1.569484742371185575e+03 2.462548584382958749e-04
1.570385192596298111e+03 2.350995539465257822e-04
1.571285642821410647e+03 2.261805906444285278e-04
1.572186093046523183e+03 2.199136606849653075e-04
1.573086543271635719e+03 2.139799152507869623e-04
1.573986993496748255e+03 2.046135257009091017e-04
1.574887443721860791e+03 1.898530187972802740e-04
1.575787893946973327e+03 1.722791202057959549e-04
1.576688344172085863e+03 1.563927923934955078e-04
1.577588794397198626e+03 1.444954123078142651e-04
1.578489244622311162e+03 1.365665976337987247e-04
1.579389694847423698e+03 1.318325670035474335e-04
1.580290145072536234e+03 1.297912942656368189e-04
1.581190595297648770e+03 1.298731615582859227e-04
1.582091045522761306e+03 1.304169579686643076e-04
1.582991495747873842e+03 1.295801712377206611e-04
1.583891945972986377e+03 1.273135508797967408e-04
1.584792396198098913e+03 1.240163587841691900e-04
1.585692846423211449e+03 1.193638260767239411e-04
1.586593296648323985e+03 1.139394058623903754e-04
1.587493746873436749e+03 1.087803220283316524e-04
1.588394197098549284e+03 1.040063697159506780e-04
1.589294647323661820e+03 9.929001325581200904e-05
1.590195097548774356e+03 9.429790375198379433e-05
1.591095547773886892e+03 8.924714036200302074e-05
1.591995997998999428e+03 8.487965942903952926e-05
1.592896448224111964e+03 8.157425603728829674e-05
1.593796898449224500e+03 7.908482078370511188e-05
1.594697348674337036e+03 7.677546367669146638e-05
1.595597798899449572e+03 7.414903807889504242e-05
1.596498249124562108e+03 7.128424324118895418e-05
1.597398699349674871e+03 6.856322105973750535e-05
1.598299149574787407e+03 6.620364661094538651e-05
1.599199599799899943e+03 6.420944006591747103e-05
1.600100050025012479e+03 6.250803567385786175e-05
1.601000500250125015e+03 6.102701010108957163e-05
1.601900950475237551e+03 5.971200362124999469e-05
1.602801400700350086e+03 5.852521200153674763e-05
1.603701850925462622e+03 5.744076872055799891e-05
1.604602301150575158e+03 5.644099091128958136e-05
1.605502751375687694e+03 5.551390105102210016e-05
1.606403201600800230e+03 5.465174897285466547e-05
1.607303651825912766e+03 5.385026487989449500e-05
1.608204102051025529e+03 5.310849619057767370e-05
1.609104552276138065e+03 5.242918709559754164e-05
1.610005002501250601e+03 5.181967165115903992e-05
1.610905452726363137e+03 5.129289497508405604e-05
1.611805902951475673e+03 5.086648736172807918e-05
1.612706353176588209e+03 5.055270575264085770e-05
1.613606803401700745e+03 5.032611355035882542e-05
1.614507253626813281e+03 5.008115293561918286e-05
1.615407703851925817e+03 4.967374160070798427e-05
1.616308154077038353e+03 4.909328269536688400e-05
1.617208604302150889e+03 4.851363082364871002e-05
1.618109054527263652e+03 4.810913237953824933e-05
1.619009504752376188e+03 4.794812186238255985e-05
1.619909954977488724e+03 4.798217627907753265e-05
1.620810405202601260e+03 4.802171020364919945e-05
1.621710855427713796e+03 4.779207729557889250e-05
1.622611305652826331e+03 4.709626594844984454e-05
1.623511755877938867e+03 4.603199959285790896e-05
1.624412206103051403e+03 4.492937563932113127e-05
1.625312656328163939e+03 4.401119165928474541e-05
1.626213106553276475e+03 4.333024057274693821e-05
1.627113556778389011e+03 4.287036526743539936e-05
1.628014007003501774e+03 4.258806844209866093e-05
1.628914457228614310e+03 4.239120015353833686e-05
1.629814907453726846e+03 4.216604738348452870e-05
1.630715357678839382e+03 4.192791079942391160e-05
1.631615807903951918e+03 4.183663441448972302e-05
1.632516258129064454e+03 4.202800409187791017e-05
1.633416708354176990e+03 4.250294868320254567e-05
1.634317158579289526e+03 4.302024445284477147e-05
1.635217608804402062e+03 4.306903572399436390e-05
1.636118059029514598e+03 4.226241757252315235e-05
1.637018509254627133e+03 4.084526843916820512e-05
1.637918959479739897e+03 3.936733235563910134e-05
1.638819409704852433e+03 3.811589685778223697e-05
1.639719859929964969e+03 3.711894247466790853e-05
1.640620310155077505e+03 3.632051961674748859e-05
1.641520760380190040e+03 3.566241281389213820e-05
1.642421210605302576e+03 3.510182535538445523e-05
1.643321660830415112e+03 3.461003218264136730e-05
1.644222111055527648e+03 3.416815746195625683e-05
1.645122561280640184e+03 3.376376544487995351e-05
1.646023011505752720e+03 3.338859513591395172e-05
1.646923461730865256e+03 3.303714234975748570e-05
1.647823911955978019e+03 3.270579483976139784e-05
1.648724362181090555e+03 3.239232254491250214e-05
1.649624812406203091e+03 3.209560691937433946e-05
1.650525262631315627e+03 3.181555151104256332e-05
1.651425712856428163e+03 3.155315972556414262e-05
1.652326163081540699e+03 3.131080536193526625e-05
1.653226613306653235e+03 3.109276410246729989e-05
1.654127063531765771e+03 3.090611395489908399e-05
1.655027513756878307e+03 3.076208762168315122e-05
1.655927963981990843e+03 3.067757832508842520e-05
1.656828414207103378e+03 3.067466034594938760e-05
1.657728864432216142e+03 3.076961297302596460e-05
1.658629314657328678e+03 3.093067493901285880e-05
1.659529764882441214e+03 3.100534613920639401e-05
1.660430215107553749e+03 3.077278762821516751e-05
1.661330665332666285e+03 3.022347011007841045e-05
1.662231115557778821e+03 2.957374836633640228e-05
1.663131565782891357e+03 2.898405338991695746e-05
1.664032016008003893e+03 2.849100796792896161e-05
1.664932466233116429e+03 2.807915047721905400e-05
1.665832916458228965e+03 2.772577756431797286e-05
1.666733366683341501e+03 2.741308370992723791e-05
1.667633816908454037e+03 2.712891031178142116e-05
1.668534267133566800e+03 2.686523821431722380e-05
1.669434717358679336e+03 2.661677196750922468e-05
1.670335167583791872e+03 2.637996074488415052e-05
1.671235617808904408e+03 2.615237351268246647e-05
1.672136068034016944e+03 2.593230787359387932e-05
1.673036518259129480e+03 2.571854428067849374e-05
1.673936968484242016e+03 2.551018952955138008e-05
1.674837418709354552e+03 2.530657537094544918e-05
1.675737868934467087e+03 2.510719160491106734e-05
1.676638319159579623e+03 2.491164110395541778e-05
1.677538769384692159e+03 2.471960903010720766e-05
1.678439219609804923e+03 2.453084140328841322e-05
1.679339669834917459e+03 2.434512993752558111e-05
1.680240120060029994e+03 2.416230114803723919e-05
1.681140570285142530e+03 2.398220841426479768e-05
1.682041020510255066e+03 2.380472611910565688e-05
1.682941470735367602e+03 2.362974526676772926e-05
1.683841920960480138e+03 2.345717016745937005e-05
1.684742371185592674e+03 2.328691590127343383e-05
1.685642821410705210e+03 2.311890635775952675e-05
1.686543271635817746e+03 2.295307270545359808e-05
1.687443721860930282e+03 2.278935218581527552e-05
1.688344172086043045e+03 2.262768715430072379e-05
1.689244622311155581e+03 2.246802431142526100e-05
1.690145072536268117e+03 2.231031408114325299e-05
1.691045522761380653e+03 2.215451010440166942e-05
1.691945972986493189e+03 2.200056882343146841e-05
1.692846423211605725e+03 2.184844913806319549e-05
1.693746873436718261e+03 2.169811211960951332e-05
1.694647323661830796e+03 2.154952077108073511e-05
1.695547773886943332e+03 2.140263982492117322e-05
1.696448224112055868e+03 2.125743557133302661e-05
1.697348674337168404e+03 2.111387571166891978e-05
1.698249124562281168e+03 2.097192923250368397e-05
1.699149574787393703e+03 2.083156629684684266e-05
1.700050025012506239e+03 2.069275814964511556e-05
1.700950475237618775e+03 2.055547703525828214e-05
1.701850925462731311e+03 2.041969612501873187e-05
1.702751375687843847e+03 2.028538945332212701e-05
1.703651825912956383e+03 2.015253186097157106e-05
1.704552276138068919e+03 2.002109894471829413e-05
1.705452726363181455e+03 1.989106701211570830e-05
1.706353176588293991e+03 1.976241304095389861e-05
1.707253626813406527e+03 1.963511464265627670e-05
1.708154077038519290e+03 1.950915002911843068e-05
1.709054527263631826e+03 1.938449798255088244e-05
1.709954977488744362e+03 1.926113782795102171e-05
1.710855427713856898e+03 1.913904940788735873e-05
1.711755877938969434e+03 1.901821305932360165e-05
1.712656328164081970e+03 1.889860959224918085e-05
1.713556778389194506e+03 1.878022026991635744e-05
1.714457228614307041e+03 1.866302679050704902e-05
1.715357678839419577e+03 1.854701127008271367e-05
1.716258129064532113e+03 1.843215622668301743e-05
1.717158579289644649e+03 1.831844456546079567e-05
1.718059029514757185e+03 1.820585956475234896e-05
1.718959479739869948e+03 1.809438486299585268e-05
1.719859929964982484e+03 1.798400444641853711e-05
1.720760380190095020e+03 1.787470263742840584e-05
1.721660830415207556e+03 1.776646408364407486e-05
1.722561280640320092e+03 1.765927374751479043e-05
1.723461730865432628e+03 1.755311689647920381e-05
1.724362181090545164e+03 1.744797909362062944e-05
1.725262631315657700e+03 1.734384618878132364e-05
1.726163081540770236e+03 1.724070431010115068e-05
1.727063531765882772e+03 1.713853985594927887e-05
1.727963981990995308e+03 1.703733948722125952e-05
1.728864432216108071e+03 1.693709011997684356e-05
1.729764882441220607e+03 1.683777891839391091e-05
1.730665332666333143e+03 1.673939328802070105e-05
1.731565782891445679e+03 1.664192086930396631e-05
1.732466233116558215e+03 1.654534953137877366e-05
1.733366683341670750e+03 1.644966736610224177e-05
1.734267133566783286e+03 1.635486268231762703e-05
1.735167583791895822e+03 1.626092400033487051e-05
1.736068034017008358e+03 1.616784004661721790e-05
1.736968484242120894e+03 1.607559974865924851e-05
1.737868934467233430e+03 1.598419223004972017e-05
1.738769384692346193e+03 1.589360680570656839e-05
1.739669834917458729e+03 1.580383297727736165e-05
1.740570285142571265e+03 1.571486042869527864e-05
1.741470735367683801e+03 1.562667902188406507e-05
1.742371185592796337e+03 1.553927879260412313e-05
1.743271635817908873e+03 1.545264994643375688e-05
1.744172086043021409e+03 1.536678285487871944e-05
1.745072536268133945e+03 1.528166805160352621e-05
1.745972986493246481e+03 1.519729622878175089e-05
1.746873436718359017e+03 1.511365823355663218e-05
1.747773886943471553e+03 1.503074506461030072e-05
1.748674337168584316e+03 1.494854786883442794e-05
1.749574787393696852e+03 1.486705793810046745e-05
1.750475237618809388e+03 1.478626670612398479e-05
1.751375687843921924e+03 1.470616574541885234e-05
1.752276138069034459e+03 1.462674676433977444e-05
1.753176588294146995e+03 1.454800160420767954e-05
1.754077038519259531e+03 1.446992223651570916e-05
1.754977488744372067e+03 1.439250076021239018e-05
1.755877938969484603e+03 1.431572939906033207e-05
1.756778389194597139e+03 1.423960049906508539e-05
1.757678839419709675e+03 1.416410652597472772e-05
1.758579289644822438e+03 1.408924006284542484e-05
1.759479739869934974e+03 1.401499380767110224e-05
1.760380190095047510e+03 1.394136057107578177e-05
1.761280640320160046e+03 1.386833327406570864e-05
1.762181090545272582e+03 1.379590494583919531e-05
1.763081540770385118e+03 1.372406872165270999e-05
1.763981990995497654e+03 1.365281784074059255e-05
1.764882441220610190e+03 1.358214564428793014e-05
1.765782891445722726e+03 1.351204557345320287e-05
1.766683341670835262e+03 1.344251116744042325e-05
1.767583791895947797e+03 1.337353606161824701e-05
1.768484242121060333e+03 1.330511398568566735e-05
1.769384692346173097e+03 1.323723876188167868e-05
1.770285142571285633e+03 1.316990430323823388e-05
1.771185592796398169e+03 1.310310461187452664e-05
1.772086043021510704e+03 1.303683377733299182e-05
1.772986493246623240e+03 1.297108597495281248e-05
1.773886943471735776e+03 1.290585546428349153e-05
1.774787393696848312e+03 1.284113658753384804e-05
1.775687843921960848e+03 1.277692376805753412e-05
1.776588294147073384e+03 1.271321150887377327e-05
1.777488744372185920e+03 1.264999439122107189e-05
1.778389194597298456e+03 1.258726707314465803e-05
1.779289644822411219e+03 1.252502428811516043e-05
1.780190095047523755e+03 1.246326084367890718e-05
1.781090545272636291e+03 1.240197162013828912e-05
1.781990995497748827e+03 1.234115156926060882e-05
1.782891445722861363e+03 1.228079571301676895e-05
1.783791895947973899e+03 1.222089914234719438e-05
1.784692346173086435e+03 1.216145701595380397e-05
1.785592796398198971e+03 1.210246455911978871e-05
1.786493246623311506e+03 1.204391706255387596e-05
1.787393696848424042e+03 1.198580988125974713e-05
1.788294147073536578e+03 1.192813843342955683e-05
1.789194597298649342e+03 1.187089819936166873e-05
1.790095047523761878e+03 1.181408472039999410e-05
1.790995497748874413e+03 1.175769359789710832e-05
1.791895947973986949e+03 1.170172049219834836e-05
1.792796398199099485e+03 1.164616112164710467e-05
1.793696848424212021e+03 1.159101126161134661e-05
1.794597298649324557e+03 1.153626674352950078e-05
1.795497748874437093e+03 1.148192345397658026e-05
1.796398199099549629e+03 1.142797733374949916e-05
1.797298649324662165e+03 1.137442437697045434e-05
1.798199099549774701e+03 1.132126063020901983e-05
1.799099549774887464e+03 1.126848219162195265e-05
1.800000000000000000e+03 1.121608521010998680e-05
