0.000000000000000000e+00 6.986899543663733147e-04
9.004502251125562351e-01 1.041489678520948455e-03
1.800900450225112470e+00 1.582191968620635892e-03
2.701350675337668594e+00 2.186019827186359756e-03
3.601800900450224940e+00 2.325862650667892551e-03
4.502251125562780842e+00 2.025516210059135659e-03
5.402701350675337189e+00 1.861149585041035892e-03
6.303151575787893535e+00 1.978246853082359872e-03
7.203601800900449881e+00 1.991535091219324635e-03
8.104052026013006227e+00 1.607653816385922092e-03
9.004502251125561685e+00 1.136371282676128334e-03
9.904952476238118919e+00 7.726057605596101845e-04
1.080540270135067438e+01 5.364432155205189120e-04
1.170585292646323161e+01 3.896094124079717215e-04
1.260630315157578707e+01 2.956968962888155417e-04
1.350675337668834430e+01 2.321580395589584265e-04
1.440720360180089976e+01 1.869412384579393325e-04
1.530765382691345522e+01 1.540647497491385133e-04
1.620810405202601245e+01 1.299138105641013815e-04
1.710855427713856969e+01 1.121742215309591182e-04
1.800900450225112337e+01 9.885125849302031620e-05
1.890945472736368060e+01 8.722084696313894088e-05
1.980990495247623784e+01 7.602316653807777579e-05
2.071035517758879507e+01 6.626476166375126309e-05
2.161080540270134875e+01 5.836808734747661717e-05
2.251125562781390599e+01 5.199589108777247123e-05
2.341170585292646322e+01 4.675530876748435415e-05
2.431215607803901690e+01 4.236946123972509782e-05
2.521260630315157414e+01 3.865201015473009966e-05
2.611305652826413137e+01 3.547778310261348237e-05
2.701350675337668861e+01 3.277472836911038840e-05
2.791395697848924229e+01 3.050860197603971481e-05
2.881440720360179952e+01 2.864881718255453543e-05
2.971485742871435676e+01 2.707467830760270833e-05
3.061530765382691044e+01 2.561234904157959320e-05
3.151575787893946767e+01 2.414942623756496310e-05
3.241620810405202491e+01 2.248174035300244580e-05
3.331665832916458214e+01 2.081402787341294285e-05
3.421710855427713938e+01 1.941571273233981131e-05
3.511755877938969661e+01 1.829538097470730047e-05
3.601800900450224674e+01 1.735544229265136197e-05
3.691845922961480397e+01 1.642995452615518388e-05
3.781890945472736121e+01 1.549060882161058719e-05
3.871935967983991844e+01 1.464250253809825888e-05
3.961980990495247568e+01 1.391274746846514437e-05
4.052026013006503291e+01 1.328540379444350549e-05
4.142071035517759015e+01 1.274810773899036435e-05
4.232116058029014027e+01 1.229903607980162056e-05
4.322161080540269751e+01 1.194912956822838822e-05
4.412206103051525474e+01 1.172833247406147243e-05
4.502251125562781198e+01 1.169812008533177664e-05
4.592296148074036921e+01 1.196360336853335594e-05
4.682341170585292645e+01 1.260723523380937003e-05
4.772386193096548368e+01 1.336201243079368228e-05
4.862431215607803381e+01 1.347455094011812048e-05
4.952476238119059104e+01 1.268634390927757346e-05
5.042521260630314828e+01 1.174997093865200571e-05
5.132566283141570551e+01 1.092618147230916132e-05
5.222611305652826275e+01 1.010226278737018859e-05
5.312656328164081998e+01 9.467003898553676328e-06
5.402701350675337721e+01 9.077012418600628971e-06
5.492746373186592734e+01 8.699580724153090680e-06
5.582791395697848458e+01 8.237811465447246643e-06
5.672836418209104181e+01 7.868188176075236639e-06
5.762881440720359905e+01 7.657332610904176188e-06
5.852926463231615628e+01 7.514231587158015168e-06
5.942971485742871351e+01 7.347220562778589704e-06
6.033016508254127075e+01 7.202822108871965399e-06
6.123061530765382088e+01 7.211928948422494861e-06
6.213106553276637811e+01 7.377544055674150476e-06
6.303151575787893535e+01 7.518435821656675962e-06
6.393196598299149258e+01 7.520975756544263781e-06
6.483241620810404982e+01 7.434817130052009138e-06
6.573286643321659994e+01 7.222355141217606461e-06
6.663331665832916428e+01 6.873652250942570793e-06
6.753376688344171441e+01 6.477675701414354637e-06
6.843421710855427875e+01 6.222110318967145240e-06
6.933466733366682888e+01 6.188742563081805655e-06
7.023511755877939322e+01 6.386102273560334135e-06
7.113556778389194335e+01 6.724181442123450128e-06
7.203601800900449348e+01 6.930443420892903299e-06
7.293646823411705782e+01 6.923392277967316185e-06
7.383691845922960795e+01 6.989335025354318583e-06
7.473736868434217229e+01 7.409283922953877958e-06
7.563781890945472242e+01 8.104120373318543833e-06
7.653826913456728676e+01 8.775589810907714791e-06
7.743871935967983688e+01 9.286574783611103626e-06
7.833916958479238701e+01 9.482121506670813783e-06
7.923961980990495135e+01 9.161170877646489190e-06
8.014007003501750148e+01 8.455789060849364108e-06
8.104052026013006582e+01 7.888608280119544853e-06
8.194097048524261595e+01 7.705578093542042232e-06
8.284142071035518029e+01 7.526698764823972940e-06
8.374187093546773042e+01 7.139327171637626047e-06
8.464232116058028055e+01 6.803674102990001990e-06
8.554277138569284489e+01 6.827341952782103189e-06
8.644322161080539502e+01 7.072315046464676959e-06
8.734367183591795936e+01 6.996404130634178645e-06
8.824412206103050949e+01 6.553555253696710454e-06
8.914457228614307382e+01 6.052811642399408620e-06
9.004502251125562395e+01 5.667795629390054751e-06
9.094547273636817408e+01 5.421864948404738635e-06
9.184592296148073842e+01 5.317843382442414802e-06
9.274637318659328855e+01 5.391918707656908976e-06
9.364682341170585289e+01 5.654921037983030684e-06
9.454727363681840302e+01 6.036632291402355337e-06
9.544772386193096736e+01 6.401553356852309575e-06
9.634817408704351749e+01 6.659110252068285928e-06
9.724862431215606762e+01 6.725170324517264312e-06
9.814907453726863196e+01 6.674621943024594544e-06
9.904952476238118209e+01 6.756999776752144813e-06
9.994997498749374643e+01 7.077815515939611824e-06
1.008504252126062966e+02 7.575694352094095197e-06
1.017508754377188609e+02 7.898709294773659896e-06
1.026513256628314110e+02 7.825511143380377247e-06
1.035517758879439612e+02 7.782380003133930951e-06
1.044522261130565255e+02 7.910567258572363602e-06
1.053526763381690756e+02 7.952015005124714125e-06
1.062531265632816400e+02 7.893493882985698530e-06
1.071535767883941901e+02 7.886571772603078671e-06
1.080540270135067544e+02 8.063753957619958172e-06
1.089544772386193046e+02 8.329214933796417306e-06
1.098549274637318547e+02 8.503889875551513131e-06
1.107553776888444190e+02 8.544628777011888948e-06
1.116558279139569692e+02 8.462431936370711893e-06
1.125562781390695335e+02 8.191759951546902235e-06
1.134567283641820836e+02 7.896704350454633109e-06
1.143571785892946480e+02 7.715814723975031520e-06
1.152576288144071981e+02 7.732286517053497509e-06
1.161580790395197482e+02 8.016649149728749798e-06
1.170585292646323126e+02 8.337957043089707320e-06
1.179589794897448627e+02 8.280154531969227043e-06
1.188594297148574270e+02 7.855662114182759660e-06
1.197598799399699772e+02 7.338912250994821898e-06
1.206603301650825415e+02 6.929851091700570004e-06
1.215607803901950916e+02 6.701733404220013609e-06
1.224612306153076418e+02 6.766072878401127256e-06
1.233616808404202061e+02 7.318499523456495242e-06
1.242621310655327562e+02 8.279213828264298891e-06
1.251625812906453206e+02 9.369851962012159879e-06
1.260630315157578707e+02 1.026371415244758001e-05
1.269634817408704350e+02 1.059943037394528248e-05
1.278639319659829852e+02 1.072623256372110410e-05
1.287643821910955353e+02 1.125897380416823806e-05
1.296648324162080996e+02 1.208404789611526588e-05
1.305652826413206640e+02 1.278406206644829257e-05
1.314657328664331999e+02 1.276109397448047017e-05
1.323661830915457642e+02 1.218237964983190982e-05
1.332666333166583286e+02 1.167875070845858810e-05
1.341670835417708929e+02 1.115690920443911437e-05
1.350675337668834288e+02 1.053963605368710474e-05
1.359679839919959932e+02 1.012827719271019682e-05
1.368684342171085575e+02 9.806880953435189344e-06
1.377688844422210934e+02 9.511899863215562652e-06
1.386693346673336578e+02 9.512380545630725953e-06
1.395697848924462221e+02 9.844057093720136832e-06
1.404702351175587864e+02 1.048313993669783537e-05
1.413706853426713224e+02 1.118143165806462233e-05
1.422711355677838867e+02 1.165285428053672838e-05
1.431715857928964510e+02 1.186393831323734667e-05
1.440720360180089870e+02 1.196375095102043485e-05
1.449724862431215513e+02 1.235494119325010077e-05
1.458729364682341156e+02 1.288865242104369932e-05
1.467733866933466800e+02 1.296028123794021149e-05
1.476738369184592159e+02 1.269520301084256202e-05
1.485742871435717802e+02 1.242557056725347349e-05
1.494747373686843446e+02 1.232430333160724746e-05
1.503751875937968805e+02 1.247529943476413391e-05
1.512756378189094448e+02 1.293577379612925226e-05
1.521760880440220092e+02 1.384788394450998858e-05
1.530765382691345735e+02 1.498975435428983884e-05
1.539769884942471094e+02 1.554007106506583992e-05
1.548774387193596738e+02 1.532939182600234366e-05
1.557778889444722381e+02 1.496357898702943639e-05
1.566783391695847740e+02 1.485053530303289643e-05
1.575787893946973384e+02 1.477769444399994383e-05
1.584792396198099027e+02 1.435195513830345260e-05
1.593796898449224670e+02 1.386161648713341676e-05
1.602801400700350030e+02 1.351416965298381665e-05
1.611805902951475673e+02 1.326995286619589746e-05
1.620810405202601316e+02 1.335824662386348709e-05
1.629814907453726676e+02 1.364753310183282809e-05
1.638819409704852319e+02 1.375626320244930358e-05
1.647823911955977962e+02 1.367549179384762667e-05
1.656828414207103606e+02 1.346306878692576547e-05
1.665832916458228965e+02 1.348105908989822901e-05
1.674837418709354608e+02 1.359161885494748726e-05
1.683841920960480252e+02 1.331055788604602438e-05
1.692846423211605611e+02 1.292695690736430519e-05
1.701850925462731254e+02 1.275482513676021542e-05
1.710855427713856898e+02 1.292830710687809757e-05
1.719859929964982541e+02 1.342242699646285915e-05
1.728864432216107900e+02 1.417708435992401626e-05
1.737868934467233544e+02 1.491868114141943301e-05
1.746873436718359187e+02 1.525642453526016269e-05
1.755877938969484546e+02 1.540336286617354557e-05
1.764882441220610190e+02 1.547156533890766745e-05
1.773886943471735833e+02 1.538194811651401740e-05
1.782891445722861476e+02 1.539779926618405843e-05
1.791895947973986836e+02 1.541215045841101689e-05
1.800900450225112479e+02 1.551795857225344113e-05
1.809904952476238122e+02 1.562940705772280741e-05
1.818909454727363482e+02 1.502813898169949675e-05
1.827913956978489125e+02 1.408668631017729061e-05
1.836918459229614768e+02 1.336329482669329233e-05
1.845922961480740412e+02 1.305538503912747848e-05
1.854927463731865771e+02 1.317440749576558332e-05
1.863931965982991414e+02 1.350468359958889030e-05
1.872936468234117058e+02 1.375566387921047521e-05
1.881940970485242417e+02 1.357095466239190629e-05
1.890945472736368060e+02 1.328146835748228712e-05
1.899949974987493704e+02 1.331517509477549475e-05
1.908954477238619347e+02 1.357592950506804437e-05
1.917958979489744706e+02 1.391866366223656522e-05
1.926963481740870350e+02 1.456592093808530309e-05
1.935967983991995993e+02 1.556303974385858793e-05
1.944972486243121352e+02 1.630359901503224441e-05
1.953976988494246996e+02 1.672947041132028095e-05
1.962981490745372639e+02 1.689517822357677939e-05
1.971985992996498283e+02 1.643760052071426323e-05
1.980990495247623642e+02 1.570868017866089824e-05
1.989994997498749285e+02 1.510325892896890233e-05
1.998999499749874929e+02 1.519224506956523176e-05
2.008004002001000288e+02 1.633178499940153805e-05
2.017008504252125931e+02 1.777625598794019986e-05
2.026013006503251574e+02 1.813595445743479127e-05
2.035017508754377218e+02 1.786937510372454136e-05
2.044022011005502577e+02 1.802275994283315368e-05
2.053026513256628220e+02 1.874372588390945819e-05
2.062031015507753864e+02 1.964090135976608690e-05
2.071035517758879223e+02 2.006700182268642739e-05
2.080040020010004866e+02 2.000685800108189987e-05
2.089044522261130510e+02 1.970023078665127892e-05
2.098049024512256153e+02 1.920881037000007362e-05
2.107053526763381512e+02 1.843563438518007735e-05
2.116058029014507156e+02 1.761280696484691396e-05
2.125062531265632799e+02 1.691518015680075940e-05
2.134067033516758158e+02 1.643385284054903610e-05
2.143071535767883802e+02 1.622955246172401903e-05
2.152076038019009445e+02 1.634669924661752316e-05
2.161080540270135089e+02 1.669954671319548450e-05
2.170085042521260448e+02 1.684330605360594195e-05
2.179089544772386091e+02 1.666349856481594692e-05
2.188094047023511735e+02 1.673950885353574434e-05
2.197098549274637094e+02 1.741136613109644902e-05
2.206103051525762737e+02 1.860991140247393862e-05
2.215107553776888381e+02 1.940899073655621464e-05
2.224112056028014024e+02 1.929211468647998607e-05
2.233116558279139383e+02 1.883349401770418336e-05
2.242121060530265027e+02 1.864907262235899023e-05
2.251125562781390670e+02 1.901662757059877863e-05
2.260130065032516029e+02 1.949748998592562964e-05
2.269134567283641672e+02 1.999815758444524255e-05
2.278139069534767316e+02 2.083838890819569620e-05
2.287143571785892959e+02 2.187607414256795515e-05
2.296148074037018318e+02 2.257707640130157301e-05
2.305152576288143962e+02 2.274086085787297166e-05
2.314157078539269605e+02 2.211834646621142731e-05
2.323161580790394964e+02 2.085095539963711830e-05
2.332166083041520608e+02 2.008754048516495772e-05
2.341170585292646251e+02 2.039855003792888656e-05
2.350175087543771895e+02 2.073983209796703963e-05
2.359179589794897254e+02 2.033359317623143760e-05
2.368184092046022897e+02 1.974528493076558463e-05
2.377188594297148541e+02 1.915981144609976369e-05
2.386193096548273900e+02 1.864039493503824970e-05
2.395197598799399543e+02 1.859304347972644804e-05
2.404202101050525187e+02 1.876666232544723324e-05
2.413206603301650830e+02 1.853654960002845166e-05
2.422211105552776189e+02 1.829418015617476293e-05
2.431215607803901833e+02 1.883360459156272105e-05
2.440220110055027476e+02 1.981061912120191224e-05
2.449224612306152835e+02 2.033547931208795238e-05
2.458229114557278479e+02 2.043135211210345627e-05
2.467233616808404122e+02 2.048989096858960985e-05
2.476238119059529765e+02 2.042900126372444315e-05
2.485242621310655124e+02 2.002445240677180438e-05
2.494247123561780768e+02 1.937597933863486631e-05
2.503251625812906411e+02 1.905630621611679619e-05
2.512256128064031770e+02 1.911145775822801468e-05
2.521260630315157414e+02 1.930750959413281146e-05
2.530265132566283057e+02 1.909754532757128762e-05
2.539269634817408701e+02 1.833265095140157694e-05
2.548274137068534060e+02 1.750550685117112005e-05
2.557278639319659703e+02 1.703312092634372122e-05
2.566283141570785347e+02 1.674638233805282136e-05
2.575287643821910706e+02 1.655331441445373391e-05
2.584292146073036633e+02 1.644164239509872169e-05
2.593296648324161993e+02 1.668223820009274142e-05
2.602301150575287352e+02 1.745689559778191020e-05
2.611305652826413279e+02 1.826999851180209508e-05
2.620310155077538639e+02 1.822020674892494809e-05
2.629314657328663998e+02 1.752064985404404594e-05
2.638319159579789925e+02 1.737205632306239683e-05
2.647323661830915285e+02 1.798346826393796069e-05
2.656328164082040644e+02 1.850197489110039768e-05
2.665332666333166571e+02 1.845323000138111451e-05
2.674337168584291931e+02 1.859049294878300951e-05
2.683341670835417858e+02 1.936749977973599435e-05
2.692346173086543217e+02 2.042829845572800168e-05
2.701350675337668577e+02 2.123120755558511225e-05
2.710355177588794504e+02 2.156434001129520361e-05
2.719359679839919863e+02 2.149067287156047776e-05
2.728364182091045222e+02 2.097097910652609117e-05
2.737368684342171150e+02 2.029379431602224194e-05
2.746373186593296509e+02 1.982618336565695761e-05
2.755377688844421868e+02 1.935944554483652437e-05
2.764382191095547796e+02 1.898811621931851659e-05
2.773386693346673155e+02 1.914803844076983435e-05
2.782391195597798514e+02 1.961580977947933964e-05
2.791395697848924442e+02 1.997610402448467758e-05
2.800400200100049801e+02 2.031406457579575946e-05
2.809404702351175729e+02 2.062821467374776862e-05
2.818409204602301088e+02 2.101117689627961293e-05
2.827413706853426447e+02 2.163637296537604889e-05
2.836418209104552375e+02 2.265941985525211848e-05
2.845422711355677734e+02 2.366099462917005544e-05
2.854427213606803093e+02 2.422855575421090337e-05
2.863431715857929021e+02 2.449598132627889236e-05
2.872436218109054380e+02 2.485061277336890253e-05
2.881440720360179739e+02 2.483125727507310898e-05
2.890445222611305667e+02 2.458991341221600926e-05
2.899449724862431026e+02 2.460983131990126513e-05
2.908454227113556385e+02 2.471584014044901734e-05
2.917458729364682313e+02 2.512328508348978057e-05
2.926463231615807672e+02 2.622812494537580632e-05
2.935467733866933600e+02 2.753411082636168268e-05
2.944472236118058959e+02 2.859401631547363472e-05
2.953476738369184318e+02 2.989613177568610316e-05
2.962481240620310246e+02 3.115836485200267715e-05
2.971485742871435605e+02 3.172961221351441538e-05
2.980490245122560964e+02 3.112981033697345928e-05
2.989494747373686891e+02 2.986962381527087431e-05
2.998499249624812251e+02 2.881636046562607422e-05
3.007503751875937610e+02 2.814777170142962256e-05
3.016508254127063537e+02 2.802592355262931449e-05
3.025512756378188897e+02 2.875744074874880016e-05
3.034517258629314256e+02 2.942607028263697532e-05
3.043521760880440183e+02 2.913472838432697035e-05
3.052526263131565543e+02 2.869138994247558063e-05
3.061530765382691470e+02 2.839125969448194574e-05
3.070535267633816829e+02 2.823572056623644924e-05
3.079539769884942189e+02 2.826146936329446623e-05
3.088544272136068116e+02 2.841746376280720532e-05
3.097548774387193475e+02 2.849630703401943445e-05
3.106553276638318835e+02 2.789860300959103441e-05
3.115557778889444762e+02 2.752524572285177629e-05
3.124562281140570121e+02 2.784478131663250934e-05
3.133566783391695481e+02 2.819642830216618649e-05
3.142571285642821408e+02 2.828914137646996191e-05
3.151575787893946767e+02 2.790860492061875161e-05
3.160580290145072127e+02 2.757897705083275293e-05
3.169584792396198054e+02 2.811535029987586215e-05
3.178589294647323413e+02 2.939807645466441957e-05
3.187593796898449341e+02 3.043053768420585291e-05
3.196598299149574700e+02 3.065162982162042307e-05
3.205602801400700059e+02 3.039716369355895240e-05
3.214607303651825987e+02 2.991740048407974870e-05
3.223611805902951346e+02 2.943385677151615090e-05
3.232616308154076705e+02 2.936926652745727284e-05
3.241620810405202633e+02 2.983232975189312070e-05
3.250625312656327992e+02 3.014418482215262978e-05
3.259629814907453351e+02 3.034899869171205306e-05
3.268634317158579279e+02 3.103795889169625095e-05
3.277638819409704638e+02 3.154418528588369695e-05
3.286643321660829997e+02 3.115186797330091314e-05
3.295647823911955925e+02 3.039617827942962878e-05
3.304652326163081284e+02 2.993964444884226491e-05
3.313656828414207212e+02 3.021966855452762590e-05
3.322661330665332571e+02 3.083304539477890646e-05
3.331665832916457930e+02 3.135733971172471142e-05
3.340670335167583858e+02 3.144605158146673542e-05
3.349674837418709217e+02 3.090258492047262903e-05
3.358679339669834576e+02 2.989806579150819116e-05
3.367683841920960504e+02 2.911091594891792629e-05
3.376688344172085863e+02 2.891675369606462058e-05
3.385692846423211222e+02 2.942296297685111282e-05
3.394697348674337150e+02 3.039807689530374274e-05
3.403701850925462509e+02 3.128331670710419831e-05
3.412706353176587868e+02 3.173314615834406334e-05
3.421710855427713796e+02 3.156551238756929734e-05
3.430715357678839155e+02 3.114715555405237125e-05
3.439719859929965082e+02 3.060348326748634314e-05
3.448724362181090441e+02 3.003206619425022875e-05
3.457728864432215801e+02 2.944269527520261207e-05
3.466733366683341728e+02 2.882272903101156723e-05
3.475737868934467087e+02 2.841464455694713199e-05
3.484742371185592447e+02 2.830336003292930166e-05
3.493746873436718374e+02 2.827017681510537878e-05
3.502751375687843733e+02 2.833127166384830130e-05
3.511755877938969093e+02 2.876399370552161448e-05
3.520760380190095020e+02 2.950507140004348012e-05
3.529764882441220379e+02 3.032787022541853303e-05
3.538769384692345739e+02 3.072472019509456660e-05
3.547773886943471666e+02 3.062570638522763364e-05
3.556778389194597025e+02 3.034221645334128574e-05
3.565782891445722953e+02 2.984846432622017620e-05
3.574787393696848312e+02 2.922241109491730931e-05
3.583791895947973671e+02 2.893792682244860945e-05
3.592796398199099599e+02 2.939862691062189714e-05
3.601800900450224958e+02 3.007007461413229799e-05
3.610805402701350317e+02 3.034697137193610074e-05
3.619809904952476245e+02 3.034287796186534373e-05
3.628814407203601604e+02 3.012862824219289439e-05
3.637818909454726963e+02 2.973954688154476389e-05
3.646823411705852891e+02 2.984063441453686040e-05
3.655827913956978250e+02 3.045405757433932562e-05
3.664832416208103609e+02 3.059901835471518454e-05
3.673836918459229537e+02 3.010071314899829303e-05
3.682841420710354896e+02 2.966151493556875993e-05
3.691845922961480824e+02 2.924829124832773356e-05
3.700850425212606183e+02 2.895201442105197867e-05
3.709854927463731542e+02 2.925812300105382405e-05
3.718859429714857470e+02 2.958495232854363034e-05
3.727863931965982829e+02 2.917355824965194616e-05
3.736868434217108188e+02 2.881993857584206663e-05
3.745872936468234116e+02 2.878512390830823171e-05
3.754877438719359475e+02 2.830668581517970086e-05
3.763881940970484834e+02 2.778122190225562450e-05
3.772886443221610762e+02 2.778187304373043258e-05
3.781890945472736121e+02 2.824318701231432288e-05
3.790895447723861480e+02 2.855608528686405011e-05
3.799899949974987408e+02 2.845790476541161409e-05
3.808904452226112767e+02 2.822716158471605212e-05
3.817908954477238694e+02 2.780252032378349904e-05
3.826913456728364054e+02 2.740052932707705188e-05
3.835917958979489413e+02 2.730659456596146973e-05
3.844922461230615340e+02 2.778990459539576634e-05
3.853926963481740700e+02 2.851670588739545420e-05
3.862931465732866059e+02 2.866962735374628635e-05
3.871935967983991986e+02 2.888000094279192739e-05
3.880940470235117346e+02 2.958235386276230976e-05
3.889944972486242705e+02 2.975800774146431844e-05
3.898949474737368632e+02 2.909826971158554590e-05
3.907953976988493991e+02 2.836135399420782274e-05
3.916958479239619351e+02 2.805647155237080386e-05
3.925962981490745278e+02 2.841888275957177155e-05
3.934967483741870637e+02 2.910138597139873715e-05
3.943971985992996565e+02 2.961123786124954135e-05
3.952976488244121924e+02 3.007957300139711844e-05
3.961980990495247283e+02 3.048675454733009005e-05
3.970985492746373211e+02 3.058542906952470107e-05
3.979989994997498570e+02 3.023797080343089844e-05
3.988994497248623929e+02 2.963453742292987975e-05
3.997998999499749857e+02 2.941078261567590672e-05
4.007003501750875216e+02 2.972477266616570775e-05
4.016008004002000575e+02 3.025186933972356926e-05
4.025012506253126503e+02 3.043135417463167707e-05
4.034017008504251862e+02 2.991439937914958921e-05
4.043021510755377221e+02 2.880582195004548120e-05
4.052026013006503149e+02 2.790402859553913696e-05
4.061030515257628508e+02 2.770466710524850808e-05
4.070035017508754436e+02 2.779906420624992842e-05
4.079039519759879795e+02 2.784556221268056004e-05
4.088044022011005154e+02 2.795405280996187194e-05
4.097048524262131082e+02 2.760351012726652237e-05
4.106053026513256441e+02 2.682873034102857819e-05
4.115057528764381800e+02 2.601115846824299913e-05
4.124062031015507728e+02 2.552208349105266122e-05
4.133066533266633087e+02 2.566318107104119189e-05
4.142071035517758446e+02 2.635215999363863903e-05
4.151075537768884374e+02 2.696560785100060606e-05
4.160080040020009733e+02 2.679236217428352111e-05
4.169084542271135092e+02 2.616758026640183854e-05
4.178089044522261020e+02 2.574576986049799480e-05
4.187093546773386379e+02 2.550479178520291554e-05
4.196098049024512306e+02 2.558556896297376024e-05
4.205102551275637666e+02 2.600721755687135248e-05
4.214107053526763025e+02 2.631967394299023773e-05
4.223111555777888952e+02 2.653191197800056758e-05
4.232116058029014312e+02 2.674457834964864242e-05
4.241120560280139671e+02 2.673684886745494806e-05
4.250125062531265598e+02 2.652654361309365026e-05
4.259129564782390958e+02 2.620265355901514205e-05
4.268134067033516317e+02 2.607632162241636792e-05
4.277138569284642244e+02 2.653707030220022890e-05
4.286143071535767604e+02 2.754508410430423461e-05
4.295147573786892963e+02 2.908434657226694614e-05
4.304152076038018890e+02 3.077892859268479707e-05
4.313156578289144250e+02 3.175453327552981521e-05
4.322161080540270177e+02 3.112713586211747030e-05
4.331165582791395536e+02 2.946241436490179636e-05
4.340170085042520896e+02 2.813609000353866903e-05
4.349174587293646823e+02 2.740631997432004834e-05
4.358179089544772182e+02 2.706123334953911778e-05
4.367183591795897541e+02 2.740835404123724426e-05
4.376188094047023469e+02 2.836488846932586256e-05
4.385192596298148828e+02 2.949020057348875030e-05
4.394197098549274187e+02 3.044874373090203289e-05
4.403201600800400115e+02 3.069676618462685764e-05
4.412206103051525474e+02 3.025660861847546824e-05
4.421210605302650833e+02 2.944932159818093898e-05
4.430215107553776761e+02 2.847820709902830610e-05
4.439219609804902120e+02 2.776232833087581957e-05
4.448224112056028048e+02 2.751759020042680783e-05
4.457228614307153407e+02 2.735139105403295925e-05
4.466233116558278766e+02 2.700492246046336275e-05
4.475237618809404694e+02 2.670116271883436548e-05
4.484242121060530053e+02 2.652772218559005209e-05
4.493246623311655412e+02 2.657871096613163180e-05
4.502251125562781340e+02 2.701766353226250648e-05
4.511255627813906699e+02 2.783884052264891829e-05
4.520260130065032058e+02 2.852013248897228881e-05
4.529264632316157986e+02 2.883110861742399695e-05
4.538269134567283345e+02 2.902281070774048315e-05
4.547273636818408704e+02 2.908639652017319788e-05
4.556278139069534632e+02 2.871828131766568389e-05
4.565282641320659991e+02 2.823900768754612767e-05
4.574287143571785919e+02 2.815825814306148584e-05
4.583291645822911278e+02 2.836183956050891816e-05
4.592296148074036637e+02 2.859508716427839226e-05
4.601300650325162565e+02 2.869079030078378054e-05
4.610305152576287924e+02 2.897798227202918141e-05
4.619309654827413283e+02 2.952042230402853389e-05
4.628314157078539210e+02 2.998134085381957495e-05
4.637318659329664570e+02 3.015356814464769229e-05
4.646323161580789929e+02 2.965204610964738760e-05
4.655327663831915856e+02 2.874517303572228977e-05
4.664332166083041216e+02 2.811248200950634533e-05
4.673336668334167143e+02 2.795497152217424637e-05
4.682341170585292502e+02 2.825664683605270903e-05
4.691345672836417862e+02 2.882607911532499359e-05
4.700350175087543789e+02 2.945997177546472780e-05
4.709354677338669148e+02 3.010563170966651747e-05
4.718359179589794508e+02 3.054996809156248252e-05
4.727363681840920435e+02 3.014490892220396550e-05
4.736368184092045794e+02 2.922976869704939422e-05
4.745372686343171154e+02 2.853456493064417701e-05
4.754377188594297081e+02 2.829951631220712808e-05
4.763381690845422440e+02 2.859931349897426277e-05
4.772386193096547800e+02 2.950783190057886389e-05
4.781390695347673727e+02 3.053176915620157603e-05
4.790395197598799086e+02 3.142154219287899609e-05
4.799399699849925014e+02 3.221637697109890633e-05
4.808404202101050373e+02 3.294272594838015540e-05
4.817408704352175732e+02 3.359729652364407576e-05
4.826413206603301660e+02 3.408973198539948381e-05
4.835417708854427019e+02 3.423206006293729001e-05
4.844422211105552378e+02 3.373406239804411480e-05
4.853426713356678306e+02 3.311924815716920387e-05
4.862431215607803665e+02 3.282496409351496475e-05
4.871435717858929024e+02 3.259471862424379772e-05
4.880440220110054952e+02 3.212158453768531761e-05
4.889444722361180311e+02 3.162303518314417064e-05
4.898449224612305670e+02 3.130155564625812791e-05
4.907453726863431598e+02 3.092167515902985718e-05
4.916458229114556957e+02 3.066324804145446946e-05
4.925462731365682885e+02 3.124059070090455081e-05
4.934467233616808244e+02 3.236080355571713252e-05
4.943471735867933603e+02 3.343173688353206341e-05
4.952476238119059531e+02 3.406222848631682162e-05
4.961480740370184890e+02 3.413006351367575068e-05
4.970485242621310249e+02 3.368831015946401644e-05
4.979489744872436177e+02 3.336555103563467996e-05
4.988494247123561536e+02 3.368976198266115420e-05
4.997498749374686895e+02 3.431893296191612945e-05
5.006503251625812823e+02 3.519712889332996442e-05
5.015507753876938182e+02 3.639802532319017241e-05
5.024512256128063541e+02 3.747515918665784296e-05
5.033516758379189469e+02 3.792189601788992806e-05
5.042521260630314828e+02 3.764771959330997489e-05
5.051525762881440755e+02 3.700410593565554542e-05
5.060530265132566115e+02 3.642160474743711383e-05
5.069534767383691474e+02 3.601604066888991582e-05
5.078539269634817401e+02 3.576562993240201113e-05
5.087543771885942760e+02 3.578108579016547365e-05
5.096548274137068120e+02 3.615344879818217512e-05
5.105552776388194047e+02 3.729142962116831125e-05
5.114557278639319406e+02 3.862032815195020615e-05
5.123561780890445334e+02 3.930001465147377995e-05
5.132566283141570693e+02 3.932713132794499715e-05
5.141570785392696052e+02 3.921107723551322003e-05
5.150575287643821412e+02 3.915633460741628757e-05
5.159579789894946771e+02 3.930954854559407218e-05
5.168584292146073267e+02 3.940566423788263977e-05
5.177588794397198626e+02 3.911893397889626439e-05
5.186593296648323985e+02 3.913560296376164695e-05
5.195597798899449344e+02 3.970094326644778873e-05
5.204602301150574704e+02 4.003977075657661188e-05
5.213606803401700063e+02 4.043056961542478537e-05
5.222611305652826559e+02 4.131689740130286100e-05
5.231615807903951918e+02 4.236892264291067218e-05
5.240620310155077277e+02 4.282061457193280017e-05
5.249624812406202636e+02 4.271055800127181228e-05
5.258629314657327996e+02 4.296633151585835253e-05
5.267633816908454492e+02 4.378575663636240554e-05
5.276638319159579851e+02 4.489616689526979227e-05
5.285642821410705210e+02 4.614733000316310549e-05
5.294647323661830569e+02 4.704764544492457041e-05
5.303651825912955928e+02 4.736133648039713670e-05
5.312656328164081287e+02 4.759443962206929695e-05
5.321660830415207784e+02 4.791581042403779894e-05
5.330665332666333143e+02 4.787182773281299224e-05
5.339669834917458502e+02 4.773671594868079818e-05
5.348674337168583861e+02 4.821118623513809970e-05
5.357678839419709220e+02 4.894526202578302205e-05
5.366683341670835716e+02 4.936359955418462118e-05
5.375687843921961075e+02 4.961275971420168253e-05
5.384692346173086435e+02 4.980160275813940747e-05
5.393696848424211794e+02 4.997955231596418771e-05
5.402701350675337153e+02 5.026131168385815145e-05
5.411705852926462512e+02 5.066397439158803795e-05
5.420710355177589008e+02 5.109641838032597579e-05
5.429714857428714367e+02 5.180448454001383918e-05
5.438719359679839727e+02 5.242260526668348063e-05
5.447723861930965086e+02 5.223882985666388601e-05
5.456728364182090445e+02 5.202436280668682882e-05
5.465732866433215804e+02 5.252665014064105542e-05
5.474737368684342300e+02 5.342682194856905560e-05
5.483741870935467659e+02 5.420412209990899826e-05
5.492746373186593019e+02 5.426910523882245621e-05
5.501750875437718378e+02 5.367015298489742083e-05
5.510755377688843737e+02 5.331789225773593533e-05
5.519759879939970233e+02 5.309225946307041967e-05
5.528764382191095592e+02 5.235700773272028040e-05
5.537768884442220951e+02 5.134749265731070018e-05
5.546773386693346310e+02 5.049074045311782586e-05
5.555777888944471670e+02 5.000116002611243557e-05
5.564782391195597029e+02 4.992877617406120129e-05
5.573786893446723525e+02 5.035570362928083212e-05
5.582791395697848884e+02 5.154114220683455807e-05
5.591795897948974243e+02 5.285520132401047631e-05
5.600800400200099602e+02 5.370252821368218016e-05
5.609804902451224962e+02 5.384751196733650731e-05
5.618809404702351458e+02 5.319697036096346013e-05
5.627813906953476817e+02 5.176221075873946396e-05
5.636818409204602176e+02 4.994031664260308772e-05
5.645822911455727535e+02 4.841754459958049357e-05
5.654827413706852894e+02 4.737884244538614876e-05
5.663831915957978254e+02 4.698919521414354967e-05
5.672836418209104750e+02 4.717884160077219399e-05
5.681840920460230109e+02 4.759067842932058535e-05
5.690845422711355468e+02 4.824881233478771656e-05
5.699849924962480827e+02 4.958957575999753566e-05
5.708854427213606186e+02 5.177086644541812623e-05
5.717858929464731546e+02 5.373380986142765729e-05
5.726863431715858042e+02 5.397631220517010912e-05
5.735867933966983401e+02 5.282022534206226306e-05
5.744872436218108760e+02 5.086982999282164730e-05
5.753876938469234119e+02 4.866806023201184460e-05
5.762881440720359478e+02 4.756261693623985658e-05
5.771885942971485974e+02 4.738466425995548423e-05
5.780890445222611334e+02 4.709624836867830984e-05
5.789894947473736693e+02 4.683556122640169085e-05
5.798899449724862052e+02 4.662581537956914942e-05
5.807903951975987411e+02 4.595372599378581184e-05
5.816908454227112770e+02 4.506590308117846519e-05
5.825912956478239266e+02 4.442083175618002878e-05
5.834917458729364625e+02 4.419348848782043347e-05
5.843921960980489985e+02 4.417487526017197137e-05
5.852926463231615344e+02 4.412231085695115086e-05
5.861930965482740703e+02 4.365652915572857659e-05
5.870935467733867199e+02 4.280167695887700875e-05
5.879939969984992558e+02 4.194752091475546671e-05
5.888944472236117917e+02 4.172277591223399074e-05
5.897948974487243277e+02 4.139301605699100456e-05
5.906953476738368636e+02 4.057497212271648037e-05
5.915957978989493995e+02 3.971185714692255803e-05
5.924962481240620491e+02 3.906768212366204941e-05
5.933966983491745850e+02 3.860444914655151272e-05
5.942971485742871209e+02 3.830053496146356459e-05
5.951975987993996569e+02 3.826764591688907826e-05
5.960980490245121928e+02 3.796242827050335734e-05
5.969984992496247287e+02 3.724373075590897941e-05
5.978989494747373783e+02 3.675840951555912748e-05
5.987993996998499142e+02 3.710456319598493419e-05
5.996998499249624501e+02 3.809049847354670351e-05
6.006003001500749860e+02 3.891057336366897374e-05
6.015007503751875220e+02 3.930337000321326870e-05
6.024012006003001716e+02 3.928893773116873722e-05
6.033016508254127075e+02 3.907377039950214406e-05
6.042021010505252434e+02 3.885904298390280910e-05
6.051025512756377793e+02 3.865694764119552602e-05
6.060030015007503152e+02 3.892084395820644111e-05
6.069034517258628512e+02 3.972996769647093386e-05
6.078039019509755008e+02 4.093889741531365795e-05
6.087043521760880367e+02 4.192018277733341444e-05
6.096048024012005726e+02 4.193669331684477160e-05
6.105052526263131085e+02 4.120008777798460007e-05
6.114057028514256444e+02 4.057467389326714543e-05
6.123061530765382940e+02 4.016224383006925316e-05
6.132066033016508300e+02 3.967888538320167910e-05
6.141070535267633659e+02 3.930908170632222890e-05
6.150075037518759018e+02 3.891028225738043074e-05
6.159079539769884377e+02 3.863717544392047574e-05
6.168084042021009736e+02 3.915839057890418702e-05
6.177088544272136232e+02 4.076465055632395808e-05
6.186093046523261592e+02 4.233922305806011633e-05
6.195097548774386951e+02 4.306986238050948887e-05
6.204102051025512310e+02 4.287262485688935376e-05
6.213106553276637669e+02 4.159200078816519170e-05
6.222111055527763028e+02 4.018939475877154026e-05
6.231115557778889524e+02 3.972861429970479634e-05
6.240120060030014884e+02 4.021049755253963817e-05
6.249124562281140243e+02 4.087807831630554565e-05
6.258129064532265602e+02 4.123094184093930827e-05
6.267133566783390961e+02 4.150045250173944677e-05
6.276138069034517457e+02 4.207797708208376375e-05
6.285142571285642816e+02 4.303633781258702547e-05
6.294147073536768175e+02 4.397132745317297836e-05
6.303151575787893535e+02 4.376017953063530687e-05
6.312156078039018894e+02 4.273278538327708674e-05
6.321160580290144253e+02 4.181201122852693002e-05
6.330165082541270749e+02 4.115341937086883928e-05
6.339169584792396108e+02 4.036874428647030930e-05
6.348174087043521467e+02 3.935249046157448968e-05
6.357178589294646827e+02 3.852058121924207087e-05
6.366183091545772186e+02 3.798981393263830728e-05
6.375187593796898682e+02 3.779653034258651938e-05
6.384192096048024041e+02 3.763721558551422219e-05
6.393196598299149400e+02 3.740332731818396458e-05
6.402201100550274759e+02 3.756515454031761255e-05
6.411205602801400119e+02 3.850436019232149451e-05
6.420210105052525478e+02 3.939542403417957981e-05
6.429214607303651974e+02 3.942698319415523938e-05
6.438219109554777333e+02 3.896876469654914180e-05
6.447223611805902692e+02 3.861308744081854029e-05
6.456228114057028051e+02 3.833759171555192502e-05
6.465232616308153411e+02 3.778384107999694367e-05
6.474237118559278770e+02 3.729744759994397174e-05
6.483241620810405266e+02 3.744033123923429099e-05
6.492246123061530625e+02 3.796224802689276599e-05
6.501250625312655984e+02 3.833016277217053257e-05
6.510255127563781343e+02 3.874349469543614325e-05
6.519259629814906702e+02 3.899538782200108450e-05
6.528264132066033198e+02 3.874621372045090775e-05
6.537268634317158558e+02 3.800575827728298412e-05
6.546273136568283917e+02 3.716571867007507755e-05
6.555277638819409276e+02 3.666937927672425527e-05
6.564282141070534635e+02 3.669710385399735337e-05
6.573286643321659994e+02 3.732560925831128126e-05
6.582291145572786490e+02 3.776798719147656755e-05
6.591295647823911850e+02 3.725983084891449271e-05
6.600300150075037209e+02 3.631329172653559751e-05
6.609304652326162568e+02 3.544117950167607764e-05
6.618309154577287927e+02 3.462408703541667405e-05
6.627313656828414423e+02 3.416452171726680047e-05
6.636318159079539782e+02 3.453933592673895652e-05
6.645322661330665142e+02 3.559135384265023366e-05
6.654327163581790501e+02 3.665882472210074537e-05
6.663331665832915860e+02 3.741296087925795625e-05
6.672336168084041219e+02 3.824072600300802314e-05
6.681340670335167715e+02 3.903322401023615930e-05
6.690345172586293074e+02 3.906837060844434362e-05
6.699349674837418434e+02 3.869081944202076650e-05
6.708354177088543793e+02 3.825563296233732753e-05
6.717358679339669152e+02 3.794981634350167316e-05
6.726363181590794511e+02 3.755125683718371632e-05
6.735367683841921007e+02 3.710807819309014345e-05
6.744372186093046366e+02 3.673114003132932364e-05
6.753376688344171725e+02 3.602892776108981696e-05
6.762381190595297085e+02 3.499949526334203735e-05
6.771385692846422444e+02 3.438410013940811294e-05
6.780390195097548940e+02 3.433970396097861869e-05
6.789394697348674299e+02 3.493906246255467209e-05
6.798399199599799658e+02 3.579070545153396850e-05
6.807403701850925017e+02 3.626672759091756359e-05
6.816408204102050377e+02 3.610585293274658089e-05
6.825412706353175736e+02 3.531536996729498927e-05
6.834417208604302232e+02 3.420300912712930712e-05
6.843421710855427591e+02 3.336557884079755589e-05
6.852426213106552950e+02 3.337954653808402944e-05
6.861430715357678309e+02 3.407083391136033867e-05
6.870435217608803669e+02 3.500021759450896346e-05
6.879439719859930165e+02 3.560956315511135416e-05
6.888444222111055524e+02 3.532388749947670120e-05
6.897448724362180883e+02 3.472377251410049235e-05
6.906453226613306242e+02 3.391556093074187434e-05
6.915457728864431601e+02 3.309450451633011962e-05
6.924462231115556961e+02 3.285842795622771604e-05
6.933466733366683457e+02 3.299921416976010617e-05
6.942471235617808816e+02 3.334373256929719132e-05
6.951475737868934175e+02 3.375537975742533986e-05
6.960480240120059534e+02 3.429650595324295031e-05
6.969484742371184893e+02 3.450664848244686366e-05
6.978489244622311389e+02 3.443077864382483946e-05
6.987493746873436749e+02 3.441353109041084995e-05
6.996498249124562108e+02 3.432696832053193543e-05
7.005502751375687467e+02 3.429009300837525823e-05
7.014507253626812826e+02 3.442132938136688894e-05
7.023511755877938185e+02 3.438692341333624616e-05
7.032516258129064681e+02 3.416930217051868655e-05
7.041520760380190040e+02 3.423757088659590151e-05
7.050525262631315400e+02 3.466784732293923488e-05
7.059529764882440759e+02 3.504917281610311214e-05
7.068534267133566118e+02 3.513806261495024732e-05
7.077538769384691477e+02 3.513924486318336949e-05
7.086543271635817973e+02 3.504254765147596780e-05
7.095547773886943332e+02 3.520347670508793540e-05
7.104552276138068692e+02 3.602887838383425710e-05
7.113556778389194051e+02 3.718057178840392373e-05
7.122561280640319410e+02 3.841370975733019214e-05
7.131565782891445906e+02 3.974950733007070314e-05
7.140570285142571265e+02 4.110072647268379073e-05
7.149574787393696624e+02 4.188352945104624285e-05
7.158579289644821984e+02 4.124937937613884552e-05
7.167583791895947343e+02 4.003691401589217559e-05
7.176588294147072702e+02 3.954862976600251827e-05
7.185592796398199198e+02 3.897113448058822204e-05
7.194597298649324557e+02 3.837332044810100394e-05
7.203601800900449916e+02 3.863661049068941461e-05
7.212606303151575275e+02 3.947200134099821246e-05
7.221610805402700635e+02 4.045073475326262748e-05
7.230615307653827131e+02 4.122633501543170471e-05
7.239619809904952490e+02 4.141068576131251377e-05
7.248624312156077849e+02 4.128104626140464625e-05
7.257628814407203208e+02 4.108231285013354609e-05
7.266633316658328567e+02 4.078340954530736801e-05
7.275637818909453927e+02 4.059693277047644091e-05
7.284642321160580423e+02 3.998722341378993858e-05
7.293646823411705782e+02 3.935532333886865823e-05
7.302651325662831141e+02 3.994416691571961789e-05
7.311655827913956500e+02 4.116187161014380234e-05
7.320660330165081859e+02 4.214341540008988157e-05
7.329664832416207219e+02 4.333758012564966212e-05
7.338669334667333715e+02 4.436848966926742712e-05
7.347673836918459074e+02 4.437223755303649472e-05
7.356678339169584433e+02 4.400337648208926328e-05
7.365682841420709792e+02 4.374645262434593293e-05
7.374687343671835151e+02 4.322364463042505822e-05
7.383691845922961647e+02 4.254850477695727988e-05
7.392696348174087007e+02 4.201520375374743886e-05
7.401700850425212366e+02 4.189851466912150027e-05
7.410705352676337725e+02 4.217336199396511505e-05
7.419709854927463084e+02 4.206543058055491248e-05
7.428714357178588443e+02 4.131878300548447229e-05
7.437718859429714939e+02 4.017590977029534752e-05
7.446723361680840299e+02 3.933412568517656734e-05
7.455727863931965658e+02 3.965806554524916542e-05
7.464732366183091017e+02 4.083008770079339168e-05
7.473736868434216376e+02 4.238915789903836433e-05
7.482741370685342872e+02 4.386599853809017958e-05
7.491745872936468231e+02 4.497144392672152102e-05
7.500750375187593590e+02 4.550823974467652956e-05
7.509754877438718950e+02 4.516249953106826927e-05
7.518759379689844309e+02 4.473415609236388343e-05
7.527763881940969668e+02 4.517629074033279211e-05
7.536768384192096164e+02 4.666860676413684691e-05
7.545772886443221523e+02 4.824131703514930071e-05
7.554777388694346882e+02 4.834479546426418415e-05
7.563781890945472242e+02 4.793257273175433053e-05
7.572786393196597601e+02 4.860903984688542289e-05
7.581790895447722960e+02 4.977982162631365559e-05
7.590795397698849456e+02 5.059705014173188889e-05
7.599799899949974815e+02 5.087619323962752496e-05
7.608804402201100174e+02 5.071218860342017901e-05
7.617808904452225534e+02 5.002647371592384697e-05
7.626813406703350893e+02 4.887947321257694969e-05
7.635817908954477389e+02 4.741599533845462750e-05
7.644822411205602748e+02 4.600774038988641898e-05
7.653826913456728107e+02 4.494410438929399777e-05
7.662831415707853466e+02 4.423257865449226896e-05
7.671835917958978825e+02 4.394851070755298911e-05
7.680840420210104185e+02 4.402552641365784869e-05
7.689844922461230681e+02 4.425920196447128790e-05
7.698849424712356040e+02 4.449380713680352892e-05
7.707853926963481399e+02 4.437491898829334697e-05
7.716858429214606758e+02 4.385427960776555411e-05
7.725862931465732117e+02 4.342593274816720873e-05
7.734867433716858613e+02 4.355344879132546065e-05
7.743871935967983973e+02 4.439164346566822929e-05
7.752876438219109332e+02 4.586031093951463297e-05
7.761880940470234691e+02 4.755326413353254091e-05
7.770885442721360050e+02 4.890313555862939445e-05
7.779889944972485409e+02 4.894116655626668086e-05
7.788894447223611905e+02 4.767172676560320864e-05
7.797898949474737265e+02 4.648070264014533538e-05
7.806903451725862624e+02 4.585256302392328771e-05
7.815907953976987983e+02 4.569251818243903762e-05
7.824912456228113342e+02 4.597325771794299646e-05
7.833916958479238701e+02 4.648184289272019778e-05
7.842921460730365197e+02 4.680613322679983020e-05
7.851925962981490557e+02 4.613739439494764477e-05
7.860930465232615916e+02 4.489560000725576985e-05
7.869934967483741275e+02 4.464909286607687431e-05
7.878939469734866634e+02 4.594451962669941558e-05
7.887943971985993130e+02 4.804331659007447607e-05
7.896948474237118489e+02 4.953938345843373540e-05
7.905952976488243849e+02 5.011117035078740603e-05
7.914957478739369208e+02 5.097677374302447302e-05
7.923961980990494567e+02 5.260913497241330911e-05
7.932966483241619926e+02 5.353747111768936075e-05
7.941970985492746422e+02 5.197791581043366009e-05
7.950975487743871781e+02 4.916103071916810054e-05
7.959979989994997140e+02 4.695292620998485489e-05
7.968984492246122500e+02 4.565476132357068075e-05
7.977988994497247859e+02 4.564515406350230618e-05
7.986993496748374355e+02 4.664021741123443586e-05
7.995997998999499714e+02 4.733569995871619163e-05
8.005002501250625073e+02 4.758995609252341091e-05
8.014007003501750432e+02 4.749932175667287361e-05
8.023011505752875792e+02 4.765877548805779238e-05
8.032016008004001151e+02 4.815264332210882997e-05
8.041020510255127647e+02 4.864237123732632716e-05
8.050025012506253006e+02 4.852779176086762132e-05
8.059029514757378365e+02 4.789561676561628241e-05
8.068034017008503724e+02 4.756751043123673395e-05
8.077038519259629084e+02 4.764321441159496241e-05
8.086043021510754443e+02 4.772034071805013165e-05
8.095047523761880939e+02 4.750917958263567681e-05
8.104052026013006298e+02 4.717505193388622266e-05
8.113056528264131657e+02 4.730593135659860954e-05
8.122061030515257016e+02 4.747539930917449329e-05
8.131065532766382375e+02 4.722315009255998814e-05
8.140070035017508872e+02 4.708870426343715306e-05
8.149074537268634231e+02 4.745804514561618011e-05
8.158079039519759590e+02 4.816536383060162968e-05
8.167083541770884949e+02 4.897038554043638890e-05
8.176088044022010308e+02 4.966938119608552913e-05
8.185092546273135667e+02 5.051936616186524149e-05
8.194097048524262163e+02 5.126834225311724283e-05
8.203101550775387523e+02 5.157851357172757109e-05
8.212106053026512882e+02 5.136130604514586211e-05
8.221110555277638241e+02 5.023983897140943253e-05
8.230115057528763600e+02 4.901924540211210314e-05
8.239119559779890096e+02 4.841493062830353269e-05
8.248124062031015455e+02 4.810883769899475997e-05
8.257128564282140815e+02 4.800634880187755249e-05
8.266133066533266174e+02 4.830648300433315888e-05
8.275137568784391533e+02 4.840298465876273769e-05
8.284142071035516892e+02 4.776049342218410305e-05
8.293146573286643388e+02 4.696505551064178002e-05
8.302151075537768747e+02 4.665935791823179062e-05
8.311155577788894107e+02 4.711242909057291364e-05
8.320160080040019466e+02 4.816313152132382664e-05
8.329164582291144825e+02 4.905639847868725447e-05
8.338169084542270184e+02 4.981892257203141407e-05
8.347173586793396680e+02 5.064091367025767311e-05
8.356178089044522039e+02 5.153213918649497178e-05
8.365182591295647399e+02 5.222138760998205480e-05
8.374187093546772758e+02 5.247420105037781568e-05
8.383191595797898117e+02 5.222966459357149786e-05
8.392196098049024613e+02 5.159504339794729414e-05
8.401200600300149972e+02 5.125495154026526328e-05
8.410205102551275331e+02 5.131755653285985960e-05
8.419209604802400690e+02 5.123974227155380089e-05
8.428214107053526050e+02 5.084435961510118943e-05
8.437218609304651409e+02 4.989587353278539478e-05
8.446223111555777905e+02 4.865426568906659852e-05
8.455227613806903264e+02 4.764021884748939053e-05
8.464232116058028623e+02 4.666775599313812540e-05
8.473236618309153982e+02 4.577248498334416933e-05
8.482241120560279342e+02 4.535319391490480852e-05
8.491245622811405838e+02 4.592996303457470023e-05
8.500250125062531197e+02 4.710239426853046605e-05
8.509254627313656556e+02 4.781840677596581150e-05
8.518259129564781915e+02 4.814749962115809660e-05
8.527263631815907274e+02 4.835229017577245592e-05
8.536268134067032634e+02 4.855987932035113182e-05
8.545272636318159130e+02 4.900747409101103744e-05
8.554277138569284489e+02 4.958385519843497942e-05
8.563281640820409848e+02 4.989287907227970040e-05
8.572286143071535207e+02 4.974980208780842408e-05
8.581290645322660566e+02 4.908608630890853760e-05
8.590295147573785925e+02 4.828538258673140907e-05
8.599299649824912422e+02 4.842934060890774375e-05
8.608304152076037781e+02 4.930409152072840856e-05
8.617308654327163140e+02 4.991786984474187266e-05
8.626313156578288499e+02 4.955127543028911124e-05
8.635317658829413858e+02 4.921821509637835322e-05
8.644322161080540354e+02 4.961311093000733431e-05
8.653326663331665713e+02 5.052376581128049623e-05
8.662331165582791073e+02 5.074258876361016120e-05
8.671335667833916432e+02 4.982495018017289463e-05
8.680340170085041791e+02 4.889700563347503979e-05
8.689344672336167150e+02 4.864412495036597576e-05
8.698349174587293646e+02 4.972937949246980174e-05
8.707353676838419005e+02 5.170840950085621863e-05
8.716358179089544365e+02 5.326267284861278996e-05
8.725362681340669724e+02 5.293399251359779382e-05
8.734367183591795083e+02 5.116168417808399950e-05
8.743371685842921579e+02 5.018822201351243390e-05
8.752376188094046938e+02 5.080470769755010156e-05
8.761380690345172297e+02 5.248405267526595129e-05
8.770385192596297657e+02 5.352554654637410342e-05
8.779389694847423016e+02 5.235605057570484323e-05
8.788394197098548375e+02 5.117192007685537707e-05
8.797398699349674871e+02 5.150006167804027071e-05
8.806403201600800230e+02 5.281951650299171344e-05
8.815407703851925589e+02 5.477166443527301746e-05
8.824412206103050949e+02 5.706908134807353280e-05
8.833416708354176308e+02 5.808978399868778024e-05
8.842421210605301667e+02 5.742399563862316458e-05
8.851425712856428163e+02 5.677004727627890022e-05
8.860430215107553522e+02 5.670242232864456999e-05
8.869434717358678881e+02 5.702856628084015532e-05
8.878439219609804240e+02 5.852551370022271286e-05
8.887443721860929600e+02 6.078842083918507551e-05
8.896448224112056096e+02 6.217460800320647493e-05
8.905452726363181455e+02 6.259821072544685693e-05
8.914457228614306814e+02 6.249624699624530791e-05
8.923461730865432173e+02 6.246864559271437785e-05
8.932466233116557532e+02 6.279562552245371049e-05
8.941470735367682892e+02 6.300484641374832985e-05
8.950475237618809388e+02 6.336017425417719872e-05
8.959479739869934747e+02 6.375393437388762665e-05
8.968484242121060106e+02 6.534941727045366405e-05
8.977488744372185465e+02 6.759487141416173968e-05
8.986493246623310824e+02 6.851416951154661961e-05
8.995497748874437320e+02 6.789704138143239662e-05
9.004502251125562680e+02 6.693819249778147000e-05
9.013506753376688039e+02 6.680938204499175604e-05
9.022511255627813398e+02 6.737834416888070939e-05
9.031515757878938757e+02 6.847402067571940548e-05
9.040520260130064116e+02 6.925521566315184709e-05
9.049524762381190612e+02 6.989190558641172543e-05
9.058529264632315972e+02 7.153258412862130563e-05
9.067533766883441331e+02 7.385484655194497338e-05
9.076538269134566690e+02 7.531995172554258793e-05
9.085542771385692049e+02 7.571058713466084149e-05
9.094547273636817408e+02 7.571681333793768098e-05
9.103551775887943904e+02 7.592489778343974025e-05
9.112556278139069263e+02 7.697632666587154765e-05
9.121560780390194623e+02 8.006436004692703062e-05
9.130565282641319982e+02 8.345983933976774787e-05
9.139569784892445341e+02 8.393924496476809895e-05
9.148574287143571837e+02 8.122484173326169842e-05
9.157578789394697196e+02 7.829260730548113373e-05
9.166583291645822555e+02 7.715340380390331757e-05
9.175587793896947915e+02 7.703152959080693284e-05
9.184592296148073274e+02 7.711790424953293146e-05
9.193596798399198633e+02 7.689663759469403230e-05
9.202601300650325129e+02 7.690269538640267925e-05
9.211605802901450488e+02 7.837417898025562989e-05
9.220610305152575847e+02 8.146535797680398185e-05
9.229614807403701207e+02 8.472134743818183946e-05
9.238619309654826566e+02 8.741280035391244007e-05
9.247623811905953062e+02 8.899949795400125419e-05
9.256628314157078421e+02 8.942008194576155848e-05
9.265632816408203780e+02 8.946445896000438313e-05
9.274637318659329139e+02 8.914214338114791864e-05
9.283641820910454499e+02 8.966198202280964912e-05
9.292646323161579858e+02 9.252405196145096751e-05
9.301650825412706354e+02 9.587730391013730763e-05
9.310655327663831713e+02 9.626694342591242740e-05
9.319659829914957072e+02 9.362873508949259111e-05
9.328664332166082431e+02 9.110793882072923985e-05
9.337668834417207790e+02 9.125273557414846637e-05
9.346673336668334287e+02 9.384727856699317378e-05
9.355677838919459646e+02 9.662821695078078305e-05
9.364682341170585005e+02 9.794596629563351352e-05
9.373686843421710364e+02 9.757096673627875961e-05
9.382691345672835723e+02 9.673179467251325154e-05
9.391695847923961082e+02 9.650381096483091350e-05
9.400700350175087578e+02 9.825307154658717286e-05
9.409704852426212938e+02 1.015738613653612243e-04
9.418709354677338297e+02 1.038136493389742090e-04
9.427713856928463656e+02 1.042549530722645365e-04
9.436718359179589015e+02 1.049045078972365264e-04
9.445722861430714374e+02 1.060123036565118420e-04
9.454727363681840870e+02 1.068348033202851978e-04
9.463731865932966230e+02 1.070754136056961475e-04
9.472736368184091589e+02 1.072153507438766603e-04
9.481740870435216948e+02 1.089522418069261090e-04
9.490745372686342307e+02 1.122593625074665873e-04
9.499749874937468803e+02 1.138885518325544964e-04
9.508754377188594162e+02 1.116618484861756614e-04
9.517758879439719522e+02 1.087698600710879321e-04
9.526763381690844881e+02 1.085850512839751046e-04
9.535767883941970240e+02 1.103292378795932684e-04
9.544772386193095599e+02 1.127620108981311817e-04
9.553776888444222095e+02 1.159501664278842907e-04
9.562781390695347454e+02 1.192314650116052147e-04
9.571785892946472813e+02 1.234175003677180312e-04
9.580790395197598173e+02 1.282951172487585578e-04
9.589794897448723532e+02 1.317689091427803351e-04
9.598799399699850028e+02 1.327078807395697102e-04
9.607803901950975387e+02 1.330417979867388101e-04
9.616808404202100746e+02 1.345154930267488844e-04
9.625812906453226105e+02 1.368157248567763648e-04
9.634817408704351465e+02 1.390100096791981293e-04
9.643821910955476824e+02 1.407397496040423536e-04
9.652826413206603320e+02 1.417662304927092942e-04
9.661830915457728679e+02 1.409210436859205644e-04
9.670835417708854038e+02 1.374209317471592135e-04
9.679839919959979397e+02 1.335980994769210485e-04
9.688844422211104757e+02 1.333364505307986340e-04
9.697848924462230116e+02 1.368435057664399771e-04
9.706853426713356612e+02 1.411195441574838723e-04
9.715857928964481971e+02 1.450553170370465716e-04
9.724862431215607330e+02 1.491417241325478571e-04
9.733866933466732689e+02 1.561823000514290323e-04
9.742871435717858049e+02 1.654584975567374564e-04
9.751875937968984545e+02 1.706365370271268396e-04
9.760880440220109904e+02 1.696385587529533341e-04
9.769884942471235263e+02 1.653019497424939005e-04
9.778889444722360622e+02 1.614192073908662472e-04
9.787893946973485981e+02 1.617770639918336890e-04
9.796898449224611340e+02 1.635384023375105488e-04
9.805902951475737837e+02 1.630771096254406941e-04
9.814907453726863196e+02 1.639356183250669646e-04
9.823911955977988555e+02 1.676940711675294407e-04
9.832916458229113914e+02 1.692951498278193656e-04
9.841920960480239273e+02 1.659357287262529278e-04
9.850925462731365769e+02 1.613605541763304355e-04
9.859929964982491128e+02 1.584396796288950373e-04
9.868934467233616488e+02 1.578453450948214432e-04
9.877938969484741847e+02 1.592862682301109936e-04
9.886943471735867206e+02 1.600380397636246726e-04
9.895947973986992565e+02 1.597427526184142757e-04
9.904952476238119061e+02 1.603021193809387802e-04
9.913956978489244420e+02 1.629317282364362712e-04
9.922961480740369780e+02 1.670325396419060132e-04
9.931965982991495139e+02 1.714281756459102777e-04
9.940970485242620498e+02 1.757704270729999361e-04
9.949974987493745857e+02 1.791724228586554380e-04
9.958979489744872353e+02 1.828275249656763335e-04
9.967983991995997712e+02 1.871885116436436012e-04
9.976988494247123072e+02 1.896027556185934167e-04
9.985992996498248431e+02 1.887070728396909381e-04
9.994997498749373790e+02 1.859848505003487099e-04
1.000400200100050029e+03 1.841769334205284314e-04
1.001300650325162565e+03 1.844806882212063923e-04
1.002201100550275100e+03 1.883161738496932718e-04
1.003101550775387636e+03 1.942206116165795873e-04
1.004002001000500172e+03 2.003994128027414832e-04
1.004902451225612708e+03 2.074297490444114802e-04
1.005802901450725358e+03 2.137059102981717898e-04
1.006703351675837894e+03 2.159612729044625657e-04
1.007603801900950430e+03 2.155378894733976799e-04
1.008504252126062966e+03 2.153478938505513929e-04
1.009404702351175501e+03 2.154794573849476262e-04
1.010305152576288151e+03 2.159312757484621397e-04
1.011205602801400687e+03 2.183922340907597215e-04
1.012106053026513223e+03 2.221953152687462319e-04
1.013006503251625759e+03 2.241175681915713168e-04
1.013906953476738295e+03 2.235735973462580652e-04
1.014807403701850831e+03 2.231596400519987697e-04
1.015707853926963480e+03 2.255043018263538283e-04
1.016608304152076016e+03 2.268288650812256928e-04
1.017508754377188552e+03 2.244618035844641527e-04
1.018409204602301088e+03 2.207275099035004343e-04
1.019309654827413624e+03 2.173383233313486184e-04
1.020210105052526160e+03 2.172287331724620334e-04
1.021110555277638809e+03 2.224579609681084068e-04
1.022011005502751345e+03 2.312414563218388264e-04
1.022911455727863881e+03 2.403648307509662736e-04
1.023811905952976417e+03 2.464794952735202441e-04
1.024712356178089067e+03 2.494246391507486463e-04
1.025612806403201603e+03 2.504194056131826785e-04
1.026513256628314139e+03 2.477919873979425158e-04
1.027413706853426675e+03 2.432925171949631407e-04
1.028314157078539210e+03 2.391287226763329384e-04
1.029214607303651746e+03 2.371191953301499133e-04
1.030115057528764282e+03 2.365661724781276847e-04
1.031015507753876818e+03 2.360618520844409035e-04
1.031915957978989354e+03 2.350668033949108754e-04
1.032816408204101890e+03 2.376227398341163564e-04
1.033716858429214653e+03 2.462932713505849272e-04
1.034617308654327189e+03 2.539165155177951455e-04
1.035517758879439725e+03 2.535115331000648443e-04
1.036418209104552261e+03 2.501886432187818234e-04
1.037318659329664797e+03 2.536758840108339083e-04
1.038219109554777333e+03 2.636168234520251457e-04
1.039119559779889869e+03 2.682794796580188269e-04
1.040020010005002405e+03 2.659152033476317877e-04
1.040920460230114941e+03 2.617951804795956203e-04
1.041820910455227477e+03 2.564447462812953190e-04
1.042721360680340013e+03 2.529063285475813467e-04
1.043621810905452776e+03 2.530417196426913771e-04
1.044522261130565312e+03 2.541032084978781858e-04
1.045422711355677848e+03 2.529526733896969495e-04
1.046323161580790384e+03 2.521951805186932352e-04
1.047223611805902920e+03 2.532537917389542331e-04
1.048124062031015455e+03 2.550424693617096839e-04
1.049024512256127991e+03 2.570114477564670180e-04
1.049924962481240527e+03 2.578289091866518400e-04
1.050825412706353063e+03 2.562867641390672809e-04
1.051725862931465599e+03 2.533082260298421900e-04
1.052626313156578135e+03 2.525289958897647164e-04
1.053526763381690898e+03 2.541142778309101878e-04
1.054427213606803434e+03 2.583140746359537695e-04
1.055327663831915970e+03 2.643432975682839239e-04
1.056228114057028506e+03 2.703563344136989061e-04
1.057128564282141042e+03 2.737395793632424966e-04
1.058029014507253578e+03 2.769479298377679156e-04
1.058929464732366114e+03 2.835311227874983829e-04
1.059829914957478650e+03 2.947284822853797246e-04
1.060730365182591186e+03 3.070309144367613040e-04
1.061630815407703722e+03 3.154808560153197529e-04
1.062531265632816257e+03 3.139923231558591939e-04
1.063431715857929021e+03 3.056293986644677274e-04
1.064332166083041557e+03 2.992999348816455089e-04
1.065232616308154093e+03 2.963815777783993639e-04
1.066133066533266629e+03 2.960614955210154114e-04
1.067033516758379164e+03 2.963057301056191539e-04
1.067933966983491700e+03 2.942475339685138584e-04
1.068834417208604236e+03 2.925720787779573597e-04
1.069734867433716772e+03 2.921904805856903901e-04
1.070635317658829308e+03 2.938064922591105614e-04
1.071535767883941844e+03 2.966445487147033279e-04
1.072436218109054380e+03 2.961538122490704750e-04
1.073336668334167143e+03 2.916848497007204911e-04
1.074237118559279679e+03 2.850767361656017778e-04
1.075137568784392215e+03 2.787950705050790731e-04
1.076038019009504751e+03 2.749460861173035346e-04
1.076938469234617287e+03 2.736540215950927042e-04
1.077838919459729823e+03 2.728611811296436751e-04
1.078739369684842359e+03 2.710601363227197651e-04
1.079639819909954895e+03 2.684857305639273893e-04
1.080540270135067431e+03 2.675264641225699389e-04
1.081440720360179967e+03 2.675414528535065306e-04
1.082341170585292502e+03 2.690570548316738786e-04
1.083241620810405038e+03 2.721562170048667816e-04
1.084142071035517802e+03 2.721808933320545021e-04
1.085042521260630338e+03 2.719834993930599467e-04
1.085942971485742873e+03 2.802143291002046998e-04
1.086843421710855409e+03 2.933108548893295967e-04
1.087743871935967945e+03 3.012332219324058099e-04
1.088644322161080481e+03 3.022103948608265665e-04
1.089544772386193017e+03 3.010314763776724420e-04
1.090445222611305553e+03 3.003518797889552549e-04
1.091345672836418089e+03 3.026961622304315388e-04
1.092246123061530625e+03 3.110653215874130211e-04
1.093146573286643161e+03 3.166305735026039500e-04
1.094047023511755924e+03 3.110483686154452091e-04
1.094947473736868460e+03 3.024614275403474345e-04
1.095847923961980996e+03 2.997863667991856082e-04
1.096748374187093532e+03 3.041247624831989386e-04
1.097648824412206068e+03 3.118307155882771927e-04
1.098549274637318604e+03 3.172257585081741027e-04
1.099449724862431140e+03 3.191875579987697134e-04
1.100350175087543676e+03 3.191993210640822125e-04
1.101250625312656211e+03 3.174650033008303228e-04
1.102151075537768747e+03 3.157216160950320686e-04
1.103051525762881283e+03 3.133798584652119717e-04
1.103951975987994047e+03 3.086690963118648100e-04
1.104852426213106583e+03 3.077342882391666842e-04
1.105752876438219118e+03 3.154985950517356355e-04
1.106653326663331654e+03 3.263494395198781499e-04
1.107553776888444190e+03 3.321022076423881734e-04
1.108454227113556726e+03 3.380270545363549457e-04
1.109354677338669262e+03 3.498284561592947977e-04
1.110255127563781798e+03 3.670117542134840793e-04
1.111155577788894334e+03 3.849612104038585233e-04
1.112056028014006870e+03 4.013548757109176054e-04
1.112956478239119406e+03 4.200669965168612433e-04
1.113856928464232169e+03 4.401589426997499230e-04
1.114757378689344705e+03 4.646240109304661291e-04
1.115657828914457241e+03 4.895570572570584174e-04
1.116558279139569777e+03 5.064691396731309768e-04
1.117458729364682313e+03 5.177399519009783131e-04
1.118359179589794849e+03 5.364613404444555167e-04
1.119259629814907385e+03 5.625841853566018996e-04
1.120160080040019920e+03 5.849030210062042701e-04
1.121060530265132456e+03 6.004970342586404873e-04
1.121960980490244992e+03 6.206123332169518475e-04
1.122861430715357528e+03 6.612187803211668239e-04
1.123761880940470292e+03 7.115957071445236891e-04
1.124662331165582827e+03 7.621992987125547712e-04
1.125562781390695363e+03 8.137797609252109049e-04
1.126463231615807899e+03 8.763515438442151442e-04
1.127363681840920435e+03 9.475268355306015961e-04
1.128264132066032971e+03 1.023440439113055189e-03
1.129164582291145507e+03 1.108084260518605452e-03
1.130065032516258043e+03 1.212513908746518489e-03
1.130965482741370579e+03 1.323083995753136484e-03
1.131865932966483115e+03 1.403043639153552001e-03
1.132766383191595651e+03 1.437775574880269117e-03
1.133666833416708187e+03 1.443857570482083661e-03
1.134567283641820950e+03 1.446362538211550929e-03
1.135467733866933486e+03 1.466024632341337511e-03
1.136368184092046022e+03 1.511185751399050795e-03
1.137268634317158558e+03 1.578252666947284550e-03
1.138169084542271094e+03 1.658035434607479756e-03
1.139069534767383630e+03 1.738399971201781604e-03
1.139969984992496165e+03 1.793641266183312053e-03
1.140870435217608701e+03 1.827789019763495114e-03
1.141770885442721237e+03 1.864037494303075713e-03
1.142671335667833773e+03 1.903911169157859696e-03
1.143571785892946309e+03 1.945698783678431439e-03
1.144472236118059072e+03 1.961015238595661004e-03
1.145372686343171608e+03 1.921909202171544987e-03
1.146273136568284144e+03 1.857813673048089526e-03
1.147173586793396680e+03 1.755146044571048638e-03
1.148074037018509216e+03 1.610762751771501996e-03
1.148974487243621752e+03 1.467066699871846834e-03
1.149874937468734288e+03 1.332650699650100986e-03
1.150775387693846824e+03 1.203761518051051299e-03
1.151675837918959360e+03 1.082269121306491397e-03
1.152576288144071896e+03 9.909389034170855166e-04
1.153476738369184432e+03 9.272695776568994075e-04
1.154377188594297195e+03 8.885341166549959530e-04
1.155277638819409731e+03 8.675414799146791709e-04
1.156178089044522267e+03 8.480749499077975878e-04
1.157078539269634803e+03 8.312539202811375415e-04
1.157978989494747339e+03 8.241383833181452128e-04
1.158879439719859874e+03 8.266350136299475829e-04
1.159779889944972410e+03 8.249179489266294293e-04
1.160680340170084946e+03 8.168714620855737360e-04
1.161580790395197482e+03 8.074405972303836179e-04
1.162481240620310018e+03 7.989574792546408431e-04
1.163381690845422554e+03 7.888757695083155460e-04
1.164282141070535317e+03 7.852320964915176496e-04
1.165182591295647853e+03 7.882646245986903687e-04
1.166083041520760389e+03 7.905564620869976649e-04
1.166983491745872925e+03 7.895849626482634789e-04
1.167883941970985461e+03 7.865454515102590161e-04
1.168784392196097997e+03 7.856471756531438260e-04
1.169684842421210533e+03 7.968205282933121499e-04
1.170585292646323069e+03 8.109875954517122357e-04
1.171485742871435605e+03 8.185611477234996502e-04
1.172386193096548141e+03 8.107512042810640328e-04
1.173286643321660677e+03 7.931431337816376289e-04
1.174187093546773440e+03 7.732250012255565460e-04
1.175087543771885976e+03 7.463685116970251044e-04
1.175987993996998512e+03 7.167446083090147670e-04
1.176888444222111048e+03 6.968906087768363729e-04
1.177788894447223583e+03 6.960725193292441586e-04
1.178689344672336119e+03 7.073378653427501951e-04
1.179589794897448655e+03 7.172047738954935190e-04
1.180490245122561191e+03 7.238596993913073291e-04
1.181390695347673727e+03 7.323947099918008468e-04
1.182291145572786263e+03 7.377791347609583992e-04
1.183191595797898799e+03 7.345103287124414484e-04
1.184092046023011562e+03 7.253311618963125028e-04
1.184992496248124098e+03 7.176141863896524009e-04
1.185892946473236634e+03 7.161783778153992322e-04
1.186793396698349170e+03 7.234613142448057454e-04
1.187693846923461706e+03 7.367093425098231261e-04
1.188594297148574242e+03 7.455078972976327510e-04
1.189494747373686778e+03 7.356269794109206043e-04
1.190395197598799314e+03 7.122336438392112704e-04
1.191295647823911850e+03 6.894049336640837786e-04
1.192196098049024386e+03 6.740600578203979724e-04
1.193096548274136921e+03 6.677353249389335376e-04
1.193996998499249457e+03 6.699990257781944731e-04
1.194897448724362221e+03 6.842629765273456829e-04
1.195797898949474757e+03 7.038340674170814361e-04
1.196698349174587293e+03 7.195355267333255643e-04
1.197598799399699828e+03 7.261480645565060021e-04
1.198499249624812364e+03 7.265051723278706259e-04
1.199399699849924900e+03 7.341991420875553127e-04
1.200300150075037436e+03 7.474974623947514647e-04
1.201200600300149972e+03 7.459461541725252677e-04
1.202101050525262508e+03 7.340950459673298073e-04
1.203001500750375044e+03 7.362576499777596928e-04
1.203901950975487580e+03 7.438336234582281371e-04
1.204802401200600343e+03 7.367978121622354402e-04
1.205702851425712879e+03 7.213025572115766299e-04
1.206603301650825415e+03 7.178871285203602135e-04
1.207503751875937951e+03 7.359822387092112943e-04
1.208404202101050487e+03 7.540655323154264907e-04
1.209304652326163023e+03 7.639991603571117187e-04
1.210205102551275559e+03 7.914986638320374796e-04
1.211105552776388095e+03 8.463455206146545517e-04
1.212006003001500630e+03 8.928726514833968102e-04
1.212906453226613166e+03 9.003689286934848761e-04
1.213806903451725702e+03 8.752661124503775467e-04
1.214707353676838466e+03 8.408967668805190964e-04
1.215607803901951002e+03 8.116067143220910421e-04
1.216508254127063537e+03 7.888666570326664925e-04
1.217408704352176073e+03 7.758070585161335559e-04
1.218309154577288609e+03 7.689920629413608084e-04
1.219209604802401145e+03 7.587236374715690141e-04
1.220110055027513681e+03 7.536286568051029288e-04
1.221010505252626217e+03 7.571460220841413642e-04
1.221910955477738753e+03 7.588646361957575781e-04
1.222811405702851289e+03 7.536449657276249672e-04
1.223711855927963825e+03 7.465835634814892152e-04
1.224612306153076588e+03 7.425794921637134767e-04
1.225512756378189124e+03 7.398894893638412011e-04
1.226413206603301660e+03 7.364784406845866329e-04
1.227313656828414196e+03 7.402170148110175834e-04
1.228214107053526732e+03 7.453422104717099053e-04
1.229114557278639268e+03 7.441290387685952712e-04
1.230015007503751804e+03 7.466199289267959598e-04
1.230915457728864340e+03 7.567443450606427691e-04
1.231815907953976875e+03 7.651094283148599613e-04
1.232716358179089411e+03 7.681277453600571627e-04
1.233616808404201947e+03 7.712236461465100208e-04
1.234517258629314711e+03 7.726783484999925943e-04
1.235417708854427246e+03 7.762622233003289678e-04
1.236318159079539782e+03 7.825774446335810510e-04
1.237218609304652318e+03 7.901302390863518439e-04
1.238119059529764854e+03 8.088562335733809555e-04
1.239019509754877390e+03 8.423984160260453808e-04
1.239919959979989926e+03 8.822874270199453821e-04
1.240820410205102462e+03 9.135678722481774434e-04
1.241720860430214998e+03 9.308412809689012085e-04
1.242621310655327534e+03 9.435154096224660685e-04
1.243521760880440070e+03 9.637847604066602462e-04
1.244422211105552606e+03 9.902709213497286247e-04
1.245322661330665369e+03 1.011351924500178195e-03
1.246223111555777905e+03 1.022919858167613315e-03
1.247123561780890441e+03 1.031092017096057155e-03
1.248024012006002977e+03 1.039972450486672173e-03
1.248924462231115513e+03 1.044153336599923636e-03
1.249824912456228049e+03 1.053475844545461891e-03
1.250725362681340584e+03 1.077529984199925147e-03
1.251625812906453120e+03 1.112138207475663748e-03
1.252526263131565656e+03 1.147477382154360069e-03
1.253426713356678192e+03 1.183849391859306344e-03
1.254327163581790728e+03 1.224904540997593912e-03
1.255227613806903491e+03 1.259264074535634565e-03
1.256128064032016027e+03 1.282618039241650203e-03
1.257028514257128563e+03 1.302869354389303829e-03
1.257928964482241099e+03 1.318861307061429834e-03
1.258829414707353635e+03 1.330937764422859132e-03
1.259729864932466171e+03 1.351886038115580630e-03
1.260630315157578707e+03 1.376800401485674206e-03
1.261530765382691243e+03 1.393967873096519207e-03
1.262431215607803779e+03 1.410468040951106446e-03
1.263331665832916315e+03 1.423214850234897797e-03
1.264232116058028851e+03 1.425466716415806252e-03
1.265132566283141614e+03 1.423478982482633817e-03
1.266033016508254150e+03 1.421326524345207761e-03
1.266933466733366686e+03 1.426022700164315512e-03
1.267833916958479222e+03 1.438332417883841962e-03
1.268734367183591758e+03 1.453189729110427979e-03
1.269634817408704293e+03 1.472961344582563066e-03
1.270535267633816829e+03 1.497923654650900075e-03
1.271435717858929365e+03 1.528346394750135662e-03
1.272336168084041901e+03 1.558087668549302607e-03
1.273236618309154437e+03 1.577842131836575601e-03
1.274137068534266973e+03 1.597835067754189986e-03
1.275037518759379736e+03 1.634597095730765332e-03
1.275937968984492272e+03 1.684594434363941712e-03
1.276838419209604808e+03 1.731028961952991562e-03
1.277738869434717344e+03 1.769464682243231850e-03
1.278639319659829880e+03 1.808738769306881926e-03
1.279539769884942416e+03 1.856346103816661685e-03
1.280440220110054952e+03 1.898893683969370746e-03
1.281340670335167488e+03 1.916804336253279161e-03
1.282241120560280024e+03 1.911385457726279659e-03
1.283141570785392560e+03 1.898827929751931544e-03
1.284042021010505096e+03 1.901153017721033669e-03
1.284942471235617859e+03 1.927854412363375547e-03
1.285842921460730395e+03 1.962639228117243808e-03
1.286743371685842931e+03 1.992534527387557902e-03
1.287643821910955467e+03 2.027561518119766482e-03
1.288544272136068003e+03 2.067155349915510837e-03
1.289444722361180538e+03 2.097137517106597779e-03
1.290345172586293074e+03 2.128733910349480535e-03
1.291245622811405610e+03 2.177869614513112083e-03
1.292146073036518146e+03 2.230238523070617474e-03
1.293046523261630682e+03 2.270806334985877358e-03
1.293946973486743218e+03 2.310497551717530067e-03
1.294847423711855754e+03 2.350508298770687728e-03
1.295747873936968517e+03 2.390260654580817455e-03
1.296648324162081053e+03 2.421292252685432276e-03
1.297548774387193589e+03 2.440085439336714835e-03
1.298449224612306125e+03 2.465457370500442284e-03
1.299349674837418661e+03 2.513908581381900983e-03
1.300250125062531197e+03 2.596120931914246231e-03
1.301150575287643733e+03 2.697669489626074255e-03
1.302051025512756269e+03 2.808564198140665272e-03
1.302951475737868805e+03 2.914693194977620305e-03
1.303851925962981340e+03 2.998873162648171831e-03
1.304752376188093876e+03 3.074733874908195871e-03
1.305652826413206640e+03 3.160145335056625728e-03
1.306553276638319176e+03 3.257914757364304727e-03
1.307453726863431712e+03 3.381119262084607627e-03
1.308354177088544247e+03 3.509539241442404586e-03
1.309254627313656783e+03 3.622020182149134418e-03
1.310155077538769319e+03 3.721269731006572254e-03
1.311055527763881855e+03 3.819709456436855884e-03
1.311955977988994391e+03 3.906486110491652099e-03
1.312856428214106927e+03 3.969081704672295513e-03
1.313756878439219463e+03 4.016501126686920949e-03
1.314657328664331999e+03 4.083587227873512228e-03
1.315557778889444762e+03 4.200292942450416754e-03
1.316458229114557298e+03 4.379782143788302912e-03
1.317358679339669834e+03 4.594036601237013427e-03
1.318259129564782370e+03 4.775184066104916705e-03
1.319159579789894906e+03 4.906107218400841512e-03
1.320060030015007442e+03 5.013654881138840912e-03
1.320960480240119978e+03 5.146691926786743816e-03
1.321860930465232514e+03 5.304992457941924526e-03
1.322761380690345050e+03 5.453797000906431859e-03
1.323661830915457585e+03 5.593429658022017539e-03
1.324562281140570121e+03 5.749450797475516746e-03
1.325462731365682885e+03 5.949010679722806054e-03
1.326363181590795421e+03 6.168561823452259861e-03
1.327263631815907956e+03 6.369409333295192148e-03
1.328164082041020492e+03 6.578341519276571965e-03
1.329064532266133028e+03 6.809345954389430834e-03
1.329964982491245564e+03 7.092991018632905861e-03
1.330865432716358100e+03 7.468541198704576646e-03
1.331765882941470636e+03 7.835473794201720799e-03
1.332666333166583172e+03 8.103738114402226494e-03
1.333566783391695708e+03 8.347610752697843389e-03
1.334467233616808244e+03 8.616876149326706258e-03
1.335367683841921007e+03 8.874752646918041346e-03
1.336268134067033543e+03 9.174679002124560764e-03
1.337168584292146079e+03 9.519550639849619356e-03
1.338069034517258615e+03 9.774295992433510924e-03
1.338969484742371151e+03 9.926932950127299177e-03
1.339869934967483687e+03 1.010051395305018064e-02
1.340770385192596223e+03 1.034398718618447822e-02
1.341670835417708759e+03 1.063127256248165044e-02
1.342571285642821294e+03 1.096513365085741848e-02
1.343471735867933830e+03 1.128467263064595293e-02
1.344372186093046366e+03 1.156072583749149715e-02
1.345272636318158902e+03 1.201419441695589230e-02
1.346173086543271666e+03 1.277255743344065525e-02
1.347073536768384201e+03 1.359699376549560086e-02
1.347973986993496737e+03 1.423648708649948719e-02
1.348874437218609273e+03 1.481858801457680910e-02
1.349774887443721809e+03 1.539160396818789640e-02
1.350675337668834345e+03 1.591895315958545901e-02
1.351575787893946881e+03 1.633535891829830666e-02
1.352476238119059417e+03 1.675823196254003916e-02
1.353376688344171953e+03 1.732539132578349642e-02
1.354277138569284489e+03 1.785596947516419550e-02
1.355177588794397025e+03 1.821949812081634021e-02
1.356078039019509788e+03 1.858970139055024506e-02
1.356978489244622324e+03 1.897160068537663558e-02
1.357878939469734860e+03 1.932604624113133662e-02
1.358779389694847396e+03 1.958094897344973134e-02
1.359679839919959932e+03 1.972141702397472302e-02
1.360580290145072468e+03 1.999208668356472485e-02
1.361480740370185003e+03 2.071261022665915261e-02
1.362381190595297539e+03 2.183770761518820033e-02
1.363281640820410075e+03 2.305338045882122586e-02
1.364182091045522611e+03 2.409820764329994799e-02
1.365082541270635147e+03 2.486583720557086069e-02
1.365982991495747910e+03 2.539543689436936716e-02
1.366883441720860446e+03 2.563881564713098998e-02
1.367783891945972982e+03 2.538755359425314342e-02
1.368684342171085518e+03 2.475653156028954568e-02
1.369584792396198054e+03 2.389736911700221511e-02
1.370485242621310590e+03 2.284019856827856909e-02
1.371385692846423126e+03 2.199303253795958923e-02
1.372286143071535662e+03 2.147979588646195190e-02
1.373186593296648198e+03 2.124000190175394029e-02
1.374087043521760734e+03 2.130829152535362522e-02
1.374987493746873270e+03 2.162989583341006286e-02
1.375887943971986033e+03 2.190797621608792448e-02
1.376788394197098569e+03 2.181250473555372202e-02
1.377688844422211105e+03 2.158877255696592043e-02
1.378589294647323641e+03 2.165983294901278888e-02
1.379489744872436177e+03 2.195353666186278252e-02
1.380390195097548713e+03 2.237096357122907511e-02
1.381290645322661248e+03 2.285553155964000632e-02
1.382191095547773784e+03 2.310970606837268321e-02
1.383091545772886320e+03 2.278707391040946453e-02
1.383991995997998856e+03 2.219913180775248338e-02
1.384892446223111392e+03 2.186564476502834975e-02
1.385792896448224155e+03 2.153133354584036221e-02
1.386693346673336691e+03 2.065522087372849772e-02
1.387593796898449227e+03 1.928373887717965696e-02
1.388494247123561763e+03 1.801150477727324686e-02
1.389394697348674299e+03 1.722224669999287625e-02
1.390295147573786835e+03 1.664216924323633565e-02
1.391195597798899371e+03 1.589776121813411477e-02
1.392096048024011907e+03 1.513743942250105230e-02
1.392996498249124443e+03 1.471499070892056185e-02
1.393896948474236979e+03 1.440157127666599063e-02
1.394797398699349515e+03 1.396743881257886226e-02
1.395697848924462278e+03 1.346019008442710108e-02
1.396598299149574814e+03 1.290856160749257603e-02
1.397498749374687350e+03 1.241446922762758608e-02
1.398399199599799886e+03 1.200739474791764384e-02
1.399299649824912422e+03 1.161753424359025788e-02
1.400200100050024957e+03 1.120656545449252167e-02
1.401100550275137493e+03 1.066841932293445018e-02
1.402001000500250029e+03 1.001492858794287601e-02
1.402901450725362565e+03 9.478735252657476823e-03
1.403801900950475101e+03 9.208810979763811314e-03
1.404702351175587637e+03 9.083077153505127177e-03
1.405602801400700173e+03 8.963279607855164852e-03
1.406503251625812936e+03 8.915607362228301913e-03
1.407403701850925472e+03 8.887611169011931309e-03
1.408304152076038008e+03 8.707179020289949195e-03
1.409204602301150544e+03 8.285715753315185325e-03
1.410105052526263080e+03 7.783201408123961718e-03
1.411005502751375616e+03 7.403557363026607753e-03
1.411905952976488152e+03 7.160136955575267456e-03
1.412806403201600688e+03 6.970557803365738138e-03
1.413706853426713224e+03 6.782080746721810480e-03
1.414607303651825760e+03 6.605896931460974314e-03
1.415507753876938295e+03 6.391242576369907634e-03
1.416408204102051059e+03 6.073645417692658151e-03
1.417308654327163595e+03 5.759933057374397834e-03
1.418209104552276131e+03 5.586485421781912757e-03
1.419109554777388666e+03 5.545581065316130924e-03
1.420010005002501202e+03 5.559463127264102633e-03
1.420910455227613738e+03 5.501426555074820542e-03
1.421810905452726274e+03 5.391927091070740710e-03
1.422711355677838810e+03 5.313609051536936564e-03
1.423611805902951346e+03 5.234782043740705826e-03
1.424512256128063882e+03 5.148470528406200349e-03
1.425412706353176418e+03 5.042763490209082114e-03
1.426313156578289181e+03 4.909305727533330548e-03
1.427213606803401717e+03 4.765570287947295570e-03
1.428114057028514253e+03 4.624968684854524788e-03
1.429014507253626789e+03 4.457985474908371555e-03
1.429914957478739325e+03 4.260395764832284465e-03
1.430815407703851861e+03 4.075512436271582113e-03
1.431715857928964397e+03 3.888947127739732657e-03
1.432616308154076933e+03 3.711125362131776836e-03
1.433516758379189469e+03 3.559594170561113970e-03
1.434417208604302004e+03 3.451225106052093795e-03
1.435317658829414540e+03 3.364946968456328322e-03
1.436218109054527304e+03 3.257549255481641693e-03
1.437118559279639840e+03 3.131054845633819781e-03
1.438019009504752376e+03 3.008357454024232405e-03
1.438919459729864911e+03 2.905999699953440516e-03
1.439819909954977447e+03 2.815357469691328902e-03
1.440720360180089983e+03 2.726772505902894366e-03
1.441620810405202519e+03 2.645372062760015502e-03
1.442521260630315055e+03 2.560295890367411502e-03
1.443421710855427591e+03 2.486729489857411601e-03
1.444322161080540127e+03 2.435388214848580035e-03
1.445222611305652663e+03 2.388955961742764318e-03
1.446123061530765426e+03 2.323059578918289323e-03
1.447023511755877962e+03 2.236366849880352774e-03
1.447923961980990498e+03 2.163703928491733479e-03
1.448824412206103034e+03 2.119947378576750741e-03
1.449724862431215570e+03 2.072945425800020326e-03
1.450625312656328106e+03 2.012730794862047611e-03
1.451525762881440642e+03 1.936824635556988732e-03
1.452426213106553178e+03 1.864078569569221563e-03
1.453326663331665713e+03 1.806660819966162323e-03
1.454227113556778249e+03 1.766668199900707200e-03
1.455127563781890785e+03 1.736905994492121859e-03
1.456028014007003321e+03 1.704483585992731245e-03
1.456928464232116085e+03 1.669987283249777530e-03
1.457828914457228620e+03 1.649399743148989355e-03
1.458729364682341156e+03 1.638903415361629354e-03
1.459629814907453692e+03 1.614248788141016844e-03
1.460530265132566228e+03 1.583858772283181253e-03
1.461430715357678764e+03 1.556907379151130366e-03
1.462331165582791300e+03 1.532549861884478304e-03
1.463231615807903836e+03 1.527205993477851863e-03
1.464132066033016372e+03 1.529811188761584983e-03
1.465032516258128908e+03 1.516381629978489536e-03
1.465932966483241444e+03 1.494863610917323378e-03
1.466833416708354207e+03 1.480999860213799701e-03
1.467733866933466743e+03 1.471875448064189143e-03
1.468634317158579279e+03 1.470853782495744463e-03
1.469534767383691815e+03 1.467321371892282541e-03
1.470435217608804351e+03 1.454806285316826700e-03
1.471335667833916887e+03 1.451694313100396639e-03
1.472236118059029423e+03 1.466879405339679933e-03
1.473136568284141958e+03 1.485352957101297635e-03
1.474037018509254494e+03 1.474193672013778119e-03
1.474937468734367030e+03 1.436387472918861747e-03
1.475837918959479566e+03 1.395995465225943191e-03
1.476738369184592329e+03 1.362433771806899341e-03
1.477638819409704865e+03 1.331078490042646081e-03
1.478539269634817401e+03 1.287375367798398616e-03
1.479439719859929937e+03 1.227896819925855098e-03
1.480340170085042473e+03 1.170794521436352605e-03
1.481240620310155009e+03 1.135340195549125594e-03
1.482141070535267545e+03 1.128155572369640225e-03
1.483041520760380081e+03 1.139474550340664229e-03
1.483941970985492617e+03 1.149852040489920913e-03
1.484842421210605153e+03 1.146724886726705091e-03
1.485742871435717689e+03 1.136298901284457869e-03
1.486643321660830452e+03 1.140259822025335408e-03
1.487543771885942988e+03 1.147445517095425265e-03
1.488444222111055524e+03 1.141976958388647365e-03
1.489344672336168060e+03 1.137808039739821812e-03
1.490245122561280596e+03 1.152622593312454136e-03
1.491145572786393132e+03 1.179545052982754411e-03
1.492046023011505667e+03 1.202510696440543423e-03
1.492946473236618203e+03 1.207682079355422693e-03
1.493846923461730739e+03 1.190529901713634816e-03
1.494747373686843275e+03 1.157562325987990942e-03
1.495647823911955811e+03 1.114051753883432260e-03
1.496548274137068574e+03 1.081278194372196260e-03
1.497448724362181110e+03 1.068845691980687285e-03
1.498349174587293646e+03 1.067331621296856332e-03
1.499249624812406182e+03 1.055987807848278708e-03
1.500150075037518718e+03 1.040526852596314247e-03
1.501050525262631254e+03 1.037526204985512925e-03
1.501950975487743790e+03 1.050264603758926723e-03
1.502851425712856326e+03 1.062481455840336066e-03
1.503751875937968862e+03 1.068318396305745991e-03
1.504652326163081398e+03 1.081052321913298850e-03
1.505552776388193934e+03 1.091918493636448873e-03
1.506453226613306470e+03 1.093735207565989546e-03
1.507353676838419233e+03 1.085352842254801642e-03
1.508254127063531769e+03 1.066440916800869042e-03
1.509154577288644305e+03 1.052948881856140143e-03
1.510055027513756841e+03 1.041568829863723190e-03
1.510955477738869376e+03 1.039922063684407989e-03
1.511855927963981912e+03 1.048880598532438103e-03
1.512756378189094448e+03 1.056775101488114169e-03
1.513656828414206984e+03 1.054440026027340460e-03
1.514557278639319520e+03 1.030135566826283124e-03
1.515457728864432056e+03 9.934277995481651576e-04
1.516358179089544592e+03 9.637814524496735730e-04
1.517258629314657355e+03 9.570443207207077977e-04
1.518159079539769891e+03 9.726642140765371335e-04
1.519059529764882427e+03 9.794552715489109138e-04
1.519959979989994963e+03 9.661847385198570623e-04
1.520860430215107499e+03 9.508595391096368943e-04
1.521760880440220035e+03 9.416820386050745416e-04
1.522661330665332571e+03 9.362434665582485384e-04
1.523561780890445107e+03 9.279185032886171774e-04
1.524462231115557643e+03 9.122116564546703648e-04
1.525362681340670179e+03 9.059868868585008173e-04
1.526263131565782714e+03 9.273635109132089341e-04
1.527163581790895478e+03 9.815204359550531391e-04
1.528064032016008014e+03 1.042644295935504306e-03
1.528964482241120550e+03 1.063575241269141365e-03
1.529864932466233086e+03 1.043826339050401555e-03
1.530765382691345621e+03 1.001917927105447489e-03
1.531665832916458157e+03 9.511162115948707538e-04
1.532566283141570693e+03 9.045990807353611763e-04
1.533466733366683229e+03 8.685804701036753698e-04
1.534367183591795765e+03 8.571520746234775586e-04
1.535267633816908301e+03 8.608047618281196387e-04
1.536168084042020837e+03 8.385793424480690291e-04
1.537068534267133600e+03 7.766073873298741338e-04
1.537968984492246136e+03 7.106281039321514460e-04
1.538869434717358672e+03 6.603972177196807845e-04
1.539769884942471208e+03 6.061571416018142217e-04
1.540670335167583744e+03 5.264732892898548334e-04
1.541570785392696280e+03 4.273934457303447021e-04
1.542471235617808816e+03 3.413557682993269911e-04
1.543371685842921352e+03 2.769654748471747662e-04
1.544272136068033888e+03 2.254738552200753006e-04
1.545172586293146423e+03 1.871449877976114030e-04
1.546073036518258959e+03 1.610592178247762462e-04
1.546973486743371723e+03 1.437586722227536865e-04
1.547873936968484259e+03 1.327822483961025864e-04
1.548774387193596795e+03 1.270500845490073335e-04
1.549674837418709330e+03 1.254569970247310583e-04
1.550575287643821866e+03 1.234758711485793863e-04
1.551475737868934402e+03 1.177940856782134431e-04
1.552376188094046938e+03 1.133258093336389694e-04
1.553276638319159474e+03 1.104927637170041867e-04
1.554177088544272010e+03 1.057042046949142742e-04
1.555077538769384546e+03 1.017245205934267559e-04
1.555977988994497082e+03 9.972624790857589731e-05
1.556878439219609618e+03 9.653075905312596267e-05
1.557778889444722381e+03 9.195775010095835734e-05
1.558679339669834917e+03 8.987803239473455489e-05
1.559579789894947453e+03 9.144918201337669933e-05
1.560480240120059989e+03 9.440011930439006112e-05
1.561380690345172525e+03 9.824092433074977987e-05
1.562281140570285061e+03 1.030602312723191862e-04
1.563181590795397597e+03 1.046981916827452984e-04
1.564082041020510133e+03 1.030445947858041301e-04
1.564982491245622668e+03 1.026283685358959403e-04
1.565882941470735204e+03 1.016933235021838934e-04
1.566783391695847740e+03 9.933339488375161235e-05
1.567683841920960504e+03 9.472004281444024025e-05
1.568584292146073039e+03 8.601163373290279812e-05
1.569484742371185575e+03 7.793998676311772271e-05
1.570385192596298111e+03 7.407232485184548818e-05
1.571285642821410647e+03 7.202796113918953831e-05
1.572186093046523183e+03 6.829221995816489826e-05
1.573086543271635719e+03 6.223317887666491655e-05
1.573986993496748255e+03 5.650292369713774172e-05
1.574887443721860791e+03 5.259268152168457354e-05
1.575787893946973327e+03 5.023177947413627891e-05
1.576688344172085863e+03 4.888620655764776887e-05
1.577588794397198626e+03 4.765367604027128209e-05
1.578489244622311162e+03 4.583521125191882808e-05
1.579389694847423698e+03 4.402662844066566482e-05
1.580290145072536234e+03 4.263330316243688940e-05
1.581190595297648770e+03 4.160696040851505985e-05
1.582091045522761306e+03 4.086295659760928766e-05
1.582991495747873842e+03 4.037705014845293907e-05
1.583891945972986377e+03 4.019413219057484013e-05
1.584792396198098913e+03 4.044989699212622454e-05
1.585692846423211449e+03 4.139892759004672369e-05
1.586593296648323985e+03 4.322852068993572106e-05
1.587493746873436749e+03 4.488636963132908826e-05
1.588394197098549284e+03 4.388670014927315954e-05
1.589294647323661820e+03 4.125072564135135497e-05
1.590195097548774356e+03 3.929720090462737308e-05
1.591095547773886892e+03 3.819885099617938379e-05
1.591995997998999428e+03 3.721328130968833690e-05
1.592896448224111964e+03 3.620074503116900010e-05
1.593796898449224500e+03 3.555665617816399285e-05
1.594697348674337036e+03 3.541322839695562608e-05
1.595597798899449572e+03 3.586148336779481331e-05
1.596498249124562108e+03 3.716625915926848403e-05
1.597398699349674871e+03 3.983106885145200419e-05
1.598299149574787407e+03 4.410404325108024470e-05
1.599199599799899943e+03 4.741759605802275355e-05
1.600100050025012479e+03 4.503025909219588661e-05
1.601000500250125015e+03 3.971012493575537620e-05
1.601900950475237551e+03 3.556753120870872781e-05
1.602801400700350086e+03 3.293317579932768236e-05
1.603701850925462622e+03 3.123492528991624685e-05
1.604602301150575158e+03 3.006454244671712426e-05
1.605502751375687694e+03 2.919847491480502297e-05
1.606403201600800230e+03 2.851666450318297071e-05
1.607303651825912766e+03 2.795240047843816132e-05
1.608204102051025529e+03 2.746688959278360703e-05
1.609104552276138065e+03 2.703653148544057826e-05
1.610005002501250601e+03 2.664636034400394261e-05
1.610905452726363137e+03 2.628652575619545165e-05
1.611805902951475673e+03 2.595032512648087696e-05
1.612706353176588209e+03 2.563306017025493785e-05
1.613606803401700745e+03 2.533134840461170843e-05
1.614507253626813281e+03 2.504269512137763222e-05
1.615407703851925817e+03 2.476521951525168677e-05
1.616308154077038353e+03 2.449747483573240902e-05
1.617208604302150889e+03 2.423832747784739476e-05
1.618109054527263652e+03 2.398687394777263411e-05
1.619009504752376188e+03 2.374238272340240588e-05
1.619909954977488724e+03 2.350425281879074099e-05
1.620810405202601260e+03 2.327198376963650122e-05
1.621710855427713796e+03 2.304515356394648841e-05
1.622611305652826331e+03 2.282340218853732782e-05
1.623511755877938867e+03 2.260641920373286686e-05
1.624412206103051403e+03 2.239393424708052598e-05
1.625312656328163939e+03 2.218570969397570439e-05
1.626213106553276475e+03 2.198153492546944419e-05
1.627113556778389011e+03 2.178122180692108358e-05
1.628014007003501774e+03 2.158460108837882756e-05
1.628914457228614310e+03 2.139151951345058853e-05
1.629814907453726846e+03 2.120183747777201920e-05
1.630715357678839382e+03 2.101542711750863609e-05
1.631615807903951918e+03 2.083217073711090482e-05
1.632516258129064454e+03 2.065195950678775681e-05
1.633416708354176990e+03 2.047469237600646043e-05
1.634317158579289526e+03 2.030027516123541952e-05
1.635217608804402062e+03 2.012861977517633460e-05
1.636118059029514598e+03 1.995964357162764724e-05
1.637018509254627133e+03 1.979326878543193559e-05
1.637918959479739897e+03 1.962942205107191828e-05
1.638819409704852433e+03 1.946803398669294329e-05
1.639719859929964969e+03 1.930903883285021224e-05
1.640620310155077505e+03 1.915237413726928055e-05
1.641520760380190040e+03 1.899798047849901735e-05
1.642421210605302576e+03 1.884580122258992926e-05
1.643321660830415112e+03 1.869578230796240147e-05
1.644222111055527648e+03 1.854787205443775633e-05
1.645122561280640184e+03 1.840202099308370335e-05
1.646023011505752720e+03 1.825818171406131280e-05
1.646923461730865256e+03 1.811630873011224266e-05
1.647823911955978019e+03 1.797635835369086672e-05
1.648724362181090555e+03 1.783828858605054823e-05
1.649624812406203091e+03 1.770205901684370313e-05
1.650525262631315627e+03 1.756763073301111111e-05
1.651425712856428163e+03 1.743496623590662294e-05
1.652326163081540699e+03 1.730402936575683109e-05
1.653226613306653235e+03 1.717478523267964153e-05
1.654127063531765771e+03 1.704720015359155092e-05
1.655027513756878307e+03 1.692124159442540344e-05
1.655927963981990843e+03 1.679687811716064678e-05
1.656828414207103378e+03 1.667407933123053594e-05
1.657728864432216142e+03 1.655281584893616881e-05
1.658629314657328678e+03 1.643305924454075792e-05
1.659529764882441214e+03 1.631478201676978782e-05
1.660430215107553749e+03 1.619795755447660907e-05
1.661330665332666285e+03 1.608256010527321344e-05
1.662231115557778821e+03 1.596856474695552316e-05
1.663131565782891357e+03 1.585594736158279028e-05
1.664032016008003893e+03 1.574468461209979899e-05
1.664932466233116429e+03 1.563475392141433869e-05
1.665832916458228965e+03 1.552613345386992359e-05
1.666733366683341501e+03 1.541880209907622848e-05
1.667633816908454037e+03 1.531273945808600914e-05
1.668534267133566800e+03 1.520792583193118727e-05
1.669434717358679336e+03 1.510434221255826987e-05
1.670335167583791872e+03 1.500197027622861913e-05
1.671235617808904408e+03 1.490079237948098015e-05
1.672136068034016944e+03 1.480079155778634346e-05
1.673036518259129480e+03 1.470195152705862319e-05
1.673936968484242016e+03 1.460425668822715443e-05
1.674837418709354552e+03 1.450769213512474337e-05
1.675737868934467087e+03 1.441224366599294300e-05
1.676638319159579623e+03 1.431789779897121096e-05
1.677538769384692159e+03 1.422464179200554142e-05
1.678439219609804923e+03 1.413246366769494334e-05
1.679339669834917459e+03 1.404135224369235586e-05
1.680240120060029994e+03 1.395129716939017042e-05
1.681140570285142530e+03 1.386228896975911044e-05
1.682041020510255066e+03 1.377431909737251886e-05
1.682941470735367602e+03 1.368737999384303853e-05
1.683841920960480138e+03 1.360146516213466359e-05
1.684742371185592674e+03 1.351656925150253094e-05
1.685642821410705210e+03 1.343268815715338525e-05
1.686543271635817746e+03 1.334981913714738112e-05
1.687443721860930282e+03 1.326796094958020695e-05
1.688344172086043045e+03 1.318711401371838413e-05
1.689244622311155581e+03 1.310728059955210485e-05
1.690145072536268117e+03 1.302846505120866935e-05
1.691045522761380653e+03 1.295067405088793028e-05
1.691945972986493189e+03 1.287391693151706809e-05
1.692846423211605725e+03 1.279820604825022248e-05
1.693746873436718261e+03 1.272355722138855960e-05
1.694647323661830796e+03 1.264999026642112706e-05
1.695547773886943332e+03 1.257752963088756811e-05
1.696448224112055868e+03 1.250620516294317001e-05
1.697348674337168404e+03 1.243605304322110213e-05
1.698249124562281168e+03 1.236711692038999949e-05
1.699149574787393703e+03 1.229944930240232100e-05
1.700050025012506239e+03 1.223311327083885134e-05
1.700950475237618775e+03 1.216818460641093558e-05
1.701850925462731311e+03 1.210475444158304320e-05
1.702751375687843847e+03 1.204293259434710203e-05
1.703651825912956383e+03 1.198285178961694703e-05
1.704552276138068919e+03 1.192467304768892123e-05
1.705452726363181455e+03 1.186859262194304708e-05
1.706353176588293991e+03 1.181485101426128396e-05
1.707253626813406527e+03 1.176374480768488472e-05
1.708154077038519290e+03 1.171564236444346246e-05
1.709054527263631826e+03 1.167100489541755105e-05
1.709954977488744362e+03 1.163041509740441893e-05
1.710855427713856898e+03 1.159461661301753521e-05
1.711755877938969434e+03 1.156456922118938073e-05
1.712656328164081970e+03 1.154152730024995083e-05
1.713556778389194506e+03 1.152715339449975247e-05
1.714457228614307041e+03 1.152368586584835618e-05
1.715357678839419577e+03 1.153419184491540300e-05
1.716258129064532113e+03 1.156295821885391248e-05
1.717158579289644649e+03 1.161611243588434046e-05
1.718059029514757185e+03 1.170263811043465067e-05
1.718959479739869948e+03 1.183609259891014590e-05
1.719859929964982484e+03 1.203762018442557403e-05
1.720760380190095020e+03 1.234145243239935120e-05
1.721660830415207556e+03 1.280536982920699957e-05
1.722561280640320092e+03 1.353134951244494426e-05
1.723461730865432628e+03 1.470697426064401713e-05
1.724362181090545164e+03 1.668319758310824320e-05
1.725262631315657700e+03 2.006090558237433498e-05
1.726163081540770236e+03 2.533667437871366172e-05
1.727063531765882772e+03 3.035047212277914715e-05
1.727963981990995308e+03 2.917194453317924555e-05
1.728864432216108071e+03 2.340668974033703560e-05
1.729764882441220607e+03 1.856793318061024595e-05
1.730665332666333143e+03 1.557419275067868945e-05
1.731565782891445679e+03 1.377702115334330875e-05
1.732466233116558215e+03 1.265220275193259015e-05
1.733366683341670750e+03 1.190819103557618268e-05
1.734267133566783286e+03 1.138917373217791096e-05
1.735167583791895822e+03 1.100948056072502548e-05
1.736068034017008358e+03 1.071991048262379420e-05
1.736968484242120894e+03 1.049093226000665041e-05
1.737868934467233430e+03 1.030408718628836056e-05
1.738769384692346193e+03 1.014741343277075006e-05
1.739669834917458729e+03 1.001290884119195935e-05
1.740570285142571265e+03 9.895068222621427898e-06
1.741470735367683801e+03 9.790009521700108720e-06
1.742371185592796337e+03 9.694934698719931843e-06
1.743271635817908873e+03 9.607787348770241784e-06
1.744172086043021409e+03 9.527029531030956603e-06
1.745072536268133945e+03 9.451492852088684310e-06
1.745972986493246481e+03 9.380276971646313457e-06
1.746873436718359017e+03 9.312679089691106528e-06
1.747773886943471553e+03 9.248144096375162217e-06
1.748674337168584316e+03 9.186228764734194580e-06
1.749574787393696852e+03 9.126575653203319760e-06
1.750475237618809388e+03 9.068893828975478462e-06
1.751375687843921924e+03 9.012944453105265792e-06
1.752276138069034459e+03 8.958529877870874099e-06
1.753176588294146995e+03 8.905485313264942685e-06
1.754077038519259531e+03 8.853672394572607035e-06
1.754977488744372067e+03 8.802974171897495618e-06
1.755877938969484603e+03 8.753291173966161110e-06
1.756778389194597139e+03 8.704538291183820057e-06
1.757678839419709675e+03 8.656642288951406391e-06
1.758579289644822438e+03 8.609539809863516415e-06
1.759479739869934974e+03 8.563175758059066113e-06
1.760380190095047510e+03 8.517501984482347757e-06
1.761280640320160046e+03 8.472476210716174488e-06
1.762181090545272582e+03 8.428061143194771847e-06
1.763081540770385118e+03 8.384223740273622405e-06
1.763981990995497654e+03 8.340934602747760682e-06
1.764882441220610190e+03 8.298167464616922203e-06
1.765782891445722726e+03 8.255898765687605766e-06
1.766683341670835262e+03 8.214107291316210242e-06
1.767583791895947797e+03 8.172773867497609078e-06
1.768484242121060333e+03 8.131881101786601348e-06
1.769384692346173097e+03 8.091413162335623504e-06
1.770285142571285633e+03 8.051355588764809708e-06
1.771185592796398169e+03 8.011695129722360179e-06
1.772086043021510704e+03 7.972419602906520767e-06
1.772986493246623240e+03 7.933517774061773090e-06
1.773886943471735776e+03 7.894979252057883186e-06
1.774787393696848312e+03 7.856794397646802618e-06
1.775687843921960848e+03 7.818954243890240255e-06
1.776588294147073384e+03 7.781450426575250049e-06
1.777488744372185920e+03 7.744275123204699259e-06
1.778389194597298456e+03 7.707420999368339625e-06
1.779289644822411219e+03 7.670881161486790113e-06
1.780190095047523755e+03 7.634649115070703642e-06
1.781090545272636291e+03 7.598718727767211572e-06
1.781990995497748827e+03 7.563084196569920519e-06
1.782891445722861363e+03 7.527740018661493821e-06
1.783791895947973899e+03 7.492680965430060381e-06
1.784692346173086435e+03 7.457902059267279707e-06
1.785592796398198971e+03 7.423398552808184399e-06
1.786493246623311506e+03 7.389165910319937603e-06
1.787393696848424042e+03 7.355199790984801782e-06
1.788294147073536578e+03 7.321496033857426489e-06
1.789194597298649342e+03 7.288050644302742965e-06
1.790095047523761878e+03 7.254859781749046794e-06
1.790995497748874413e+03 7.221919748607271276e-06
1.791895947973986949e+03 7.189226980230425743e-06
1.792796398199099485e+03 7.156778035798840027e-06
1.793696848424212021e+03 7.124569590033303171e-06
1.794597298649324557e+03 7.092598425648253135e-06
1.795497748874437093e+03 7.060861426468414371e-06
1.796398199099549629e+03 7.029355571141081670e-06
1.797298649324662165e+03 6.998077927382856396e-06
1.798199099549774701e+03 6.967025646708825572e-06
1.799099549774887464e+03 6.936195959595567531e-06
1.800000000000000000e+03 6.905586171036598942e-06
