0.000000000000000000e+00 7.427168293570300282e-04
9.004502251125562351e-01 1.123424056130608445e-03
1.800900450225112470e+00 1.542233662557620155e-03
2.701350675337668594e+00 1.616704223889090051e-03
3.601800900450224940e+00 1.392374272159414622e-03
4.502251125562780842e+00 1.300094411261987042e-03
5.402701350675337189e+00 1.439548746817274601e-03
6.303151575787893535e+00 1.540253137161460249e-03
7.203601800900449881e+00 1.271247221998290499e-03
8.104052026013006227e+00 8.810984724877531050e-04
9.004502251125561685e+00 5.978945348174702227e-04
9.904952476238118919e+00 4.154173205427327755e-04
1.080540270135067438e+01 2.997278557073731900e-04
1.170585292646323161e+01 2.255384508836496247e-04
1.260630315157578707e+01 1.762557783232352609e-04
1.350675337668834430e+01 1.421532615087139407e-04
1.440720360180089976e+01 1.176340154154063161e-04
1.530765382691345522e+01 9.937830043941428277e-05
1.620810405202601245e+01 8.557191661334570185e-05
1.710855427713856969e+01 7.481357121509314657e-05
1.800900450225112337e+01 6.566655768808485805e-05
1.890945472736368060e+01 5.796752241903322013e-05
1.980990495247623784e+01 5.180106941775153653e-05
2.071035517758879507e+01 4.669209830201942387e-05
2.161080540270134875e+01 4.214332215663340074e-05
2.251125562781390599e+01 3.804722802544474147e-05
2.341170585292646322e+01 3.451630184100012408e-05
2.431215607803901690e+01 3.164261599793493843e-05
2.521260630315157414e+01 2.948847521619280218e-05
2.611305652826413137e+01 2.796687212591818483e-05
2.701350675337668861e+01 2.687868999412965508e-05
2.791395697848924229e+01 2.615507817213299827e-05
2.881440720360179952e+01 2.566537086681910281e-05
2.971485742871435676e+01 2.465552769726461529e-05
3.061530765382691044e+01 2.287562754013726290e-05
3.151575787893946767e+01 2.115245276044235118e-05
3.241620810405202491e+01 2.009825330353874772e-05
3.331665832916458214e+01 1.967683388681685963e-05
3.421710855427713938e+01 1.947352063003005238e-05
3.511755877938969661e+01 1.923863866228394130e-05
3.601800900450224674e+01 1.898002080537207823e-05
3.691845922961480397e+01 1.874201892110166238e-05
3.781890945472736121e+01 1.810806709905269697e-05
3.871935967983991844e+01 1.703797361138584496e-05
3.961980990495247568e+01 1.606020251370001524e-05
4.052026013006503291e+01 1.521880721416431338e-05
4.142071035517759015e+01 1.453222435124900682e-05
4.232116058029014027e+01 1.432353044835302774e-05
4.322161080540269751e+01 1.444391929321835355e-05
4.412206103051525474e+01 1.465894593312549897e-05
4.502251125562781198e+01 1.505324311208040867e-05
4.592296148074036921e+01 1.552848987848932371e-05
4.682341170585292645e+01 1.575696987736931734e-05
4.772386193096548368e+01 1.529229310650331744e-05
4.862431215607803381e+01 1.458361994624808552e-05
4.952476238119059104e+01 1.410283863179206892e-05
5.042521260630314828e+01 1.391744761936779779e-05
5.132566283141570551e+01 1.387778495011008143e-05
5.222611305652826275e+01 1.380752862126848816e-05
5.312656328164081998e+01 1.386538790806325560e-05
5.402701350675337721e+01 1.396944130567457433e-05
5.492746373186592734e+01 1.393054192453016206e-05
5.582791395697848458e+01 1.348509489477603652e-05
5.672836418209104181e+01 1.314384480756504198e-05
5.762881440720359905e+01 1.337330744474971631e-05
5.852926463231615628e+01 1.370338632558593949e-05
5.942971485742871351e+01 1.301069543431545959e-05
6.033016508254127075e+01 1.170010117125383727e-05
6.123061530765382088e+01 1.088770974532648128e-05
6.213106553276637811e+01 1.070487107198233246e-05
6.303151575787893535e+01 1.087650952937064819e-05
6.393196598299149258e+01 1.124717096269345739e-05
6.483241620810404982e+01 1.125685914247075717e-05
6.573286643321659994e+01 1.077072050441016798e-05
6.663331665832916428e+01 1.045711067612345631e-05
6.753376688344171441e+01 1.065425488745799425e-05
6.843421710855427875e+01 1.129159771692188715e-05
6.933466733366682888e+01 1.214245063413698182e-05
7.023511755877939322e+01 1.270187024167928849e-05
7.113556778389194335e+01 1.265266633581337309e-05
7.203601800900449348e+01 1.234782230722037711e-05
7.293646823411705782e+01 1.219750620418167391e-05
7.383691845922960795e+01 1.218450474253800698e-05
7.473736868434217229e+01 1.182258810800335653e-05
7.563781890945472242e+01 1.125549331424025513e-05
7.653826913456728676e+01 1.076427898859594529e-05
7.743871935967983688e+01 1.065638624782254684e-05
7.833916958479238701e+01 1.091831214952329532e-05
7.923961980990495135e+01 1.124380410372543542e-05
8.014007003501750148e+01 1.155728474097981425e-05
8.104052026013006582e+01 1.182170874925719235e-05
8.194097048524261595e+01 1.196010262340238125e-05
8.284142071035518029e+01 1.199687929957047060e-05
8.374187093546773042e+01 1.191357246960568672e-05
8.464232116058028055e+01 1.196057761009616215e-05
8.554277138569284489e+01 1.241091134147149030e-05
8.644322161080539502e+01 1.329080417018127984e-05
8.734367183591795936e+01 1.440526542684019539e-05
8.824412206103050949e+01 1.508353092389509627e-05
8.914457228614307382e+01 1.495244203364766478e-05
9.004502251125562395e+01 1.439840989573315622e-05
9.094547273636817408e+01 1.404928791609390387e-05
9.184592296148073842e+01 1.386262740627131031e-05
9.274637318659328855e+01 1.361758936725175253e-05
9.364682341170585289e+01 1.347066791622213155e-05
9.454727363681840302e+01 1.357077136148495720e-05
9.544772386193096736e+01 1.399711443100249847e-05
9.634817408704351749e+01 1.448084397988183996e-05
9.724862431215606762e+01 1.468454191247863139e-05
9.814907453726863196e+01 1.471216038285989684e-05
9.904952476238118209e+01 1.500611067395704247e-05
9.994997498749374643e+01 1.542039433686173276e-05
1.008504252126062966e+02 1.539739851654090536e-05
1.017508754377188609e+02 1.509781711264946921e-05
1.026513256628314110e+02 1.484558411587808505e-05
1.035517758879439612e+02 1.486578525100378709e-05
1.044522261130565255e+02 1.514784676830240884e-05
1.053526763381690756e+02 1.553494711706792679e-05
1.062531265632816400e+02 1.609472820279159703e-05
1.071535767883941901e+02 1.703376673139169259e-05
1.080540270135067544e+02 1.839291079857762999e-05
1.089544772386193046e+02 1.925673890339511799e-05
1.098549274637318547e+02 1.875889006048517288e-05
1.107553776888444190e+02 1.762607355859803883e-05
1.116558279139569692e+02 1.699837659681198185e-05
1.125562781390695335e+02 1.709008232213685691e-05
1.134567283641820836e+02 1.755068318236256624e-05
1.143571785892946480e+02 1.794299360027584608e-05
1.152576288144071981e+02 1.813723044719447176e-05
1.161580790395197482e+02 1.828990198191485857e-05
1.170585292646323126e+02 1.806396997022690688e-05
1.179589794897448627e+02 1.780601896437153834e-05
1.188594297148574270e+02 1.807339048667923746e-05
1.197598799399699772e+02 1.879248506777802708e-05
1.206603301650825415e+02 1.965243894861610330e-05
1.215607803901950916e+02 2.033138266739910983e-05
1.224612306153076418e+02 2.063415579908195130e-05
1.233616808404202061e+02 2.052537535121097312e-05
1.242621310655327562e+02 2.034903248344086508e-05
1.251625812906453206e+02 2.046379602800033886e-05
1.260630315157578707e+02 2.087692974690407054e-05
1.269634817408704350e+02 2.097023898323668731e-05
1.278639319659829852e+02 2.060225166529844399e-05
1.287643821910955353e+02 1.998921151352061750e-05
1.296648324162080996e+02 1.932214635519365943e-05
1.305652826413206640e+02 1.882379382734433227e-05
1.314657328664331999e+02 1.874360646348086128e-05
1.323661830915457642e+02 1.887677665942163053e-05
1.332666333166583286e+02 1.897217006628759803e-05
1.341670835417708929e+02 1.903158457655638628e-05
1.350675337668834288e+02 1.948389285799679234e-05
1.359679839919959932e+02 2.033350768166528554e-05
1.368684342171085575e+02 2.088034526755233811e-05
1.377688844422210934e+02 2.057570289904668150e-05
1.386693346673336578e+02 1.995938662214797902e-05
1.395697848924462221e+02 1.946713946262532179e-05
1.404702351175587864e+02 1.932793668100140144e-05
1.413706853426713224e+02 1.966517163326864847e-05
1.422711355677838867e+02 1.959869230181299153e-05
1.431715857928964510e+02 1.925347563991934395e-05
1.440720360180089870e+02 1.963126921718061455e-05
1.449724862431215513e+02 2.056589031396936887e-05
1.458729364682341156e+02 2.110833744007825850e-05
1.467733866933466800e+02 2.131793991309546390e-05
1.476738369184592159e+02 2.153175895200271940e-05
1.485742871435717802e+02 2.150313917857453612e-05
1.494747373686843446e+02 2.125094401176355339e-05
1.503751875937968805e+02 2.110987945136026450e-05
1.512756378189094448e+02 2.118078946291176133e-05
1.521760880440220092e+02 2.095876382342077773e-05
1.530765382691345735e+02 2.028310688580995167e-05
1.539769884942471094e+02 1.954615561635967823e-05
1.548774387193596738e+02 1.917263732477015995e-05
1.557778889444722381e+02 1.973003462558937200e-05
1.566783391695847740e+02 2.094678313314630254e-05
1.575787893946973384e+02 2.171518715951804509e-05
1.584792396198099027e+02 2.162843459352265481e-05
1.593796898449224670e+02 2.180030034824885350e-05
1.602801400700350030e+02 2.256240186186159942e-05
1.611805902951475673e+02 2.321522912049720310e-05
1.620810405202601316e+02 2.321442832589949327e-05
1.629814907453726676e+02 2.291224016457291465e-05
1.638819409704852319e+02 2.243856656119098551e-05
1.647823911955977962e+02 2.179230754732189971e-05
1.656828414207103606e+02 2.148658220525087841e-05
1.665832916458228965e+02 2.153218405673246416e-05
1.674837418709354608e+02 2.159326466061948149e-05
1.683841920960480252e+02 2.176840503945998208e-05
1.692846423211605611e+02 2.197380443846979730e-05
1.701850925462731254e+02 2.187261938354703519e-05
1.710855427713856898e+02 2.156241298313137713e-05
1.719859929964982541e+02 2.135694043395776223e-05
1.728864432216107900e+02 2.147002811343447885e-05
1.737868934467233544e+02 2.191567285050307961e-05
1.746873436718359187e+02 2.239820454552211279e-05
1.755877938969484546e+02 2.223706315987702126e-05
1.764882441220610190e+02 2.166397894833753320e-05
1.773886943471735833e+02 2.192542692070844522e-05
1.782891445722861476e+02 2.305798663788446317e-05
1.791895947973986836e+02 2.395900082573262547e-05
1.800900450225112479e+02 2.415192640333654325e-05
1.809904952476238122e+02 2.434914429252324581e-05
1.818909454727363482e+02 2.465521326217383054e-05
1.827913956978489125e+02 2.485589979412381779e-05
1.836918459229614768e+02 2.542277851279129639e-05
1.845922961480740412e+02 2.661724743168173752e-05
1.854927463731865771e+02 2.758046702384579454e-05
1.863931965982991414e+02 2.804886171363728768e-05
1.872936468234117058e+02 2.852049578015220703e-05
1.881940970485242417e+02 2.876418301529051847e-05
1.890945472736368060e+02 2.888048893707445661e-05
1.899949974987493704e+02 2.926327808375274553e-05
1.908954477238619347e+02 3.002435682341405323e-05
1.917958979489744706e+02 3.124715221697779271e-05
1.926963481740870350e+02 3.270142069557724216e-05
1.935967983991995993e+02 3.383077857502329302e-05
1.944972486243121352e+02 3.457828819812631331e-05
1.953976988494246996e+02 3.492376940088380864e-05
1.962981490745372639e+02 3.474706099574436220e-05
1.971985992996498283e+02 3.340753886140920939e-05
1.980990495247623642e+02 3.159157512046567882e-05
1.989994997498749285e+02 3.058485384954923544e-05
1.998999499749874929e+02 3.046099767731779085e-05
2.008004002001000288e+02 3.068464408799914190e-05
2.017008504252125931e+02 3.097369088084728575e-05
2.026013006503251574e+02 3.123523836918172850e-05
2.035017508754377218e+02 3.185068505313796359e-05
2.044022011005502577e+02 3.318044295367732254e-05
2.053026513256628220e+02 3.401752865327211490e-05
2.062031015507753864e+02 3.408098668296270214e-05
2.071035517758879223e+02 3.342135584652994025e-05
2.080040020010004866e+02 3.219882327723825130e-05
2.089044522261130510e+02 3.105871611630265679e-05
2.098049024512256153e+02 3.022085838245047224e-05
2.107053526763381512e+02 2.980354940064746926e-05
2.116058029014507156e+02 2.987103661711749969e-05
2.125062531265632799e+02 3.012200658211999844e-05
2.134067033516758158e+02 2.966706756173957121e-05
2.143071535767883802e+02 2.920391533003612633e-05
2.152076038019009445e+02 2.931648601878182191e-05
2.161080540270135089e+02 2.990260058213060698e-05
2.170085042521260448e+02 3.077334137605969544e-05
2.179089544772386091e+02 3.163276575437932406e-05
2.188094047023511735e+02 3.245396743313317176e-05
2.197098549274637094e+02 3.332391732218809840e-05
2.206103051525762737e+02 3.383508244395803640e-05
2.215107553776888381e+02 3.406425131341333514e-05
2.224112056028014024e+02 3.420622019184137440e-05
2.233116558279139383e+02 3.413597507272035154e-05
2.242121060530265027e+02 3.417769706129223398e-05
2.251125562781390670e+02 3.437932874543287115e-05
2.260130065032516029e+02 3.476923785873789257e-05
2.269134567283641672e+02 3.558622631329461664e-05
2.278139069534767316e+02 3.675305430787462934e-05
2.287143571785892959e+02 3.827234445185781980e-05
2.296148074037018318e+02 4.030320846563353946e-05
2.305152576288143962e+02 4.193652918777897130e-05
2.314157078539269605e+02 4.224959787066259959e-05
2.323161580790394964e+02 4.156429873736349091e-05
2.332166083041520608e+02 4.144127699745734554e-05
2.341170585292646251e+02 4.184899574838645171e-05
2.350175087543771895e+02 4.184590210501253332e-05
2.359179589794897254e+02 4.136930310870350438e-05
2.368184092046022897e+02 4.090218419374039494e-05
2.377188594297148541e+02 4.072415074570463403e-05
2.386193096548273900e+02 4.096808104483300634e-05
2.395197598799399543e+02 4.216604472456660237e-05
2.404202101050525187e+02 4.435468987277603421e-05
2.413206603301650830e+02 4.649765803955448586e-05
2.422211105552776189e+02 4.808694168830669193e-05
2.431215607803901833e+02 4.903034755793248342e-05
2.440220110055027476e+02 4.886616548528976051e-05
2.449224612306152835e+02 4.784084900905104693e-05
2.458229114557278479e+02 4.544903287649970452e-05
2.467233616808404122e+02 4.284903535096944844e-05
2.476238119059529765e+02 4.238588146819682282e-05
2.485242621310655124e+02 4.404255903099056922e-05
2.494247123561780768e+02 4.598432894312166864e-05
2.503251625812906411e+02 4.728545995566535746e-05
2.512256128064031770e+02 4.816708588104432262e-05
2.521260630315157414e+02 4.854543809410241450e-05
2.530265132566283057e+02 5.012545437207329021e-05
2.539269634817408701e+02 5.252770965842344989e-05
2.548274137068534060e+02 5.415934709763499101e-05
2.557278639319659703e+02 5.419525335399975196e-05
2.566283141570785347e+02 5.289926381956695762e-05
2.575287643821910706e+02 5.101311750845900539e-05
2.584292146073036633e+02 4.970926163437136189e-05
2.593296648324161993e+02 4.982155039424429643e-05
2.602301150575287352e+02 5.007466755622929077e-05
2.611305652826413279e+02 5.001663869421436181e-05
2.620310155077538639e+02 5.007960070527785076e-05
2.629314657328663998e+02 4.956690552679297325e-05
2.638319159579789925e+02 4.874547026072285406e-05
2.647323661830915285e+02 4.905911812584397145e-05
2.656328164082040644e+02 5.116317300256172356e-05
2.665332666333166571e+02 5.390384616336616337e-05
2.674337168584291931e+02 5.600606671032205928e-05
2.683341670835417858e+02 5.682512617317316564e-05
2.692346173086543217e+02 5.669735594611756771e-05
2.701350675337668577e+02 5.637152047212699851e-05
2.710355177588794504e+02 5.604039867259342443e-05
2.719359679839919863e+02 5.660673385181286759e-05
2.728364182091045222e+02 5.896379786739634906e-05
2.737368684342171150e+02 6.119671608496260896e-05
2.746373186593296509e+02 6.247556640642351372e-05
2.755377688844421868e+02 6.457631121382265648e-05
2.764382191095547796e+02 6.843164418797883467e-05
2.773386693346673155e+02 7.272372039651882076e-05
2.782391195597798514e+02 7.451660406632429421e-05
2.791395697848924442e+02 7.324221378030505074e-05
2.800400200100049801e+02 7.298126699585382295e-05
2.809404702351175729e+02 7.427287348792887503e-05
2.818409204602301088e+02 7.560916217619884886e-05
2.827413706853426447e+02 7.592936720945724289e-05
2.836418209104552375e+02 7.379141722285382577e-05
2.845422711355677734e+02 7.079789204852586027e-05
2.854427213606803093e+02 6.842134358453181187e-05
2.863431715857929021e+02 6.655221419989596171e-05
2.872436218109054380e+02 6.529643512563652397e-05
2.881440720360179739e+02 6.560190394312805692e-05
2.890445222611305667e+02 6.683270160076090023e-05
2.899449724862431026e+02 6.640442814986343258e-05
2.908454227113556385e+02 6.414378310047525236e-05
2.917458729364682313e+02 6.265172062890785845e-05
2.926463231615807672e+02 6.307950799693421502e-05
2.935467733866933600e+02 6.412155620449065934e-05
2.944472236118058959e+02 6.447240260715153104e-05
2.953476738369184318e+02 6.450776957188718394e-05
2.962481240620310246e+02 6.569324599799673554e-05
2.971485742871435605e+02 6.755596084400550131e-05
2.980490245122560964e+02 6.929485336284253900e-05
2.989494747373686891e+02 7.167064944339727735e-05
2.998499249624812251e+02 7.356004845126385512e-05
3.007503751875937610e+02 7.372735927940666145e-05
3.016508254127063537e+02 7.369093980128407046e-05
3.025512756378188897e+02 7.508914138633616356e-05
3.034517258629314256e+02 7.840910994598763138e-05
3.043521760880440183e+02 8.198163570205787491e-05
3.052526263131565543e+02 8.285754701920422169e-05
3.061530765382691470e+02 8.028057669718174590e-05
3.070535267633816829e+02 7.685820210556421961e-05
3.079539769884942189e+02 7.599146945877057542e-05
3.088544272136068116e+02 7.761011828235532951e-05
3.097548774387193475e+02 8.002275600807668473e-05
3.106553276638318835e+02 8.224027059082573217e-05
3.115557778889444762e+02 8.292943450095345104e-05
3.124562281140570121e+02 8.193842531317688965e-05
3.133566783391695481e+02 7.945312268415473226e-05
3.142571285642821408e+02 7.615338032291031861e-05
3.151575787893946767e+02 7.287358798272355030e-05
3.160580290145072127e+02 7.020803796668741387e-05
3.169584792396198054e+02 6.864223439554961194e-05
3.178589294647323413e+02 6.852165310304616217e-05
3.187593796898449341e+02 6.940883741233798312e-05
3.196598299149574700e+02 7.068701752078019207e-05
3.205602801400700059e+02 7.141048618135763324e-05
3.214607303651825987e+02 6.998099768612587072e-05
3.223611805902951346e+02 6.834505796388924638e-05
3.232616308154076705e+02 6.804811070923010973e-05
3.241620810405202633e+02 6.829110182967851968e-05
3.250625312656327992e+02 6.859527443581965350e-05
3.259629814907453351e+02 6.925507812955535643e-05
3.268634317158579279e+02 7.069266271887654149e-05
3.277638819409704638e+02 7.378312943577510820e-05
3.286643321660829997e+02 7.707209512278281611e-05
3.295647823911955925e+02 7.821022060823435600e-05
3.304652326163081284e+02 7.775084546444021737e-05
3.313656828414207212e+02 7.755558442064170767e-05
3.322661330665332571e+02 7.791188216574540743e-05
3.331665832916457930e+02 7.800250786245520459e-05
3.340670335167583858e+02 7.777543393670116731e-05
3.349674837418709217e+02 7.694823374790197082e-05
3.358679339669834576e+02 7.573385591206553517e-05
3.367683841920960504e+02 7.502211683409502549e-05
3.376688344172085863e+02 7.414359976529435255e-05
3.385692846423211222e+02 7.207041743496852865e-05
3.394697348674337150e+02 6.974876022691807605e-05
3.403701850925462509e+02 6.767024388819168658e-05
3.412706353176587868e+02 6.618439316691141026e-05
3.421710855427713796e+02 6.612438015843200229e-05
3.430715357678839155e+02 6.692922128616897697e-05
3.439719859929965082e+02 6.821748024171866694e-05
3.448724362181090441e+02 6.952334541734787356e-05
3.457728864432215801e+02 7.071596048944008819e-05
3.466733366683341728e+02 7.230515835067708689e-05
3.475737868934467087e+02 7.335758992323111001e-05
3.484742371185592447e+02 7.255490763299406881e-05
3.493746873436718374e+02 7.076144496121383916e-05
3.502751375687843733e+02 6.953323991058158089e-05
3.511755877938969093e+02 6.866154010327551115e-05
3.520760380190095020e+02 6.754283776035334278e-05
3.529764882441220379e+02 6.671990869294969868e-05
3.538769384692345739e+02 6.586024580014873155e-05
3.547773886943471666e+02 6.494543310625707150e-05
3.556778389194597025e+02 6.474429541520143150e-05
3.565782891445722953e+02 6.555806984920469252e-05
3.574787393696848312e+02 6.685678708653932105e-05
3.583791895947973671e+02 6.760167830684373641e-05
3.592796398199099599e+02 6.865896579602142344e-05
3.601800900450224958e+02 6.891908963642559658e-05
3.610805402701350317e+02 6.676808102492729532e-05
3.619809904952476245e+02 6.449544368619006772e-05
3.628814407203601604e+02 6.400448148590632679e-05
3.637818909454726963e+02 6.436008059314564226e-05
3.646823411705852891e+02 6.394695243143157454e-05
3.655827913956978250e+02 6.315926600602030756e-05
3.664832416208103609e+02 6.275764524332049378e-05
3.673836918459229537e+02 6.250555129028416022e-05
3.682841420710354896e+02 6.168779800836179104e-05
3.691845922961480824e+02 6.179204986022740443e-05
3.700850425212606183e+02 6.422910758055322823e-05
3.709854927463731542e+02 6.799562548342574352e-05
3.718859429714857470e+02 7.063742927962468664e-05
3.727863931965982829e+02 7.061578237842626015e-05
3.736868434217108188e+02 6.961378849234594538e-05
3.745872936468234116e+02 6.985170223115307498e-05
3.754877438719359475e+02 7.102633714468884244e-05
3.763881940970484834e+02 7.123423566362829015e-05
3.772886443221610762e+02 7.057080199877912479e-05
3.781890945472736121e+02 7.062275132493896570e-05
3.790895447723861480e+02 7.108928356971912135e-05
3.799899949974987408e+02 7.123713394472939498e-05
3.808904452226112767e+02 7.114588994255096471e-05
3.817908954477238694e+02 7.026029323881141512e-05
3.826913456728364054e+02 6.888354088947696338e-05
3.835917958979489413e+02 6.738922690618703772e-05
3.844922461230615340e+02 6.654132022666618684e-05
3.853926963481740700e+02 6.652752609544800326e-05
3.862931465732866059e+02 6.626314754697836408e-05
3.871935967983991986e+02 6.583499105878021500e-05
3.880940470235117346e+02 6.575540959280837001e-05
3.889944972486242705e+02 6.546719749100846618e-05
3.898949474737368632e+02 6.493838186347465928e-05
3.907953976988493991e+02 6.466751640501293137e-05
3.916958479239619351e+02 6.478024036578051547e-05
3.925962981490745278e+02 6.490700750349314113e-05
3.934967483741870637e+02 6.484937013525100987e-05
3.943971985992996565e+02 6.449723954791281282e-05
3.952976488244121924e+02 6.493749856471996347e-05
3.961980990495247283e+02 6.674479379635763507e-05
3.970985492746373211e+02 6.800334166375731010e-05
3.979989994997498570e+02 6.720109588556242523e-05
3.988994497248623929e+02 6.535185956586982148e-05
3.997998999499749857e+02 6.390399276080593665e-05
4.007003501750875216e+02 6.348987137441091495e-05
4.016008004002000575e+02 6.410400766879785603e-05
4.025012506253126503e+02 6.451100407028568650e-05
4.034017008504251862e+02 6.489749492707412202e-05
4.043021510755377221e+02 6.500947430856421317e-05
4.052026013006503149e+02 6.473658046717184510e-05
4.061030515257628508e+02 6.442068681962514955e-05
4.070035017508754436e+02 6.435900335295979444e-05
4.079039519759879795e+02 6.480407590184451372e-05
4.088044022011005154e+02 6.600783169105288028e-05
4.097048524262131082e+02 6.712584899218172426e-05
4.106053026513256441e+02 6.737766873208502264e-05
4.115057528764381800e+02 6.683007003610844565e-05
4.124062031015507728e+02 6.521335549166800425e-05
4.133066533266633087e+02 6.256139140928340203e-05
4.142071035517758446e+02 6.068129924260873037e-05
4.151075537768884374e+02 6.059882988792140881e-05
4.160080040020009733e+02 6.107106920342911856e-05
4.169084542271135092e+02 6.039650975108052793e-05
4.178089044522261020e+02 5.926969278514050476e-05
4.187093546773386379e+02 5.963317394078335653e-05
4.196098049024512306e+02 6.111231286615768454e-05
4.205102551275637666e+02 6.232543260291149802e-05
4.214107053526763025e+02 6.325040835168177977e-05
4.223111555777888952e+02 6.461910021458608616e-05
4.232116058029014312e+02 6.661654600076764301e-05
4.241120560280139671e+02 6.874218165378018002e-05
4.250125062531265598e+02 7.050472045663971476e-05
4.259129564782390958e+02 7.074617422201289125e-05
4.268134067033516317e+02 6.887080602030947948e-05
4.277138569284642244e+02 6.639216145713419930e-05
4.286143071535767604e+02 6.534623968927529827e-05
4.295147573786892963e+02 6.607164472198837329e-05
4.304152076038018890e+02 6.671045005724196575e-05
4.313156578289144250e+02 6.618275677036556824e-05
4.322161080540270177e+02 6.579856900552143411e-05
4.331165582791395536e+02 6.566653538745254287e-05
4.340170085042520896e+02 6.458642453724788000e-05
4.349174587293646823e+02 6.336043553974644285e-05
4.358179089544772182e+02 6.325365644266903392e-05
4.367183591795897541e+02 6.452502028917460645e-05
4.376188094047023469e+02 6.668532430348858022e-05
4.385192596298148828e+02 6.880769783917661537e-05
4.394197098549274187e+02 6.977731049316620486e-05
4.403201600800400115e+02 6.966708198708786355e-05
4.412206103051525474e+02 6.929016439699202748e-05
4.421210605302650833e+02 6.860002131673814294e-05
4.430215107553776761e+02 6.849145736508192926e-05
4.439219609804902120e+02 6.946889431809063153e-05
4.448224112056028048e+02 7.152136198634813152e-05
4.457228614307153407e+02 7.354542746747465395e-05
4.466233116558278766e+02 7.462311573213286850e-05
4.475237618809404694e+02 7.505932855698095271e-05
4.484242121060530053e+02 7.488322392420511397e-05
4.493246623311655412e+02 7.347096976651344333e-05
4.502251125562781340e+02 7.072463404804928914e-05
4.511255627813906699e+02 6.706207186345163420e-05
4.520260130065032058e+02 6.453501617139089123e-05
4.529264632316157986e+02 6.388732899063671487e-05
4.538269134567283345e+02 6.378673735085432642e-05
4.547273636818408704e+02 6.366187090442180694e-05
4.556278139069534632e+02 6.348724828337757849e-05
4.565282641320659991e+02 6.302791552095222646e-05
4.574287143571785919e+02 6.201699954552906578e-05
4.583291645822911278e+02 6.119716606338182659e-05
4.592296148074036637e+02 6.138718894748958557e-05
4.601300650325162565e+02 6.215097298602323254e-05
4.610305152576287924e+02 6.301367969825265227e-05
4.619309654827413283e+02 6.340435184671592477e-05
4.628314157078539210e+02 6.412004824053351879e-05
4.637318659329664570e+02 6.596938975626096186e-05
4.646323161580789929e+02 6.871162321141220436e-05
4.655327663831915856e+02 7.189339040424052229e-05
4.664332166083041216e+02 7.379234280551523072e-05
4.673336668334167143e+02 7.365486097304854848e-05
4.682341170585292502e+02 7.236357238455769084e-05
4.691345672836417862e+02 7.107498730997763368e-05
4.700350175087543789e+02 7.024093388596942952e-05
4.709354677338669148e+02 7.034906053927701501e-05
4.718359179589794508e+02 7.097848998631721017e-05
4.727363681840920435e+02 7.154340703346378073e-05
4.736368184092045794e+02 7.193491379995054999e-05
4.745372686343171154e+02 7.256610710803740121e-05
4.754377188594297081e+02 7.311754304934199697e-05
4.763381690845422440e+02 7.330825760493426115e-05
4.772386193096547800e+02 7.366970552498054877e-05
4.781390695347673727e+02 7.347228709782587712e-05
4.790395197598799086e+02 7.285586397497370993e-05
4.799399699849925014e+02 7.281290618070674606e-05
4.808404202101050373e+02 7.343736005858549445e-05
4.817408704352175732e+02 7.343681870726680931e-05
4.826413206603301660e+02 7.316364471044996091e-05
4.835417708854427019e+02 7.367426026381353860e-05
4.844422211105552378e+02 7.453556879805683564e-05
4.853426713356678306e+02 7.528798723174871506e-05
4.862431215607803665e+02 7.645485659434265481e-05
4.871435717858929024e+02 7.865814260101300684e-05
4.880440220110054952e+02 8.144757865611539614e-05
4.889444722361180311e+02 8.304485084605206101e-05
4.898449224612305670e+02 8.353311998079831493e-05
4.907453726863431598e+02 8.486066441979072165e-05
4.916458229114556957e+02 8.654987839866831083e-05
4.925462731365682885e+02 8.673448564963044173e-05
4.934467233616808244e+02 8.593435195959670165e-05
4.943471735867933603e+02 8.513679156035738708e-05
4.952476238119059531e+02 8.457529428319333648e-05
4.961480740370184890e+02 8.468635282245166982e-05
4.970485242621310249e+02 8.462692414023640795e-05
4.979489744872436177e+02 8.337761584021184560e-05
4.988494247123561536e+02 8.118082630544503915e-05
4.997498749374686895e+02 7.911310882044164390e-05
5.006503251625812823e+02 7.791350083743776346e-05
5.015507753876938182e+02 7.798084565983772430e-05
5.024512256128063541e+02 7.822535378362044530e-05
5.033516758379189469e+02 7.823450110365475624e-05
5.042521260630314828e+02 7.884909791064115964e-05
5.051525762881440755e+02 7.929243223512740912e-05
5.060530265132566115e+02 7.831475105824589231e-05
5.069534767383691474e+02 7.685376117610380042e-05
5.078539269634817401e+02 7.625545690358639787e-05
5.087543771885942760e+02 7.707251817883452728e-05
5.096548274137068120e+02 7.858977415715000898e-05
5.105552776388194047e+02 7.963976001297346831e-05
5.114557278639319406e+02 7.981842152302381596e-05
5.123561780890445334e+02 7.968809976332965033e-05
5.132566283141570693e+02 7.978044314025121769e-05
5.141570785392696052e+02 8.073213219811871595e-05
5.150575287643821412e+02 8.328831339695388870e-05
5.159579789894946771e+02 8.712272048625984279e-05
5.168584292146073267e+02 9.105267569765358596e-05
5.177588794397198626e+02 9.418695533081671511e-05
5.186593296648323985e+02 9.562818373326367001e-05
5.195597798899449344e+02 9.532625905764236429e-05
5.204602301150574704e+02 9.510274087023114285e-05
5.213606803401700063e+02 9.544640844630160911e-05
5.222611305652826559e+02 9.562851839006241631e-05
5.231615807903951918e+02 9.511544984489955735e-05
5.240620310155077277e+02 9.428884217604549729e-05
5.249624812406202636e+02 9.318350618639278785e-05
5.258629314657327996e+02 9.247861255087157575e-05
5.267633816908454492e+02 9.237580258344745075e-05
5.276638319159579851e+02 9.262398593844473461e-05
5.285642821410705210e+02 9.260025152783359656e-05
5.294647323661830569e+02 9.202868804213846187e-05
5.303651825912955928e+02 9.138726633584251101e-05
5.312656328164081287e+02 9.202838107838805020e-05
5.321660830415207784e+02 9.486665458126238579e-05
5.330665332666333143e+02 9.852594978024237877e-05
5.339669834917458502e+02 1.010679213717689736e-04
5.348674337168583861e+02 1.012646539711428348e-04
5.357678839419709220e+02 9.931144586483841566e-05
5.366683341670835716e+02 9.775452314397334460e-05
5.375687843921961075e+02 9.766579373975716990e-05
5.384692346173086435e+02 9.843503978283505503e-05
5.393696848424211794e+02 9.858558273633812562e-05
5.402701350675337153e+02 9.758245592793328069e-05
5.411705852926462512e+02 9.566809262712783017e-05
5.420710355177589008e+02 9.194088806350888350e-05
5.429714857428714367e+02 8.790821935405550801e-05
5.438719359679839727e+02 8.573512560959559224e-05
5.447723861930965086e+02 8.434250916964710504e-05
5.456728364182090445e+02 8.327906094762711287e-05
5.465732866433215804e+02 8.324390643377655059e-05
5.474737368684342300e+02 8.418597835946426550e-05
5.483741870935467659e+02 8.538900767656210935e-05
5.492746373186593019e+02 8.560471203229999884e-05
5.501750875437718378e+02 8.372542328928334672e-05
5.510755377688843737e+02 8.082950681439404945e-05
5.519759879939970233e+02 7.873131297334220460e-05
5.528764382191095592e+02 7.788740577745432981e-05
5.537768884442220951e+02 7.876544142282927436e-05
5.546773386693346310e+02 8.090236462641400177e-05
5.555777888944471670e+02 8.224605678409343038e-05
5.564782391195597029e+02 8.223529558600219558e-05
5.573786893446723525e+02 8.163762402016181492e-05
5.582791395697848884e+02 8.220597143464254209e-05
5.591795897948974243e+02 8.411665387311188411e-05
5.600800400200099602e+02 8.609368379832795534e-05
5.609804902451224962e+02 8.752582112541737556e-05
5.618809404702351458e+02 8.810883943764820782e-05
5.627813906953476817e+02 8.786807526032831708e-05
5.636818409204602176e+02 8.762883724492723204e-05
5.645822911455727535e+02 8.809665540467794920e-05
5.654827413706852894e+02 8.833572881020690089e-05
5.663831915957978254e+02 8.790196116425743516e-05
5.672836418209104750e+02 8.676238096933449619e-05
5.681840920460230109e+02 8.585719070046670407e-05
5.690845422711355468e+02 8.639854773318990800e-05
5.699849924962480827e+02 8.765459365260940927e-05
5.708854427213606186e+02 8.725272791273858673e-05
5.717858929464731546e+02 8.554673506899836989e-05
5.726863431715858042e+02 8.412317970464173208e-05
5.735867933966983401e+02 8.293469814649255100e-05
5.744872436218108760e+02 8.255112788314984630e-05
5.753876938469234119e+02 8.277919094928364876e-05
5.762881440720359478e+02 8.229916579366684662e-05
5.771885942971485974e+02 8.146001998243235784e-05
5.780890445222611334e+02 8.044243300188810191e-05
5.789894947473736693e+02 7.937251430926485236e-05
5.798899449724862052e+02 7.926184895315115792e-05
5.807903951975987411e+02 8.071285130032271121e-05
5.816908454227112770e+02 8.191808977872474856e-05
5.825912956478239266e+02 8.153585577879735198e-05
5.834917458729364625e+02 8.074779269324159085e-05
5.843921960980489985e+02 8.090267267718514565e-05
5.852926463231615344e+02 8.252179659509998753e-05
5.861930965482740703e+02 8.513012303724436691e-05
5.870935467733867199e+02 8.692390027385536364e-05
5.879939969984992558e+02 8.737719898989952324e-05
5.888944472236117917e+02 8.739319167787071405e-05
5.897948974487243277e+02 8.830907824369124107e-05
5.906953476738368636e+02 8.910018729658936805e-05
5.915957978989493995e+02 8.833687542917339618e-05
5.924962481240620491e+02 8.772373974924733205e-05
5.933966983491745850e+02 8.766595793381813336e-05
5.942971485742871209e+02 8.666337111005171286e-05
5.951975987993996569e+02 8.455553106114386467e-05
5.960980490245121928e+02 8.286147203229407587e-05
5.969984992496247287e+02 8.265850131233500779e-05
5.978989494747373783e+02 8.450385018840166822e-05
5.987993996998499142e+02 8.558188551966232317e-05
5.996998499249624501e+02 8.327687711989760781e-05
6.006003001500749860e+02 7.992574723171711273e-05
6.015007503751875220e+02 7.756091683125059075e-05
6.024012006003001716e+02 7.658567410220959871e-05
6.033016508254127075e+02 7.609722054393287479e-05
6.042021010505252434e+02 7.407253818172005984e-05
6.051025512756377793e+02 7.127195344282220043e-05
6.060030015007503152e+02 6.902960184531165770e-05
6.069034517258628512e+02 6.721722947310049159e-05
6.078039019509755008e+02 6.654968954405803125e-05
6.087043521760880367e+02 6.710426087014249071e-05
6.096048024012005726e+02 6.806493934463621819e-05
6.105052526263131085e+02 6.933181587942118342e-05
6.114057028514256444e+02 7.015609946247749009e-05
6.123061530765382940e+02 7.003089602166424627e-05
6.132066033016508300e+02 6.926498811352133653e-05
6.141070535267633659e+02 6.846895563781940218e-05
6.150075037518759018e+02 6.747491884550423839e-05
6.159079539769884377e+02 6.744005745273735594e-05
6.168084042021009736e+02 6.807079581530188538e-05
6.177088544272136232e+02 6.788990102210093751e-05
6.186093046523261592e+02 6.772275286572164183e-05
6.195097548774386951e+02 6.910147806747186851e-05
6.204102051025512310e+02 7.084865413066777375e-05
6.213106553276637669e+02 7.112514948069521771e-05
6.222111055527763028e+02 7.000548272686846565e-05
6.231115557778889524e+02 6.876481216892761823e-05
6.240120060030014884e+02 6.825094276659824689e-05
6.249124562281140243e+02 6.863884029971090606e-05
6.258129064532265602e+02 7.050451810612077847e-05
6.267133566783390961e+02 7.300495612398688995e-05
6.276138069034517457e+02 7.385481232582108522e-05
6.285142571285642816e+02 7.351804033417795635e-05
6.294147073536768175e+02 7.387077734377833153e-05
6.303151575787893535e+02 7.491727405311197853e-05
6.312156078039018894e+02 7.561029237215895671e-05
6.321160580290144253e+02 7.526129309611340255e-05
6.330165082541270749e+02 7.409789866288197602e-05
6.339169584792396108e+02 7.235195103339152323e-05
6.348174087043521467e+02 7.064851882999148005e-05
6.357178589294646827e+02 7.042753512946799523e-05
6.366183091545772186e+02 7.188073789720664469e-05
6.375187593796898682e+02 7.356822853436643678e-05
6.384192096048024041e+02 7.467805256346156427e-05
6.393196598299149400e+02 7.555690056981803876e-05
6.402201100550274759e+02 7.688822447272542784e-05
6.411205602801400119e+02 7.783527473481584606e-05
6.420210105052525478e+02 7.723387466234671165e-05
6.429214607303651974e+02 7.541659884093977859e-05
6.438219109554777333e+02 7.285467228479812062e-05
6.447223611805902692e+02 7.057151571680431623e-05
6.456228114057028051e+02 6.984234639135039027e-05
6.465232616308153411e+02 6.981365808782646497e-05
6.474237118559278770e+02 6.953547925727414294e-05
6.483241620810405266e+02 6.971604863648094561e-05
6.492246123061530625e+02 7.108821083751067961e-05
6.501250625312655984e+02 7.239409527853752659e-05
6.510255127563781343e+02 7.300615204091894309e-05
6.519259629814906702e+02 7.365271064237343041e-05
6.528264132066033198e+02 7.427912168802837216e-05
6.537268634317158558e+02 7.432236419738662877e-05
6.546273136568283917e+02 7.263434479152311451e-05
6.555277638819409276e+02 6.914474132023718498e-05
6.564282141070534635e+02 6.536229595784186751e-05
6.573286643321659994e+02 6.241521374754173857e-05
6.582291145572786490e+02 6.086555929076552295e-05
6.591295647823911850e+02 6.068702009784837013e-05
6.600300150075037209e+02 6.193059286080837729e-05
6.609304652326162568e+02 6.390546985648107986e-05
6.618309154577287927e+02 6.539002241384253328e-05
6.627313656828414423e+02 6.569069202833799804e-05
6.636318159079539782e+02 6.472723326104447804e-05
6.645322661330665142e+02 6.364169317391129199e-05
6.654327163581790501e+02 6.380239806307503897e-05
6.663331665832915860e+02 6.444579707854342446e-05
6.672336168084041219e+02 6.391575028647552680e-05
6.681340670335167715e+02 6.227752580162024786e-05
6.690345172586293074e+02 6.054473719862448047e-05
6.699349674837418434e+02 5.942601905021835596e-05
6.708354177088543793e+02 5.902912338519257968e-05
6.717358679339669152e+02 5.915621133761868420e-05
6.726363181590794511e+02 6.020852123219183133e-05
6.735367683841921007e+02 6.107619239461184826e-05
6.744372186093046366e+02 6.120221416273679443e-05
6.753376688344171725e+02 6.196518542590135237e-05
6.762381190595297085e+02 6.317523918519540340e-05
6.771385692846422444e+02 6.418371654067236921e-05
6.780390195097548940e+02 6.453928690096645787e-05
6.789394697348674299e+02 6.406970186457302456e-05
6.798399199599799658e+02 6.392051201339350025e-05
6.807403701850925017e+02 6.387806678685474732e-05
6.816408204102050377e+02 6.327739543718859301e-05
6.825412706353175736e+02 6.271102800453153112e-05
6.834417208604302232e+02 6.231228674976444534e-05
6.843421710855427591e+02 6.274214558934402359e-05
6.852426213106552950e+02 6.413449062472643969e-05
6.861430715357678309e+02 6.489126774235661865e-05
6.870435217608803669e+02 6.442561621738139620e-05
6.879439719859930165e+02 6.308052115099483520e-05
6.888444222111055524e+02 6.150335876701199965e-05
6.897448724362180883e+02 6.106725246857869346e-05
6.906453226613306242e+02 6.158527534617670024e-05
6.915457728864431601e+02 6.221832932392830915e-05
6.924462231115556961e+02 6.255407228588404978e-05
6.933466733366683457e+02 6.255168136407704871e-05
6.942471235617808816e+02 6.196618337960796267e-05
6.951475737868934175e+02 6.144075702939353950e-05
6.960480240120059534e+02 6.120171129553486796e-05
6.969484742371184893e+02 6.079230567637929934e-05
6.978489244622311389e+02 6.051731133800803092e-05
6.987493746873436749e+02 6.098110704016950460e-05
6.996498249124562108e+02 6.224164148865087053e-05
7.005502751375687467e+02 6.304227423236423097e-05
7.014507253626812826e+02 6.237117198333844874e-05
7.023511755877938185e+02 6.104446942191296905e-05
7.032516258129064681e+02 6.018799600167521038e-05
7.041520760380190040e+02 6.023126894497201229e-05
7.050525262631315400e+02 6.091723380099491465e-05
7.059529764882440759e+02 6.217482167501033096e-05
7.068534267133566118e+02 6.342835074383252713e-05
7.077538769384691477e+02 6.475549956165672992e-05
7.086543271635817973e+02 6.700423259203369761e-05
7.095547773886943332e+02 6.956757814860491140e-05
7.104552276138068692e+02 7.105081544533410620e-05
7.113556778389194051e+02 7.101712154272770653e-05
7.122561280640319410e+02 6.965527766520083249e-05
7.131565782891445906e+02 6.745557980651090558e-05
7.140570285142571265e+02 6.483932513479456956e-05
7.149574787393696624e+02 6.317819745824026687e-05
7.158579289644821984e+02 6.370875048067099636e-05
7.167583791895947343e+02 6.621092026414356676e-05
7.176588294147072702e+02 6.929789777003912059e-05
7.185592796398199198e+02 7.187093276617526766e-05
7.194597298649324557e+02 7.405765640888072726e-05
7.203601800900449916e+02 7.583736988541731104e-05
7.212606303151575275e+02 7.593451260960249263e-05
7.221610805402700635e+02 7.367469132774369486e-05
7.230615307653827131e+02 7.100975002637437887e-05
7.239619809904952490e+02 6.904155237419329295e-05
7.248624312156077849e+02 6.832619751044348899e-05
7.257628814407203208e+02 6.879963440424101656e-05
7.266633316658328567e+02 6.922058964910815016e-05
7.275637818909453927e+02 6.952580192788203241e-05
7.284642321160580423e+02 7.088227579077284500e-05
7.293646823411705782e+02 7.181339605009933065e-05
7.302651325662831141e+02 7.121054283712940436e-05
7.311655827913956500e+02 6.893235920600919930e-05
7.320660330165081859e+02 6.585076056520139626e-05
7.329664832416207219e+02 6.412216292859934370e-05
7.338669334667333715e+02 6.364946462291364276e-05
7.347673836918459074e+02 6.282040340018293922e-05
7.356678339169584433e+02 6.070233346377290720e-05
7.365682841420709792e+02 5.773287915861072088e-05
7.374687343671835151e+02 5.508229897910789515e-05
7.383691845922961647e+02 5.362185392109012927e-05
7.392696348174087007e+02 5.344957518268636076e-05
7.401700850425212366e+02 5.445952407371040788e-05
7.410705352676337725e+02 5.593811485885012474e-05
7.419709854927463084e+02 5.717082620800992222e-05
7.428714357178588443e+02 5.807043346254367504e-05
7.437718859429714939e+02 5.886394471542452986e-05
7.446723361680840299e+02 5.954134981199351781e-05
7.455727863931965658e+02 6.061600322291340855e-05
7.464732366183091017e+02 6.187222348411393900e-05
7.473736868434216376e+02 6.310872097553779539e-05
7.482741370685342872e+02 6.397639207431871588e-05
7.491745872936468231e+02 6.403030454598186607e-05
7.500750375187593590e+02 6.397333273199543122e-05
7.509754877438718950e+02 6.415075753967617136e-05
7.518759379689844309e+02 6.449751752207628908e-05
7.527763881940969668e+02 6.510805104874255861e-05
7.536768384192096164e+02 6.619509024241309627e-05
7.545772886443221523e+02 6.785620675444514359e-05
7.554777388694346882e+02 6.937061500332071193e-05
7.563781890945472242e+02 6.967470135136738789e-05
7.572786393196597601e+02 6.890440125177685717e-05
7.581790895447722960e+02 6.815692179826589477e-05
7.590795397698849456e+02 6.833023506615221697e-05
7.599799899949974815e+02 6.974670382803225242e-05
7.608804402201100174e+02 7.135192570830620835e-05
7.617808904452225534e+02 7.214429645622560852e-05
7.626813406703350893e+02 7.305548639141536875e-05
7.635817908954477389e+02 7.492998883344092434e-05
7.644822411205602748e+02 7.691108348760789556e-05
7.653826913456728107e+02 7.701276846555802030e-05
7.662831415707853466e+02 7.523903706281926036e-05
7.671835917958978825e+02 7.296915160029907195e-05
7.680840420210104185e+02 7.183184021520501211e-05
7.689844922461230681e+02 7.218512514828755373e-05
7.698849424712356040e+02 7.307896745564269100e-05
7.707853926963481399e+02 7.374776992473477683e-05
7.716858429214606758e+02 7.389638284346245628e-05
7.725862931465732117e+02 7.386969989404038148e-05
7.734867433716858613e+02 7.379691412769805333e-05
7.743871935967983973e+02 7.417647881667543909e-05
7.752876438219109332e+02 7.509412011489746252e-05
7.761880940470234691e+02 7.629581016792412213e-05
7.770885442721360050e+02 7.601197573560817026e-05
7.779889944972485409e+02 7.489888138623218745e-05
7.788894447223611905e+02 7.440755304652923454e-05
7.797898949474737265e+02 7.490227899775887821e-05
7.806903451725862624e+02 7.602599210880879360e-05
7.815907953976987983e+02 7.760633723027945637e-05
7.824912456228113342e+02 7.886627315468589569e-05
7.833916958479238701e+02 7.948256494798754330e-05
7.842921460730365197e+02 7.986922246296447624e-05
7.851925962981490557e+02 8.005547540775785707e-05
7.860930465232615916e+02 7.993946229292644154e-05
7.869934967483741275e+02 7.924950634579133160e-05
7.878939469734866634e+02 7.855105047270181072e-05
7.887943971985993130e+02 7.810944260587512130e-05
7.896948474237118489e+02 7.775308634678745304e-05
7.905952976488243849e+02 7.748369179027179922e-05
7.914957478739369208e+02 7.717916780623247913e-05
7.923961980990494567e+02 7.690867349961506274e-05
7.932966483241619926e+02 7.717279011002869905e-05
7.941970985492746422e+02 7.860239529888392155e-05
7.950975487743871781e+02 8.083338786476808454e-05
7.959979989994997140e+02 8.152752402309322230e-05
7.968984492246122500e+02 7.938361409743399156e-05
7.977988994497247859e+02 7.647986262600363881e-05
7.986993496748374355e+02 7.441258900700201779e-05
7.995997998999499714e+02 7.332246589407449984e-05
8.005002501250625073e+02 7.231895039820659368e-05
8.014007003501750432e+02 7.161255371034300286e-05
8.023011505752875792e+02 7.280470360683855328e-05
8.032016008004001151e+02 7.620246388493054953e-05
8.041020510255127647e+02 8.169804263412209274e-05
8.050025012506253006e+02 8.732956488491963295e-05
8.059029514757378365e+02 9.010957913484209331e-05
8.068034017008503724e+02 9.193855095126251729e-05
8.077038519259629084e+02 9.453251742157002221e-05
8.086043021510754443e+02 9.480962874482204157e-05
8.095047523761880939e+02 9.119818565991279419e-05
8.104052026013006298e+02 8.704880239675718960e-05
8.113056528264131657e+02 8.547647139632149282e-05
8.122061030515257016e+02 8.535228994953301669e-05
8.131065532766382375e+02 8.401779259286643921e-05
8.140070035017508872e+02 8.137500941100337510e-05
8.149074537268634231e+02 7.948779736393364853e-05
8.158079039519759590e+02 7.955166563691166287e-05
8.167083541770884949e+02 8.080799153312103085e-05
8.176088044022010308e+02 8.128015931026359730e-05
8.185092546273135667e+02 8.079463381843240294e-05
8.194097048524262163e+02 8.135599447200945740e-05
8.203101550775387523e+02 8.279330305884989810e-05
8.212106053026512882e+02 8.414862552954377982e-05
8.221110555277638241e+02 8.681837505319869744e-05
8.230115057528763600e+02 9.126174490557070415e-05
8.239119559779890096e+02 9.632068043517139576e-05
8.248124062031015455e+02 1.009324443039998298e-04
8.257128564282140815e+02 1.047526409910143927e-04
8.266133066533266174e+02 1.079216763533767193e-04
8.275137568784391533e+02 1.115953300239509076e-04
8.284142071035516892e+02 1.151800473678342424e-04
8.293146573286643388e+02 1.172279088427412123e-04
8.302151075537768747e+02 1.193943289583278110e-04
8.311155577788894107e+02 1.232826641635687091e-04
8.320160080040019466e+02 1.259704992878531561e-04
8.329164582291144825e+02 1.254785269673683085e-04
8.338169084542270184e+02 1.237485547098451640e-04
8.347173586793396680e+02 1.229568163195713401e-04
8.356178089044522039e+02 1.229000604395572547e-04
8.365182591295647399e+02 1.224815212550228640e-04
8.374187093546772758e+02 1.225839054380886022e-04
8.383191595797898117e+02 1.253510086681408576e-04
8.392196098049024613e+02 1.291000364646253940e-04
8.401200600300149972e+02 1.294535848401530810e-04
8.410205102551275331e+02 1.269303230219068093e-04
8.419209604802400690e+02 1.260608852916782858e-04
8.428214107053526050e+02 1.276348658212306882e-04
8.437218609304651409e+02 1.275334524059322831e-04
8.446223111555777905e+02 1.246381643336542369e-04
8.455227613806903264e+02 1.214685234080880943e-04
8.464232116058028623e+02 1.227874593079680311e-04
8.473236618309153982e+02 1.279502330402286004e-04
8.482241120560279342e+02 1.317306458675132944e-04
8.491245622811405838e+02 1.334834175069211210e-04
8.500250125062531197e+02 1.332426789900464210e-04
8.509254627313656556e+02 1.330508478046474850e-04
8.518259129564781915e+02 1.371067092689946495e-04
8.527263631815907274e+02 1.434914872643983845e-04
8.536268134067032634e+02 1.472312265824201986e-04
8.545272636318159130e+02 1.465340441030906491e-04
8.554277138569284489e+02 1.448773125278933374e-04
8.563281640820409848e+02 1.450712344354248022e-04
8.572286143071535207e+02 1.487033457072844977e-04
8.581290645322660566e+02 1.538988160031459361e-04
8.590295147573785925e+02 1.557385087057558425e-04
8.599299649824912422e+02 1.570976756242141036e-04
8.608304152076037781e+02 1.590802264190824863e-04
8.617308654327163140e+02 1.583158432189712820e-04
8.626313156578288499e+02 1.573493634735467664e-04
8.635317658829413858e+02 1.576578311749732883e-04
8.644322161080540354e+02 1.606004806131209434e-04
8.653326663331665713e+02 1.656906472707825122e-04
8.662331165582791073e+02 1.698352895494667492e-04
8.671335667833916432e+02 1.730380687741564331e-04
8.680340170085041791e+02 1.770230180195905693e-04
8.689344672336167150e+02 1.828878718396203401e-04
8.698349174587293646e+02 1.895754542139485306e-04
8.707353676838419005e+02 1.952265812767072460e-04
8.716358179089544365e+02 1.978550547701145594e-04
8.725362681340669724e+02 1.971949319471655261e-04
8.734367183591795083e+02 1.938702421634730432e-04
8.743371685842921579e+02 1.926742770940936746e-04
8.752376188094046938e+02 1.971651183640990806e-04
8.761380690345172297e+02 2.035112885685819769e-04
8.770385192596297657e+02 2.082996237148781451e-04
8.779389694847423016e+02 2.115342842689408361e-04
8.788394197098548375e+02 2.137023239218891976e-04
8.797398699349674871e+02 2.128151737996441248e-04
8.806403201600800230e+02 2.096878804226960246e-04
8.815407703851925589e+02 2.077342934698304684e-04
8.824412206103050949e+02 2.077482875235999577e-04
8.833416708354176308e+02 2.103642428689422904e-04
8.842421210605301667e+02 2.149609614753682230e-04
8.851425712856428163e+02 2.207901135245968194e-04
8.860430215107553522e+02 2.252360123446835399e-04
8.869434717358678881e+02 2.252857327316829547e-04
8.878439219609804240e+02 2.233842922139181030e-04
8.887443721860929600e+02 2.200761712988769775e-04
8.896448224112056096e+02 2.143911896985610868e-04
8.905452726363181455e+02 2.103967972616563884e-04
8.914457228614306814e+02 2.123335022679443188e-04
8.923461730865432173e+02 2.171772877183684829e-04
8.932466233116557532e+02 2.208662513537790813e-04
8.941470735367682892e+02 2.257744018645029211e-04
8.950475237618809388e+02 2.288442102507233186e-04
8.959479739869934747e+02 2.246727330559650032e-04
8.968484242121060106e+02 2.188584631704101717e-04
8.977488744372185465e+02 2.169434846747300238e-04
8.986493246623310824e+02 2.186382487094585755e-04
8.995497748874437320e+02 2.207471361309037018e-04
9.004502251125562680e+02 2.194606423178300169e-04
9.013506753376688039e+02 2.121811483982705669e-04
9.022511255627813398e+02 2.051145373033386502e-04
9.031515757878938757e+02 2.051765783187194396e-04
9.040520260130064116e+02 2.102092290744161126e-04
9.049524762381190612e+02 2.161521293958359785e-04
9.058529264632315972e+02 2.217986548381501962e-04
9.067533766883441331e+02 2.279124880855903999e-04
9.076538269134566690e+02 2.336282496008724346e-04
9.085542771385692049e+02 2.374669748707976193e-04
9.094547273636817408e+02 2.399695832489705835e-04
9.103551775887943904e+02 2.425470593047074060e-04
9.112556278139069263e+02 2.493282359734902008e-04
9.121560780390194623e+02 2.604123603598953117e-04
9.130565282641319982e+02 2.741069537522523945e-04
9.139569784892445341e+02 2.880298127397331286e-04
9.148574287143571837e+02 2.942248165872834629e-04
9.157578789394697196e+02 2.842892129379665910e-04
9.166583291645822555e+02 2.639679059014802295e-04
9.175587793896947915e+02 2.459104196686908664e-04
9.184592296148073274e+02 2.362197345341402138e-04
9.193596798399198633e+02 2.322608267431521846e-04
9.202601300650325129e+02 2.335484766501321049e-04
9.211605802901450488e+02 2.389588755657988709e-04
9.220610305152575847e+02 2.460614982191237812e-04
9.229614807403701207e+02 2.550867232348298435e-04
9.238619309654826566e+02 2.653225323151087861e-04
9.247623811905953062e+02 2.761393664914648955e-04
9.256628314157078421e+02 2.839812071306315930e-04
9.265632816408203780e+02 2.881946339375059769e-04
9.274637318659329139e+02 2.930028901169996910e-04
9.283641820910454499e+02 2.941354207776339293e-04
9.292646323161579858e+02 2.844659927429390913e-04
9.301650825412706354e+02 2.709199105145783382e-04
9.310655327663831713e+02 2.642138423199134304e-04
9.319659829914957072e+02 2.660117416432866851e-04
9.328664332166082431e+02 2.723589973547269061e-04
9.337668834417207790e+02 2.791025683817816754e-04
9.346673336668334287e+02 2.838927991753529547e-04
9.355677838919459646e+02 2.870311600616103792e-04
9.364682341170585005e+02 2.872897396823539755e-04
9.373686843421710364e+02 2.830582994150398937e-04
9.382691345672835723e+02 2.806788476381147260e-04
9.391695847923961082e+02 2.838048730780800156e-04
9.400700350175087578e+02 2.883073431943289832e-04
9.409704852426212938e+02 2.924139496415089235e-04
9.418709354677338297e+02 2.943798873109095297e-04
9.427713856928463656e+02 2.972260747803969795e-04
9.436718359179589015e+02 2.974998184127183518e-04
9.445722861430714374e+02 2.912610606175707116e-04
9.454727363681840870e+02 2.837747334343765295e-04
9.463731865932966230e+02 2.792295771242282688e-04
9.472736368184091589e+02 2.819477595813045957e-04
9.481740870435216948e+02 2.904704005741820896e-04
9.490745372686342307e+02 2.969327114035433019e-04
9.499749874937468803e+02 3.008208242065441430e-04
9.508754377188594162e+02 3.008293512999671597e-04
9.517758879439719522e+02 2.962053317086556746e-04
9.526763381690844881e+02 2.909233471807430365e-04
9.535767883941970240e+02 2.858120357795556222e-04
9.544772386193095599e+02 2.823399484493278053e-04
9.553776888444222095e+02 2.796686406824106679e-04
9.562781390695347454e+02 2.780423371241027685e-04
9.571785892946472813e+02 2.759421182949599771e-04
9.580790395197598173e+02 2.729294549977401025e-04
9.589794897448723532e+02 2.737369611902361918e-04
9.598799399699850028e+02 2.810737661218369880e-04
9.607803901950975387e+02 2.945433819586035012e-04
9.616808404202100746e+02 3.096473727459947401e-04
9.625812906453226105e+02 3.222343368904488246e-04
9.634817408704351465e+02 3.314584099762465518e-04
9.643821910955476824e+02 3.381197757373120664e-04
9.652826413206603320e+02 3.354306617743774903e-04
9.661830915457728679e+02 3.223283548741692024e-04
9.670835417708854038e+02 3.103236546920313719e-04
9.679839919959979397e+02 3.038283264913507384e-04
9.688844422211104757e+02 2.978620943999617807e-04
9.697848924462230116e+02 2.897140286480045937e-04
9.706853426713356612e+02 2.806626427772677089e-04
9.715857928964481971e+02 2.753125436266588757e-04
9.724862431215607330e+02 2.771093272495587156e-04
9.733866933466732689e+02 2.844115988054330118e-04
9.742871435717858049e+02 2.970688701729549551e-04
9.751875937968984545e+02 3.132893211604016737e-04
9.760880440220109904e+02 3.238004401935947471e-04
9.769884942471235263e+02 3.265453411814406553e-04
9.778889444722360622e+02 3.277803687048676988e-04
9.787893946973485981e+02 3.310037213266494682e-04
9.796898449224611340e+02 3.351122817053894701e-04
9.805902951475737837e+02 3.392881997483693018e-04
9.814907453726863196e+02 3.506043673084525535e-04
9.823911955977988555e+02 3.660174030658573858e-04
9.832916458229113914e+02 3.768938520047371591e-04
9.841920960480239273e+02 3.813661441541642532e-04
9.850925462731365769e+02 3.819950646107031717e-04
9.859929964982491128e+02 3.760952129230036743e-04
9.868934467233616488e+02 3.657949064653246915e-04
9.877938969484741847e+02 3.589297421009497746e-04
9.886943471735867206e+02 3.578938358905366622e-04
9.895947973986992565e+02 3.605814982080111507e-04
9.904952476238119061e+02 3.628586283429125598e-04
9.913956978489244420e+02 3.633006871427462347e-04
9.922961480740369780e+02 3.613237275629100210e-04
9.931965982991495139e+02 3.575228035523456312e-04
9.940970485242620498e+02 3.543709994333628485e-04
9.949974987493745857e+02 3.554845731251888414e-04
9.958979489744872353e+02 3.607328022638879193e-04
9.967983991995997712e+02 3.656227127833231588e-04
9.976988494247123072e+02 3.658124371689592093e-04
9.985992996498248431e+02 3.621285749990305123e-04
9.994997498749373790e+02 3.583836930743816728e-04
1.000400200100050029e+03 3.579481124419776265e-04
1.001300650325162565e+03 3.637849989780459273e-04
1.002201100550275100e+03 3.757078493278563354e-04
1.003101550775387636e+03 3.872416487589339183e-04
1.004002001000500172e+03 3.960331699122705677e-04
1.004902451225612708e+03 4.022454762947994672e-04
1.005802901450725358e+03 4.076705029001131053e-04
1.006703351675837894e+03 4.146231697786149722e-04
1.007603801900950430e+03 4.214239542569454149e-04
1.008504252126062966e+03 4.279123170696194937e-04
1.009404702351175501e+03 4.311822035116651543e-04
1.010305152576288151e+03 4.284056772035698345e-04
1.011205602801400687e+03 4.214134594102993386e-04
1.012106053026513223e+03 4.132554389234525016e-04
1.013006503251625759e+03 4.058697699095288169e-04
1.013906953476738295e+03 3.986332852955346093e-04
1.014807403701850831e+03 3.946659563990273468e-04
1.015707853926963480e+03 3.963864322981347716e-04
1.016608304152076016e+03 3.983149283219682146e-04
1.017508754377188552e+03 3.997943667907719913e-04
1.018409204602301088e+03 4.019748823777044154e-04
1.019309654827413624e+03 4.039722381017725656e-04
1.020210105052526160e+03 4.079143507286067455e-04
1.021110555277638809e+03 4.108717668290335842e-04
1.022011005502751345e+03 4.099216026109994519e-04
1.022911455727863881e+03 4.061955194430400505e-04
1.023811905952976417e+03 4.008482437218784350e-04
1.024712356178089067e+03 3.977967415105139177e-04
1.025612806403201603e+03 3.995578785219889716e-04
1.026513256628314139e+03 4.050186698521005902e-04
1.027413706853426675e+03 4.084120563555052020e-04
1.028314157078539210e+03 4.086222975523337163e-04
1.029214607303651746e+03 4.092336126281420129e-04
1.030115057528764282e+03 4.117114680303968167e-04
1.031015507753876818e+03 4.154238157838977333e-04
1.031915957978989354e+03 4.216789800841385044e-04
1.032816408204101890e+03 4.289227188118376727e-04
1.033716858429214653e+03 4.338686662886100196e-04
1.034617308654327189e+03 4.329395482340449362e-04
1.035517758879439725e+03 4.267982743163000782e-04
1.036418209104552261e+03 4.229553478662579670e-04
1.037318659329664797e+03 4.275674823241728509e-04
1.038219109554777333e+03 4.386827669930385516e-04
1.039119559779889869e+03 4.496692747215479537e-04
1.040020010005002405e+03 4.502702418352411877e-04
1.040920460230114941e+03 4.448274803966786157e-04
1.041820910455227477e+03 4.437847109306608225e-04
1.042721360680340013e+03 4.454076441902983670e-04
1.043621810905452776e+03 4.475675367097116733e-04
1.044522261130565312e+03 4.531408415278878892e-04
1.045422711355677848e+03 4.622047437961465492e-04
1.046323161580790384e+03 4.728898838361548628e-04
1.047223611805902920e+03 4.849731400214142021e-04
1.048124062031015455e+03 4.973037948644617318e-04
1.049024512256127991e+03 5.057311868976911576e-04
1.049924962481240527e+03 5.141695576363414840e-04
1.050825412706353063e+03 5.297215912775429109e-04
1.051725862931465599e+03 5.484756405372913758e-04
1.052626313156578135e+03 5.651073140910201423e-04
1.053526763381690898e+03 5.694406805813347202e-04
1.054427213606803434e+03 5.596708319487946450e-04
1.055327663831915970e+03 5.430718155129124133e-04
1.056228114057028506e+03 5.250514374184597549e-04
1.057128564282141042e+03 5.161488694105022691e-04
1.058029014507253578e+03 5.245640945418140891e-04
1.058929464732366114e+03 5.370558985311464466e-04
1.059829914957478650e+03 5.360004562791008918e-04
1.060730365182591186e+03 5.305843544691800969e-04
1.061630815407703722e+03 5.334100817534653295e-04
1.062531265632816257e+03 5.435659129799333845e-04
1.063431715857929021e+03 5.561964527966364608e-04
1.064332166083041557e+03 5.703656859903204071e-04
1.065232616308154093e+03 5.837804184647633812e-04
1.066133066533266629e+03 5.901043590568131854e-04
1.067033516758379164e+03 5.932704684755681426e-04
1.067933966983491700e+03 5.968519232462272126e-04
1.068834417208604236e+03 5.894562224345559383e-04
1.069734867433716772e+03 5.728226873776887974e-04
1.070635317658829308e+03 5.564788412708829334e-04
1.071535767883941844e+03 5.498716913667791011e-04
1.072436218109054380e+03 5.489210394717779088e-04
1.073336668334167143e+03 5.518068391127174156e-04
1.074237118559279679e+03 5.618122067280171585e-04
1.075137568784392215e+03 5.789628023025882204e-04
1.076038019009504751e+03 5.943413861940291965e-04
1.076938469234617287e+03 6.017953244946777852e-04
1.077838919459729823e+03 6.035225147820805691e-04
1.078739369684842359e+03 6.008459865946691588e-04
1.079639819909954895e+03 6.065028803651855652e-04
1.080540270135067431e+03 6.259749770447915968e-04
1.081440720360179967e+03 6.458991008331000250e-04
1.082341170585292502e+03 6.593723457742080686e-04
1.083241620810405038e+03 6.696870012348418461e-04
1.084142071035517802e+03 6.762267179120381262e-04
1.085042521260630338e+03 6.715788655822349431e-04
1.085942971485742873e+03 6.579002316542384345e-04
1.086843421710855409e+03 6.391910178531882199e-04
1.087743871935967945e+03 6.284465463298921943e-04
1.088644322161080481e+03 6.281379943985320163e-04
1.089544772386193017e+03 6.362098200384948927e-04
1.090445222611305553e+03 6.392730541133628689e-04
1.091345672836418089e+03 6.281292600059471681e-04
1.092246123061530625e+03 6.216244976718604109e-04
1.093146573286643161e+03 6.312835552712818153e-04
1.094047023511755924e+03 6.504610987866968862e-04
1.094947473736868460e+03 6.642663301698929984e-04
1.095847923961980996e+03 6.682572980279631028e-04
1.096748374187093532e+03 6.740136923542188775e-04
1.097648824412206068e+03 6.786560498778550221e-04
1.098549274637318604e+03 6.650145382815516150e-04
1.099449724862431140e+03 6.487406162881789902e-04
1.100350175087543676e+03 6.540476533006468101e-04
1.101250625312656211e+03 6.805363660575559350e-04
1.102151075537768747e+03 7.103333512835618676e-04
1.103051525762881283e+03 7.270717778273014069e-04
1.103951975987994047e+03 7.386956685348382073e-04
1.104852426213106583e+03 7.540312579118533913e-04
1.105752876438219118e+03 7.689510338213045122e-04
1.106653326663331654e+03 7.733624038194625554e-04
1.107553776888444190e+03 7.705902235537918313e-04
1.108454227113556726e+03 7.819210751576431131e-04
1.109354677338669262e+03 8.176734802147086990e-04
1.110255127563781798e+03 8.675556959687911671e-04
1.111155577788894334e+03 9.042547800140061367e-04
1.112056028014006870e+03 9.140411197427360029e-04
1.112956478239119406e+03 9.091261033630363472e-04
1.113856928464232169e+03 8.901409686306610168e-04
1.114757378689344705e+03 8.548255093018913798e-04
1.115657828914457241e+03 8.259138469418598029e-04
1.116558279139569777e+03 8.276421772530974689e-04
1.117458729364682313e+03 8.577407764607973073e-04
1.118359179589794849e+03 8.983127165439531471e-04
1.119259629814907385e+03 9.267297630943777771e-04
1.120160080040019920e+03 9.477517640265443284e-04
1.121060530265132456e+03 9.826365394165550993e-04
1.121960980490244992e+03 1.022937642919050051e-03
1.122861430715357528e+03 1.056039976073609677e-03
1.123761880940470292e+03 1.096763879547658829e-03
1.124662331165582827e+03 1.159795275147658053e-03
1.125562781390695363e+03 1.220909021038284886e-03
1.126463231615807899e+03 1.238715183786964855e-03
1.127363681840920435e+03 1.218598622841956386e-03
1.128264132066032971e+03 1.206470891682382947e-03
1.129164582291145507e+03 1.227862424520003706e-03
1.130065032516258043e+03 1.280586548107898919e-03
1.130965482741370579e+03 1.350596294327547275e-03
1.131865932966483115e+03 1.433639301856504209e-03
1.132766383191595651e+03 1.532300861141502836e-03
1.133666833416708187e+03 1.639642642807172907e-03
1.134567283641820950e+03 1.751079701659971448e-03
1.135467733866933486e+03 1.855966050616248515e-03
1.136368184092046022e+03 1.981109515710403196e-03
1.137268634317158558e+03 2.128869436739225327e-03
1.138169084542271094e+03 2.253228723168945648e-03
1.139069534767383630e+03 2.300590085852191168e-03
1.139969984992496165e+03 2.275053127141752392e-03
1.140870435217608701e+03 2.264903098320301088e-03
1.141770885442721237e+03 2.302159919349031601e-03
1.142671335667833773e+03 2.348965749147360199e-03
1.143571785892946309e+03 2.332932129139608096e-03
1.144472236118059072e+03 2.237713006185912141e-03
1.145372686343171608e+03 2.154627527273263350e-03
1.146273136568284144e+03 2.123895376225019230e-03
1.147173586793396680e+03 2.112938733140839673e-03
1.148074037018509216e+03 2.086423306945541477e-03
1.148974487243621752e+03 2.017236291466148034e-03
1.149874937468734288e+03 1.929204147751980691e-03
1.150775387693846824e+03 1.858847137669027930e-03
1.151675837918959360e+03 1.802797778260401733e-03
1.152576288144071896e+03 1.748535710895809730e-03
1.153476738369184432e+03 1.685751118542122605e-03
1.154377188594297195e+03 1.606440189284210262e-03
1.155277638819409731e+03 1.513839357258145273e-03
1.156178089044522267e+03 1.438350280260449962e-03
1.157078539269634803e+03 1.399003920873206257e-03
1.157978989494747339e+03 1.368383165835306784e-03
1.158879439719859874e+03 1.326187906880697430e-03
1.159779889944972410e+03 1.294426493516382488e-03
1.160680340170084946e+03 1.274589762995651486e-03
1.161580790395197482e+03 1.261912269094779895e-03
1.162481240620310018e+03 1.255872535933607714e-03
1.163381690845422554e+03 1.244036714233498530e-03
1.164282141070535317e+03 1.216765963024603282e-03
1.165182591295647853e+03 1.189246049130985444e-03
1.166083041520760389e+03 1.159617184897145711e-03
1.166983491745872925e+03 1.127970914742091159e-03
1.167883941970985461e+03 1.107730075664245181e-03
1.168784392196097997e+03 1.096553201886485722e-03
1.169684842421210533e+03 1.092667820763014051e-03
1.170585292646323069e+03 1.106981824338895692e-03
1.171485742871435605e+03 1.132697137877402204e-03
1.172386193096548141e+03 1.150336434023031991e-03
1.173286643321660677e+03 1.161092482142211642e-03
1.174187093546773440e+03 1.163917355834012202e-03
1.175087543771885976e+03 1.159783767969948219e-03
1.175987993996998512e+03 1.160765613864824224e-03
1.176888444222111048e+03 1.170533434303440944e-03
1.177788894447223583e+03 1.177427889365701514e-03
1.178689344672336119e+03 1.166627379972823546e-03
1.179589794897448655e+03 1.142705134298412821e-03
1.180490245122561191e+03 1.132889250241832452e-03
1.181390695347673727e+03 1.138157730357643388e-03
1.182291145572786263e+03 1.137479285106172229e-03
1.183191595797898799e+03 1.119495690956108817e-03
1.184092046023011562e+03 1.096768219973933518e-03
1.184992496248124098e+03 1.075717242191753104e-03
1.185892946473236634e+03 1.056645234088959958e-03
1.186793396698349170e+03 1.046750705413116963e-03
1.187693846923461706e+03 1.044499516752601812e-03
1.188594297148574242e+03 1.035156920589724860e-03
1.189494747373686778e+03 1.028513622531598316e-03
1.190395197598799314e+03 1.044146871126716688e-03
1.191295647823911850e+03 1.078666858500742327e-03
1.192196098049024386e+03 1.115832234504789047e-03
1.193096548274136921e+03 1.149168028024947271e-03
1.193996998499249457e+03 1.165497341538358289e-03
1.194897448724362221e+03 1.163625138386624805e-03
1.195797898949474757e+03 1.166019450097550720e-03
1.196698349174587293e+03 1.179817754740647689e-03
1.197598799399699828e+03 1.195130665784486330e-03
1.198499249624812364e+03 1.219845242191178137e-03
1.199399699849924900e+03 1.247053828552535312e-03
1.200300150075037436e+03 1.254557478629846155e-03
1.201200600300149972e+03 1.261063569022643441e-03
1.202101050525262508e+03 1.281055534342104979e-03
1.203001500750375044e+03 1.317123611230486269e-03
1.203901950975487580e+03 1.353058810886360961e-03
1.204802401200600343e+03 1.380350462106679551e-03
1.205702851425712879e+03 1.396347733916849208e-03
1.206603301650825415e+03 1.400579620957498848e-03
1.207503751875937951e+03 1.396589521908074430e-03
1.208404202101050487e+03 1.374269491868924725e-03
1.209304652326163023e+03 1.335936842130612664e-03
1.210205102551275559e+03 1.296476968308958155e-03
1.211105552776388095e+03 1.264560494846047461e-03
1.212006003001500630e+03 1.237253609537988450e-03
1.212906453226613166e+03 1.215902138272008251e-03
1.213806903451725702e+03 1.195323309477896523e-03
1.214707353676838466e+03 1.174652871742677381e-03
1.215607803901951002e+03 1.162014768687836316e-03
1.216508254127063537e+03 1.147310659706662905e-03
1.217408704352176073e+03 1.130947925419925788e-03
1.218309154577288609e+03 1.132761378437402650e-03
1.219209604802401145e+03 1.159446438440000409e-03
1.220110055027513681e+03 1.186181830714854455e-03
1.221010505252626217e+03 1.181061942174556649e-03
1.221910955477738753e+03 1.155875250879852267e-03
1.222811405702851289e+03 1.137053375394653796e-03
1.223711855927963825e+03 1.142051062236201266e-03
1.224612306153076588e+03 1.177178569689310127e-03
1.225512756378189124e+03 1.214518606756824189e-03
1.226413206603301660e+03 1.219943027792711951e-03
1.227313656828414196e+03 1.197020630837927931e-03
1.228214107053526732e+03 1.177101384936494197e-03
1.229114557278639268e+03 1.164615819426660127e-03
1.230015007503751804e+03 1.152845019053902118e-03
1.230915457728864340e+03 1.158524638932836729e-03
1.231815907953976875e+03 1.184027337880053836e-03
1.232716358179089411e+03 1.208299847785958107e-03
1.233616808404201947e+03 1.217051056251276017e-03
1.234517258629314711e+03 1.211603452555008991e-03
1.235417708854427246e+03 1.204193348128774826e-03
1.236318159079539782e+03 1.200415301749224164e-03
1.237218609304652318e+03 1.209378364765611915e-03
1.238119059529764854e+03 1.226002852226952978e-03
1.239019509754877390e+03 1.233301832657821614e-03
1.239919959979989926e+03 1.235728773032199841e-03
1.240820410205102462e+03 1.247445887265831574e-03
1.241720860430214998e+03 1.272482802089849527e-03
1.242621310655327534e+03 1.313681514600363110e-03
1.243521760880440070e+03 1.369719868126256573e-03
1.244422211105552606e+03 1.420271363035721136e-03
1.245322661330665369e+03 1.451577261079163616e-03
1.246223111555777905e+03 1.478832032268797680e-03
1.247123561780890441e+03 1.504907422623224600e-03
1.248024012006002977e+03 1.523662652106131310e-03
1.248924462231115513e+03 1.541089939673611535e-03
1.249824912456228049e+03 1.576753015303510811e-03
1.250725362681340584e+03 1.629498187416007901e-03
1.251625812906453120e+03 1.681244503480192791e-03
1.252526263131565656e+03 1.721835246386536509e-03
1.253426713356678192e+03 1.752207407083445061e-03
1.254327163581790728e+03 1.778154608098529753e-03
1.255227613806903491e+03 1.798497230647363868e-03
1.256128064032016027e+03 1.810969882998624469e-03
1.257028514257128563e+03 1.816323196094334460e-03
1.257928964482241099e+03 1.834045691684534594e-03
1.258829414707353635e+03 1.880885859771949924e-03
1.259729864932466171e+03 1.948039670148726159e-03
1.260630315157578707e+03 2.011348362659221272e-03
1.261530765382691243e+03 2.064211717144335927e-03
1.262431215607803779e+03 2.108059432659592849e-03
1.263331665832916315e+03 2.139948815932896792e-03
1.264232116058028851e+03 2.169986942994280368e-03
1.265132566283141614e+03 2.200306617455958288e-03
1.266033016508254150e+03 2.222801850135013111e-03
1.266933466733366686e+03 2.244560178261262567e-03
1.267833916958479222e+03 2.268078969138732567e-03
1.268734367183591758e+03 2.292283526723738838e-03
1.269634817408704293e+03 2.314267746433331004e-03
1.270535267633816829e+03 2.340161701653659544e-03
1.271435717858929365e+03 2.394307005914824218e-03
1.272336168084041901e+03 2.487760819932328948e-03
1.273236618309154437e+03 2.585176574209907714e-03
1.274137068534266973e+03 2.666491765892258035e-03
1.275037518759379736e+03 2.733325991898125692e-03
1.275937968984492272e+03 2.780413901782360399e-03
1.276838419209604808e+03 2.807434723298726179e-03
1.277738869434717344e+03 2.823710825687431297e-03
1.278639319659829880e+03 2.837137527970688428e-03
1.279539769884942416e+03 2.850587857928986880e-03
1.280440220110054952e+03 2.873269871550412045e-03
1.281340670335167488e+03 2.914116894512845755e-03
1.282241120560280024e+03 2.951776180706916150e-03
1.283141570785392560e+03 2.985662285803786925e-03
1.284042021010505096e+03 3.034631921433924261e-03
1.284942471235617859e+03 3.092209270309433967e-03
1.285842921460730395e+03 3.138317723414600201e-03
1.286743371685842931e+03 3.166059076754746369e-03
1.287643821910955467e+03 3.205120842344296415e-03
1.288544272136068003e+03 3.269480707526683464e-03
1.289444722361180538e+03 3.358504688936829897e-03
1.290345172586293074e+03 3.465628469123965046e-03
1.291245622811405610e+03 3.559128429816556423e-03
1.292146073036518146e+03 3.633679272182516878e-03
1.293046523261630682e+03 3.712954617094741706e-03
1.293946973486743218e+03 3.795453234555094379e-03
1.294847423711855754e+03 3.839507343654509179e-03
1.295747873936968517e+03 3.837625407320127604e-03
1.296648324162081053e+03 3.827783366060994417e-03
1.297548774387193589e+03 3.829488492900563496e-03
1.298449224612306125e+03 3.852825518087124677e-03
1.299349674837418661e+03 3.897998836003669677e-03
1.300250125062531197e+03 3.955333217840167025e-03
1.301150575287643733e+03 4.036268120497826968e-03
1.302051025512756269e+03 4.134192763244993324e-03
1.302951475737868805e+03 4.258545473861309431e-03
1.303851925962981340e+03 4.454598017205610785e-03
1.304752376188093876e+03 4.674398566594368393e-03
1.305652826413206640e+03 4.836878943139413106e-03
1.306553276638319176e+03 4.992285837374452716e-03
1.307453726863431712e+03 5.167374987445069907e-03
1.308354177088544247e+03 5.386504100425541439e-03
1.309254627313656783e+03 5.628414889358901614e-03
1.310155077538769319e+03 5.824589581168927027e-03
1.311055527763881855e+03 6.033604302194958864e-03
1.311955977988994391e+03 6.278404154734393283e-03
1.312856428214106927e+03 6.511798740874880607e-03
1.313756878439219463e+03 6.745993191736286178e-03
1.314657328664331999e+03 6.910623178798269012e-03
1.315557778889444762e+03 6.956850417835139418e-03
1.316458229114557298e+03 6.947938110542810873e-03
1.317358679339669834e+03 6.971167039238774892e-03
1.318259129564782370e+03 7.054737533949327621e-03
1.319159579789894906e+03 7.155089903736122289e-03
1.320060030015007442e+03 7.229756680260867110e-03
1.320960480240119978e+03 7.350742802326923168e-03
1.321860930465232514e+03 7.528345796783028100e-03
1.322761380690345050e+03 7.737332344603744388e-03
1.323661830915457585e+03 7.968525571675280639e-03
1.324562281140570121e+03 8.144108995600323267e-03
1.325462731365682885e+03 8.196751846782904596e-03
1.326363181590795421e+03 8.235614247391555634e-03
1.327263631815907956e+03 8.379177399852503344e-03
1.328164082041020492e+03 8.648498169213845316e-03
1.329064532266133028e+03 9.032004551346298205e-03
1.329964982491245564e+03 9.473191167361606074e-03
1.330865432716358100e+03 9.943361426863899649e-03
1.331765882941470636e+03 1.043103354675210467e-02
1.332666333166583172e+03 1.082062200323154547e-02
1.333566783391695708e+03 1.108918505141622858e-02
1.334467233616808244e+03 1.134790374156901573e-02
1.335367683841921007e+03 1.164424432505506424e-02
1.336268134067033543e+03 1.188654606609182776e-02
1.337168584292146079e+03 1.211894685792195246e-02
1.338069034517258615e+03 1.227514135779500005e-02
1.338969484742371151e+03 1.226365109234086800e-02
1.339869934967483687e+03 1.230502734563203304e-02
1.340770385192596223e+03 1.246281197003847561e-02
1.341670835417708759e+03 1.266439326694224557e-02
1.342571285642821294e+03 1.295277599202105008e-02
1.343471735867933830e+03 1.340855552890876136e-02
1.344372186093046366e+03 1.389294852555671839e-02
1.345272636318158902e+03 1.411929282009899075e-02
1.346173086543271666e+03 1.415470592237062439e-02
1.347073536768384201e+03 1.427064832503186116e-02
1.347973986993496737e+03 1.452341303056945213e-02
1.348874437218609273e+03 1.472488042515455835e-02
1.349774887443721809e+03 1.480772292332645582e-02
1.350675337668834345e+03 1.484984722577002876e-02
1.351575787893946881e+03 1.479696752538537177e-02
1.352476238119059417e+03 1.475715852578817454e-02
1.353376688344171953e+03 1.467174349542351916e-02
1.354277138569284489e+03 1.465413484959924954e-02
1.355177588794397025e+03 1.498683321136365550e-02
1.356078039019509788e+03 1.567653523110973390e-02
1.356978489244622324e+03 1.648174014026975928e-02
1.357878939469734860e+03 1.699992180599923033e-02
1.358779389694847396e+03 1.717287892612540112e-02
1.359679839919959932e+03 1.728294585259294858e-02
1.360580290145072468e+03 1.734920172521492443e-02
1.361480740370185003e+03 1.738942682202953074e-02
1.362381190595297539e+03 1.736866934811707314e-02
1.363281640820410075e+03 1.722211350241235200e-02
1.364182091045522611e+03 1.717156448814647837e-02
1.365082541270635147e+03 1.727513790379204411e-02
1.365982991495747910e+03 1.739135866694987292e-02
1.366883441720860446e+03 1.744946421431717645e-02
1.367783891945972982e+03 1.752716166025540534e-02
1.368684342171085518e+03 1.775912414549331644e-02
1.369584792396198054e+03 1.803164019743985769e-02
1.370485242621310590e+03 1.812710424783436913e-02
1.371385692846423126e+03 1.818625006000908206e-02
1.372286143071535662e+03 1.831081876639692116e-02
1.373186593296648198e+03 1.831898686167379026e-02
1.374087043521760734e+03 1.828386661628259371e-02
1.374987493746873270e+03 1.823486559334366874e-02
1.375887943971986033e+03 1.787903052010506380e-02
1.376788394197098569e+03 1.735023580758956671e-02
1.377688844422211105e+03 1.702044893230216308e-02
1.378589294647323641e+03 1.703790934110275060e-02
1.379489744872436177e+03 1.715678984766449977e-02
1.380390195097548713e+03 1.719642422113647207e-02
1.381290645322661248e+03 1.710846049521256088e-02
1.382191095547773784e+03 1.665074171323945029e-02
1.383091545772886320e+03 1.581902522386934712e-02
1.383991995997998856e+03 1.493844007324113092e-02
1.384892446223111392e+03 1.423420371284988412e-02
1.385792896448224155e+03 1.358269376882277092e-02
1.386693346673336691e+03 1.289088533726722233e-02
1.387593796898449227e+03 1.221293376048267210e-02
1.388494247123561763e+03 1.164074455644554390e-02
1.389394697348674299e+03 1.111039514694805129e-02
1.390295147573786835e+03 1.068917461849735497e-02
1.391195597798899371e+03 1.048398051521275826e-02
1.392096048024011907e+03 1.039784153171037506e-02
1.392996498249124443e+03 1.028785376281533652e-02
1.393896948474236979e+03 1.008539562270790134e-02
1.394797398699349515e+03 9.848022886383414262e-03
1.395697848924462278e+03 9.704022553810436394e-03
1.396598299149574814e+03 9.644404174462403376e-03
1.397498749374687350e+03 9.537507292958808877e-03
1.398399199599799886e+03 9.313337465458164724e-03
1.399299649824912422e+03 9.084855700266031980e-03
1.400200100050024957e+03 8.924670388696891513e-03
1.401100550275137493e+03 8.829158506797553721e-03
1.402001000500250029e+03 8.664780309402384320e-03
1.402901450725362565e+03 8.316766547063992807e-03
1.403801900950475101e+03 7.960680347640568602e-03
1.404702351175587637e+03 7.730352613552435651e-03
1.405602801400700173e+03 7.603929305359776250e-03
1.406503251625812936e+03 7.497230243546810884e-03
1.407403701850925472e+03 7.398118996153751036e-03
1.408304152076038008e+03 7.271416654903393832e-03
1.409204602301150544e+03 7.063166852881393176e-03
1.410105052526263080e+03 6.842565351717184129e-03
1.411005502751375616e+03 6.648439394146142718e-03
1.411905952976488152e+03 6.482869949306611229e-03
1.412806403201600688e+03 6.352719542411299630e-03
1.413706853426713224e+03 6.229438581350294629e-03
1.414607303651825760e+03 6.080336162380603308e-03
1.415507753876938295e+03 5.885430488966386132e-03
1.416408204102051059e+03 5.644582958131239697e-03
1.417308654327163595e+03 5.394778902772370127e-03
1.418209104552276131e+03 5.188849837705542672e-03
1.419109554777388666e+03 5.058206647495648231e-03
1.420010005002501202e+03 4.947100209627276757e-03
1.420910455227613738e+03 4.862927102400921471e-03
1.421810905452726274e+03 4.829053236257151681e-03
1.422711355677838810e+03 4.827721940911554495e-03
1.423611805902951346e+03 4.809836800129817062e-03
1.424512256128063882e+03 4.751438857250041108e-03
1.425412706353176418e+03 4.665740405007263655e-03
1.426313156578289181e+03 4.538826059582459771e-03
1.427213606803401717e+03 4.391598813420042290e-03
1.428114057028514253e+03 4.226052690205242893e-03
1.429014507253626789e+03 4.035148845570057236e-03
1.429914957478739325e+03 3.843337601874757554e-03
1.430815407703851861e+03 3.655636021565897373e-03
1.431715857928964397e+03 3.485481717816501027e-03
1.432616308154076933e+03 3.351675711549329580e-03
1.433516758379189469e+03 3.254706739050255027e-03
1.434417208604302004e+03 3.170906733885659086e-03
1.435317658829414540e+03 3.126076754465884500e-03
1.436218109054527304e+03 3.093767666497654681e-03
1.437118559279639840e+03 3.012907145990673542e-03
1.438019009504752376e+03 2.887047897437494768e-03
1.438919459729864911e+03 2.761603607356419125e-03
1.439819909954977447e+03 2.673020536068117323e-03
1.440720360180089983e+03 2.638743305650344262e-03
1.441620810405202519e+03 2.632106332172613142e-03
1.442521260630315055e+03 2.616660265366001561e-03
1.443421710855427591e+03 2.567609458221553360e-03
1.444322161080540127e+03 2.495512542284806980e-03
1.445222611305652663e+03 2.425108149506108486e-03
1.446123061530765426e+03 2.356955480478379727e-03
1.447023511755877962e+03 2.307915676627611372e-03
1.447923961980990498e+03 2.293391685354319830e-03
1.448824412206103034e+03 2.271352502682508386e-03
1.449724862431215570e+03 2.224245252484746346e-03
1.450625312656328106e+03 2.185199733519018177e-03
1.451525762881440642e+03 2.156761180139965105e-03
1.452426213106553178e+03 2.097566947885368648e-03
1.453326663331665713e+03 2.027260976163205303e-03
1.454227113556778249e+03 1.990296400348195906e-03
1.455127563781890785e+03 1.978764045509034085e-03
1.456028014007003321e+03 1.959161480622331492e-03
1.456928464232116085e+03 1.915410089376608964e-03
1.457828914457228620e+03 1.867733353661075145e-03
1.458729364682341156e+03 1.846293495499668359e-03
1.459629814907453692e+03 1.833427724050790131e-03
1.460530265132566228e+03 1.806284433789763456e-03
1.461430715357678764e+03 1.780701412081567639e-03
1.462331165582791300e+03 1.753687828366969938e-03
1.463231615807903836e+03 1.725995716167481571e-03
1.464132066033016372e+03 1.707901181144083841e-03
1.465032516258128908e+03 1.680963815529075639e-03
1.465932966483241444e+03 1.635153646066296899e-03
1.466833416708354207e+03 1.585247251411479007e-03
1.467733866933466743e+03 1.541810311215818536e-03
1.468634317158579279e+03 1.506523298092808313e-03
1.469534767383691815e+03 1.481044659716771166e-03
1.470435217608804351e+03 1.451093700579057094e-03
1.471335667833916887e+03 1.434744074306133028e-03
1.472236118059029423e+03 1.447896581831637506e-03
1.473136568284141958e+03 1.479373536278390374e-03
1.474037018509254494e+03 1.514488475999588085e-03
1.474937468734367030e+03 1.519308713163723635e-03
1.475837918959479566e+03 1.490780220408944494e-03
1.476738369184592329e+03 1.473933319965818568e-03
1.477638819409704865e+03 1.481105612536699236e-03
1.478539269634817401e+03 1.495483271756023426e-03
1.479439719859929937e+03 1.466240743221793735e-03
1.480340170085042473e+03 1.383600434573113627e-03
1.481240620310155009e+03 1.303484802105727910e-03
1.482141070535267545e+03 1.245652913613579842e-03
1.483041520760380081e+03 1.192204639734583760e-03
1.483941970985492617e+03 1.146283815431137438e-03
1.484842421210605153e+03 1.130110373729075390e-03
1.485742871435717689e+03 1.130320442146009454e-03
1.486643321660830452e+03 1.115421205649393468e-03
1.487543771885942988e+03 1.073358556986220552e-03
1.488444222111055524e+03 1.027651909408630734e-03
1.489344672336168060e+03 1.004635389072875730e-03
1.490245122561280596e+03 1.009516034284215890e-03
1.491145572786393132e+03 1.012127945481229151e-03
1.492046023011505667e+03 1.005147454904517772e-03
1.492946473236618203e+03 1.004004915345955680e-03
1.493846923461730739e+03 9.953665745528292742e-04
1.494747373686843275e+03 9.776300657713813454e-04
1.495647823911955811e+03 9.551253972692969139e-04
1.496548274137068574e+03 9.186201076723416207e-04
1.497448724362181110e+03 8.744113605243483993e-04
1.498349174587293646e+03 8.422992372112716964e-04
1.499249624812406182e+03 8.337412409724228278e-04
1.500150075037518718e+03 8.386900949124756737e-04
1.501050525262631254e+03 8.414675793058992975e-04
1.501950975487743790e+03 8.248070890137302984e-04
1.502851425712856326e+03 7.890304150683632783e-04
1.503751875937968862e+03 7.567860109364749933e-04
1.504652326163081398e+03 7.488352772457789559e-04
1.505552776388193934e+03 7.604309472125306149e-04
1.506453226613306470e+03 7.675767670816295097e-04
1.507353676838419233e+03 7.546239068463699712e-04
1.508254127063531769e+03 7.271584163479216266e-04
1.509154577288644305e+03 6.852857510219002640e-04
1.510055027513756841e+03 6.381900626344682095e-04
1.510955477738869376e+03 6.032666330903983364e-04
1.511855927963981912e+03 5.856989496007589764e-04
1.512756378189094448e+03 5.772783081682647489e-04
1.513656828414206984e+03 5.725587319477631713e-04
1.514557278639319520e+03 5.604229389910625123e-04
1.515457728864432056e+03 5.377749027083560682e-04
1.516358179089544592e+03 5.216683260652131126e-04
1.517258629314657355e+03 5.135127968286710108e-04
1.518159079539769891e+03 5.123752744494298973e-04
1.519059529764882427e+03 5.093262959432220179e-04
1.519959979989994963e+03 4.896071507504314285e-04
1.520860430215107499e+03 4.490104751795693703e-04
1.521760880440220035e+03 3.955557927985836348e-04
1.522661330665332571e+03 3.462996026002810885e-04
1.523561780890445107e+03 3.210815008024905937e-04
1.524462231115557643e+03 3.182215064651353347e-04
1.525362681340670179e+03 3.222973391178570401e-04
1.526263131565782714e+03 3.298321694352448694e-04
1.527163581790895478e+03 3.325853201225627232e-04
1.528064032016008014e+03 3.351327243581056991e-04
1.528964482241120550e+03 3.378096222228075163e-04
1.529864932466233086e+03 3.249681254531085368e-04
1.530765382691345621e+03 2.982801403255451803e-04
1.531665832916458157e+03 2.620785024589776437e-04
1.532566283141570693e+03 2.246702906816575116e-04
1.533466733366683229e+03 1.871524529648578149e-04
1.534367183591795765e+03 1.559543840593699505e-04
1.535267633816908301e+03 1.373078085114991839e-04
1.536168084042020837e+03 1.295454031519839989e-04
1.537068534267133600e+03 1.260540781297081708e-04
1.537968984492246136e+03 1.185484581536249056e-04
1.538869434717358672e+03 1.056529588221724267e-04
1.539769884942471208e+03 9.233596873943169300e-05
1.540670335167583744e+03 8.239010450337577675e-05
1.541570785392696280e+03 7.546066570227880955e-05
1.542471235617808816e+03 7.044269022412372010e-05
1.543371685842921352e+03 6.660107938051345548e-05
1.544272136068033888e+03 6.351657735194059522e-05
1.545172586293146423e+03 6.094727901525782228e-05
1.546073036518258959e+03 5.874675286464417175e-05
1.546973486743371723e+03 5.682160841095643204e-05
1.547873936968484259e+03 5.510936930579236496e-05
1.548774387193596795e+03 5.356647282435983318e-05
1.549674837418709330e+03 5.216145368141372334e-05
1.550575287643821866e+03 5.087089431170355538e-05
1.551475737868934402e+03 4.967691743885415171e-05
1.552376188094046938e+03 4.856557514063066400e-05
1.553276638319159474e+03 4.752577941369706541e-05
1.554177088544272010e+03 4.654857135682983820e-05
1.555077538769384546e+03 4.562660879985607480e-05
1.555977988994497082e+03 4.475379883795297043e-05
1.556878439219609618e+03 4.392502891906956933e-05
1.557778889444722381e+03 4.313596647786903490e-05
1.558679339669834917e+03 4.238290721588798614e-05
1.559579789894947453e+03 4.166265853791906962e-05
1.560480240120059989e+03 4.097244881649456913e-05
1.561380690345172525e+03 4.030985591652797749e-05
1.562281140570285061e+03 3.967275027874503167e-05
1.563181590795397597e+03 3.905924914551112701e-05
1.564082041020510133e+03 3.846767941187841057e-05
1.564982491245622668e+03 3.789654722348432446e-05
1.565882941470735204e+03 3.734451290312176222e-05
1.566783391695847740e+03 3.681037012357642212e-05
1.567683841920960504e+03 3.629302849229271264e-05
1.568584292146073039e+03 3.579149889854324235e-05
1.569484742371185575e+03 3.530488111345200911e-05
1.570385192596298111e+03 3.483235323957226468e-05
1.571285642821410647e+03 3.437316268847470945e-05
1.572186093046523183e+03 3.392661842814339175e-05
1.573086543271635719e+03 3.349208429146356990e-05
1.573986993496748255e+03 3.306897317602673891e-05
1.574887443721860791e+03 3.265674199632592018e-05
1.575787893946973327e+03 3.225488727403869873e-05
1.576688344172085863e+03 3.186294127183884786e-05
1.577588794397198626e+03 3.148046859213445882e-05
1.578489244622311162e+03 3.110706317507436251e-05
1.579389694847423698e+03 3.074234564073348051e-05
1.580290145072536234e+03 3.038596092905862585e-05
1.581190595297648770e+03 3.003757619829721586e-05
1.582091045522761306e+03 2.969687894855174338e-05
1.582991495747873842e+03 2.936357534201574219e-05
1.583891945972986377e+03 2.903738869556232250e-05
1.584792396198098913e+03 2.871805812479210084e-05
1.585692846423211449e+03 2.840533732155327507e-05
1.586593296648323985e+03 2.809899344938416256e-05
1.587493746873436749e+03 2.779880614341395905e-05
1.588394197098549284e+03 2.750456660301283269e-05
1.589294647323661820e+03 2.721607676699088114e-05
1.590195097548774356e+03 2.693314856243276298e-05
1.591095547773886892e+03 2.665560321935901337e-05
1.591995997998999428e+03 2.638327064435956222e-05
1.592896448224111964e+03 2.611598884716126513e-05
1.593796898449224500e+03 2.585360341480409007e-05
1.594697348674337036e+03 2.559596702871857750e-05
1.595597798899449572e+03 2.534293902053359068e-05
1.596498249124562108e+03 2.509438496290347426e-05
1.597398699349674871e+03 2.485017629206635791e-05
1.598299149574787407e+03 2.461018995918540193e-05
1.599199599799899943e+03 2.437430810785737396e-05
1.600100050025012479e+03 2.414241777543453052e-05
1.601000500250125015e+03 2.391441061605599361e-05
1.601900950475237551e+03 2.369018264349953220e-05
1.602801400700350086e+03 2.346963399215236450e-05
1.603701850925462622e+03 2.325266869457190340e-05
1.604602301150575158e+03 2.303919447425250864e-05
1.605502751375687694e+03 2.282912255235233453e-05
1.606403201600800230e+03 2.262236746724841387e-05
1.607303651825912766e+03 2.241884690589868647e-05
1.608204102051025529e+03 2.221848154607869417e-05
1.609104552276138065e+03 2.202119490865314617e-05
1.610005002501250601e+03 2.182691321910922740e-05
1.610905452726363137e+03 2.163556527765659468e-05
1.611805902951475673e+03 2.144708233725187775e-05
1.612706353176588209e+03 2.126139798896573970e-05
1.613606803401700745e+03 2.107844805416077670e-05
1.614507253626813281e+03 2.089817048298818204e-05
1.615407703851925817e+03 2.072050525876154475e-05
1.616308154077038353e+03 2.054539430778973502e-05
1.617208604302150889e+03 2.037278141429857712e-05
1.618109054527263652e+03 2.020261214009002850e-05
1.619009504752376188e+03 2.003483374862173239e-05
1.619909954977488724e+03 1.986939513321087891e-05
1.620810405202601260e+03 1.970624674909385164e-05
1.621710855427713796e+03 1.954534054908746156e-05
1.622611305652826331e+03 1.938662992262315106e-05
1.623511755877938867e+03 1.923006963794012927e-05
1.624412206103051403e+03 1.907561578723504544e-05
1.625312656328163939e+03 1.892322573459048944e-05
1.626213106553276475e+03 1.877285806650724103e-05
1.627113556778389011e+03 1.862447254488445452e-05
1.628014007003501774e+03 1.847803006229977506e-05
1.628914457228614310e+03 1.833349259945328189e-05
1.629814907453726846e+03 1.819082318464829848e-05
1.630715357678839382e+03 1.804998585519023091e-05
1.631615807903951918e+03 1.791094562059311344e-05
1.632516258129064454e+03 1.777366842749164132e-05
1.633416708354176990e+03 1.763812112616226476e-05
1.634317158579289526e+03 1.750427143856325679e-05
1.635217608804402062e+03 1.737208792781021075e-05
1.636118059029514598e+03 1.724153996900966342e-05
1.637018509254627133e+03 1.711259772137540411e-05
1.637918959479739897e+03 1.698523210156034353e-05
1.638819409704852433e+03 1.685941475813947695e-05
1.639719859929964969e+03 1.673511804718214513e-05
1.640620310155077505e+03 1.661231500885885454e-05
1.641520760380190040e+03 1.649097934502798945e-05
1.642421210605302576e+03 1.637108539775336224e-05
1.643321660830415112e+03 1.625260812870501928e-05
1.644222111055527648e+03 1.613552309939871108e-05
1.645122561280640184e+03 1.601980645223457521e-05
1.646023011505752720e+03 1.590543489229228412e-05
1.646923461730865256e+03 1.579238566984938281e-05
1.647823911955978019e+03 1.568063656358596386e-05
1.648724362181090555e+03 1.557016586444217096e-05
1.649624812406203091e+03 1.546095236010078236e-05
1.650525262631315627e+03 1.535297532006149761e-05
1.651425712856428163e+03 1.524621448128224169e-05
1.652326163081540699e+03 1.514065003436084404e-05
1.653226613306653235e+03 1.503626261023079534e-05
1.654127063531765771e+03 1.493303326735015376e-05
1.655027513756878307e+03 1.483094347935917206e-05
1.655927963981990843e+03 1.472997512318765684e-05
1.656828414207103378e+03 1.463011046759065203e-05
1.657728864432216142e+03 1.453133216209438117e-05
1.658629314657328678e+03 1.443362322633526024e-05
1.659529764882441214e+03 1.433696703977302989e-05
1.660430215107553749e+03 1.424134733176448300e-05
1.661330665332666285e+03 1.414674817198016445e-05
1.662231115557778821e+03 1.405315396115189984e-05
1.663131565782891357e+03 1.396054942213469383e-05
1.664032016008003893e+03 1.386891959127303336e-05
1.664932466233116429e+03 1.377824981005549560e-05
1.665832916458228965e+03 1.368852571704971692e-05
1.666733366683341501e+03 1.359973324010327945e-05
1.667633816908454037e+03 1.351185858880137225e-05
1.668534267133566800e+03 1.342488824717039532e-05
1.669434717358679336e+03 1.333880896661879548e-05
1.670335167583791872e+03 1.325360775910392620e-05
1.671235617808904408e+03 1.316927189051771305e-05
1.672136068034016944e+03 1.308578887428241372e-05
1.673036518259129480e+03 1.300314646514770768e-05
1.673936968484242016e+03 1.292133265318164286e-05
1.674837418709354552e+03 1.284033565794915439e-05
1.675737868934467087e+03 1.276014392286896676e-05
1.676638319159579623e+03 1.268074610974472223e-05
1.677538769384692159e+03 1.260213109346166179e-05
1.678439219609804923e+03 1.252428795684415772e-05
1.679339669834917459e+03 1.244720598566775676e-05
1.680240120060029994e+03 1.237087466381985558e-05
1.681140570285142530e+03 1.229528366860408895e-05
1.682041020510255066e+03 1.222042286618330096e-05
1.682941470735367602e+03 1.214628230715531064e-05
1.683841920960480138e+03 1.207285222225813813e-05
1.684742371185592674e+03 1.200012301819871812e-05
1.685642821410705210e+03 1.192808527360224088e-05
1.686543271635817746e+03 1.185672973507639845e-05
1.687443721860930282e+03 1.178604731338766612e-05
1.688344172086043045e+03 1.171602907974576705e-05
1.689244622311155581e+03 1.164666626219199318e-05
1.690145072536268117e+03 1.157795024208778953e-05
1.691045522761380653e+03 1.150987255070162816e-05
1.691945972986493189e+03 1.144242486588903372e-05
1.692846423211605725e+03 1.137559900886406994e-05
1.693746873436718261e+03 1.130938694105814843e-05
1.694647323661830796e+03 1.124378076106468602e-05
1.695547773886943332e+03 1.117877270166531260e-05
1.696448224112055868e+03 1.111435512693572736e-05
1.697348674337168404e+03 1.105052052942903124e-05
1.698249124562281168e+03 1.098726152743347643e-05
1.699149574787393703e+03 1.092457086230156655e-05
1.700050025012506239e+03 1.086244139585071065e-05
1.700950475237618775e+03 1.080086610782959019e-05
1.701850925462731311e+03 1.073983809345176849e-05
1.702751375687843847e+03 1.067935056099200094e-05
1.703651825912956383e+03 1.061939682944420585e-05
1.704552276138068919e+03 1.055997032623910199e-05
1.705452726363181455e+03 1.050106458501991872e-05
1.706353176588293991e+03 1.044267324347412374e-05
1.707253626813406527e+03 1.038479004121912558e-05
1.708154077038519290e+03 1.032740881774105103e-05
1.709054527263631826e+03 1.027052351038527306e-05
1.709954977488744362e+03 1.021412815239526011e-05
1.710855427713856898e+03 1.015821687100064999e-05
1.711755877938969434e+03 1.010278388555213753e-05
1.712656328164081970e+03 1.004782350570058243e-05
1.713556778389194506e+03 9.993330129621673925e-06
1.714457228614307041e+03 9.939298242282361019e-06
1.715357678839419577e+03 9.885722413749463170e-06
1.716258129064532113e+03 9.832597297537701950e-06
1.717158579289644649e+03 9.779917628998500384e-06
1.718059029514757185e+03 9.727678223745194537e-06
1.718959479739869948e+03 9.675873976116271805e-06
1.719859929964982484e+03 9.624499857674438696e-06
1.720760380190095020e+03 9.573550915740518605e-06
1.721660830415207556e+03 9.523022271961242770e-06
1.722561280640320092e+03 9.472909120910273715e-06
1.723461730865432628e+03 9.423206728721500648e-06
1.724362181090545164e+03 9.373910431753226149e-06
1.725262631315657700e+03 9.325015635283027317e-06
1.726163081540770236e+03 9.276517812232190218e-06
1.727063531765882772e+03 9.228412501918736776e-06
1.727963981990995308e+03 9.180695308838786618e-06
1.728864432216108071e+03 9.133361901474524217e-06
1.729764882441220607e+03 9.086408011129770839e-06
1.730665332666333143e+03 9.039829430790433855e-06
1.731565782891445679e+03 8.993622014010160354e-06
1.732466233116558215e+03 8.947781673821195077e-06
1.733366683341670750e+03 8.902304381668445360e-06
1.734267133566783286e+03 8.857186166366759852e-06
1.735167583791895822e+03 8.812423113081197415e-06
1.736068034017008358e+03 8.768011362329152853e-06
1.736968484242120894e+03 8.723947109003832954e-06
1.737868934467233430e+03 8.680226601418742342e-06
1.738769384692346193e+03 8.636846140372608229e-06
1.739669834917458729e+03 8.593802078234313784e-06
1.740570285142571265e+03 8.551090818046415399e-06
1.741470735367683801e+03 8.508708812648914212e-06
1.742371185592796337e+03 8.466652563820061461e-06
1.743271635817908873e+03 8.424918621436045896e-06
1.744172086043021409e+03 8.383503582647664200e-06
1.745072536268133945e+03 8.342404091074313239e-06
1.745972986493246481e+03 8.301616836014482506e-06
1.746873436718359017e+03 8.261138551672695952e-06
1.747773886943471553e+03 8.220966016402152723e-06
1.748674337168584316e+03 8.181096051962619570e-06
1.749574787393696852e+03 8.141525522794062830e-06
1.750475237618809388e+03 8.102251335303990476e-06
1.751375687843921924e+03 8.063270437170437179e-06
1.752276138069034459e+03 8.024579816657565073e-06
1.753176588294146995e+03 7.986176501946253613e-06
1.754077038519259531e+03 7.948057560477142524e-06
1.754977488744372067e+03 7.910220098307262836e-06
1.755877938969484603e+03 7.872661259479000727e-06
1.756778389194597139e+03 7.835378225401939660e-06
1.757678839419709675e+03 7.798368214246411892e-06
1.758579289644822438e+03 7.761628480349315028e-06
1.759479739869934974e+03 7.725156313631233076e-06
1.760380190095047510e+03 7.688949039025089004e-06
1.761280640320160046e+03 7.653004015915764686e-06
1.762181090545272582e+03 7.617318637590468843e-06
1.763081540770385118e+03 7.581890330699954634e-06
1.763981990995497654e+03 7.546716554729502688e-06
1.764882441220610190e+03 7.511794801480963841e-06
1.765782891445722726e+03 7.477122594563389950e-06
1.766683341670835262e+03 7.442697488894450812e-06
1.767583791895947797e+03 7.408517070210761035e-06
1.768484242121060333e+03 7.374578954587319280e-06
1.769384692346173097e+03 7.340880787966197105e-06
1.770285142571285633e+03 7.307420245694102180e-06
1.771185592796398169e+03 7.274195032068297470e-06
1.772086043021510704e+03 7.241202879891081392e-06
1.772986493246623240e+03 7.208441550032650200e-06
1.773886943471735776e+03 7.175908831001767480e-06
1.774787393696848312e+03 7.143602538524491468e-06
1.775687843921960848e+03 7.111520515130597656e-06
1.776588294147073384e+03 7.079660629747564564e-06
1.777488744372185920e+03 7.048020777301950718e-06
1.778389194597298456e+03 7.016598878327863832e-06
1.779289644822411219e+03 6.985392878582707702e-06
1.780190095047523755e+03 6.954400748669869683e-06
1.781090545272636291e+03 6.923620483667865103e-06
1.781990995497748827e+03 6.893050102766477320e-06
1.782891445722861363e+03 6.862687648909463976e-06
1.783791895947973899e+03 6.832531188442852825e-06
1.784692346173086435e+03 6.802578810770758367e-06
1.785592796398198971e+03 6.772828628016129054e-06
1.786493246623311506e+03 6.743278774687839632e-06
1.787393696848424042e+03 6.713927407354028642e-06
1.788294147073536578e+03 6.684772704320680763e-06
1.789194597298649342e+03 6.655812865315759752e-06
1.790095047523761878e+03 6.627046111179528118e-06
1.790995497748874413e+03 6.598470683559320492e-06
1.791895947973986949e+03 6.570084844610245385e-06
1.792796398199099485e+03 6.541886876700742132e-06
1.793696848424212021e+03 6.513875082123408082e-06
1.794597298649324557e+03 6.486047782810619142e-06
1.795497748874437093e+03 6.458403320055086835e-06
1.796398199099549629e+03 6.430940054235022364e-06
1.797298649324662165e+03 6.403656364544246503e-06
1.798199099549774701e+03 6.376550648726619360e-06
1.799099549774887464e+03 6.349621322815288059e-06
1.800000000000000000e+03 6.322866820875591911e-06
