0.000000000000000000e+00 1.172077267822181417e-03
9.004502251125562351e-01 1.533604688266307923e-03
1.800900450225112470e+00 2.037077273096721871e-03
2.701350675337668594e+00 2.696638796627365536e-03
3.601800900450224940e+00 3.425321678044327984e-03
4.502251125562780842e+00 3.991009198290530920e-03
5.402701350675337189e+00 4.221766130009029644e-03
6.303151575787893535e+00 4.145604073622224418e-03
7.203601800900449881e+00 3.753612565124339606e-03
8.104052026013006227e+00 3.090911639505238701e-03
9.004502251125561685e+00 2.383444557220101845e-03
9.904952476238118919e+00 1.798558704528574600e-03
1.080540270135067438e+01 1.364793170817190249e-03
1.170585292646323161e+01 1.053457245618972474e-03
1.260630315157578707e+01 8.301091262643728623e-04
1.350675337668834430e+01 6.676747896166341676e-04
1.440720360180089976e+01 5.472385745527160806e-04
1.530765382691345522e+01 4.560966634973991855e-04
1.620810405202601245e+01 3.857791924935884457e-04
1.710855427713856969e+01 3.306299178337345607e-04
1.800900450225112337e+01 2.868208612798403296e-04
1.890945472736368060e+01 2.516836578439342158e-04
1.980990495247623784e+01 2.232257047893322199e-04
2.071035517758879507e+01 1.996770261691393849e-04
2.161080540270134875e+01 1.793177634447049604e-04
2.251125562781390599e+01 1.610793419803537377e-04
2.341170585292646322e+01 1.448784661564130624e-04
2.431215607803901690e+01 1.308297953350071399e-04
2.521260630315157414e+01 1.187730364933970454e-04
2.611305652826413137e+01 1.084040965145644485e-04
2.701350675337668861e+01 9.942839532825817729e-05
2.791395697848924229e+01 9.160734022545285104e-05
2.881440720360179952e+01 8.475520435183491678e-05
2.971485742871435676e+01 7.872220729967483138e-05
3.061530765382691044e+01 7.337225432804494020e-05
3.151575787893946767e+01 6.857293152120753476e-05
3.241620810405202491e+01 6.423321024685427541e-05
3.331665832916458214e+01 6.033242063062540752e-05
3.421710855427713938e+01 5.686556803942131210e-05
3.511755877938969661e+01 5.378134470663379382e-05
3.601800900450224674e+01 5.094722068636518359e-05
3.691845922961480397e+01 4.819816923520087377e-05
3.781890945472736121e+01 4.550531751888473242e-05
3.871935967983991844e+01 4.297298753561171728e-05
3.961980990495247568e+01 4.067222974070603233e-05
4.052026013006503291e+01 3.860153633338682643e-05
4.142071035517759015e+01 3.672160622320341442e-05
4.232116058029014027e+01 3.498311371370170389e-05
4.322161080540269751e+01 3.335922272300336042e-05
4.412206103051525474e+01 3.185257854986801965e-05
4.502251125562781198e+01 3.046774397067887716e-05
4.592296148074036921e+01 2.920052803145064093e-05
4.682341170585292645e+01 2.804417658963189212e-05
4.772386193096548368e+01 2.699442964863783722e-05
4.862431215607803381e+01 2.605170175136425133e-05
4.952476238119059104e+01 2.522218579098315031e-05
5.042521260630314828e+01 2.451712384292268501e-05
5.132566283141570551e+01 2.394520070652450875e-05
5.222611305652826275e+01 2.348924856185729285e-05
5.312656328164081998e+01 2.307762967839071364e-05
5.402701350675337721e+01 2.260141097443855844e-05
5.492746373186592734e+01 2.197300042939480895e-05
5.582791395697848458e+01 2.117079684171493869e-05
5.672836418209104181e+01 2.028520253796196724e-05
5.762881440720359905e+01 1.946043890526941159e-05
5.852926463231615628e+01 1.878171913995067523e-05
5.942971485742871351e+01 1.826994750970303613e-05
6.033016508254127075e+01 1.791496558686004665e-05
6.123061530765382088e+01 1.766793219457827571e-05
6.213106553276637811e+01 1.740937090905042044e-05
6.303151575787893535e+01 1.698454393063763759e-05
6.393196598299149258e+01 1.635408034363630491e-05
6.483241620810404982e+01 1.564734201189438899e-05
6.573286643321659994e+01 1.499934787586118754e-05
6.663331665832916428e+01 1.445748007559304917e-05
6.753376688344171441e+01 1.401921329862478434e-05
6.843421710855427875e+01 1.367332437256657687e-05
6.933466733366682888e+01 1.341389526062237670e-05
7.023511755877939322e+01 1.323925516087745286e-05
7.113556778389194335e+01 1.314152759477714704e-05
7.203601800900449348e+01 1.309823230641398767e-05
7.293646823411705782e+01 1.309599650210152100e-05
7.383691845922960795e+01 1.314675437950215148e-05
7.473736868434217229e+01 1.320124450777178816e-05
7.563781890945472242e+01 1.309087407866031013e-05
7.653826913456728676e+01 1.271206836004160564e-05
7.743871935967983688e+01 1.219871709888071581e-05
7.833916958479238701e+01 1.173945509353568190e-05
7.923961980990495135e+01 1.141404790332548440e-05
8.014007003501750148e+01 1.121838535807176366e-05
8.104052026013006582e+01 1.110427818634891658e-05
8.194097048524261595e+01 1.100841579801519519e-05
8.284142071035518029e+01 1.089264957803834832e-05
8.374187093546773042e+01 1.074752183432805524e-05
8.464232116058028055e+01 1.060021616549354730e-05
8.554277138569284489e+01 1.052394715689550240e-05
8.644322161080539502e+01 1.057910899037201842e-05
8.734367183591795936e+01 1.077480880506273996e-05
8.824412206103050949e+01 1.109367895343166278e-05
8.914457228614307382e+01 1.153388954441421435e-05
9.004502251125562395e+01 1.203261924393346358e-05
9.094547273636817408e+01 1.236101365988226740e-05
9.184592296148073842e+01 1.230140727118809752e-05
9.274637318659328855e+01 1.192692339302151945e-05
9.364682341170585289e+01 1.146912082486451588e-05
9.454727363681840302e+01 1.102272980653137877e-05
9.544772386193096736e+01 1.054669649381339563e-05
9.634817408704351749e+01 1.004179837177055885e-05
9.724862431215606762e+01 9.599242477041692827e-06
9.814907453726863196e+01 9.282021771730258989e-06
9.904952476238118209e+01 9.043122227003008793e-06
9.994997498749374643e+01 8.793621450937944632e-06
1.008504252126062966e+02 8.536672648060255204e-06
1.017508754377188609e+02 8.338440754244871186e-06
1.026513256628314110e+02 8.224312961509969822e-06
1.035517758879439612e+02 8.186241547017253758e-06
1.044522261130565255e+02 8.216787159263517400e-06
1.053526763381690756e+02 8.306385415097504430e-06
1.062531265632816400e+02 8.444383545844455337e-06
1.071535767883941901e+02 8.619442937618390182e-06
1.080540270135067544e+02 8.815864363701761034e-06
1.089544772386193046e+02 9.006983784148391654e-06
1.098549274637318547e+02 9.143717674997416621e-06
1.107553776888444190e+02 9.150610083021418442e-06
1.116558279139569692e+02 8.975955450028395171e-06
1.125562781390695335e+02 8.650207572204369290e-06
1.134567283641820836e+02 8.279310737547677064e-06
1.143571785892946480e+02 7.964961370883988386e-06
1.152576288144071981e+02 7.719013123137096919e-06
1.161580790395197482e+02 7.484768814450327243e-06
1.170585292646323126e+02 7.243220561179777556e-06
1.179589794897448627e+02 7.046023018552225911e-06
1.188594297148574270e+02 6.944712822908368197e-06
1.197598799399699772e+02 6.955151157223728170e-06
1.206603301650825415e+02 7.078764291806251753e-06
1.215607803901950916e+02 7.325889316463851570e-06
1.224612306153076418e+02 7.698342293485866197e-06
1.233616808404202061e+02 8.154024034159267529e-06
1.242621310655327562e+02 8.615075452602610791e-06
1.251625812906453206e+02 9.011016756028212977e-06
1.260630315157578707e+02 9.260952947892198044e-06
1.269634817408704350e+02 9.271269837226100437e-06
1.278639319659829852e+02 9.081252120222472085e-06
1.287643821910955353e+02 8.850129058179380756e-06
1.296648324162080996e+02 8.650864666180810181e-06
1.305652826413206640e+02 8.455072414624331721e-06
1.314657328664331999e+02 8.275576136132128515e-06
1.323661830915457642e+02 8.186333873892316418e-06
1.332666333166583286e+02 8.188360453079070352e-06
1.341670835417708929e+02 8.187745347484738997e-06
1.350675337668834288e+02 8.123086264800781912e-06
1.359679839919959932e+02 7.977527531957665069e-06
1.368684342171085575e+02 7.746396579225932108e-06
1.377688844422210934e+02 7.508155921440984880e-06
1.386693346673336578e+02 7.370322280375636993e-06
1.395697848924462221e+02 7.370527281568728580e-06
1.404702351175587864e+02 7.494114875323856084e-06
1.413706853426713224e+02 7.747513501125230959e-06
1.422711355677838867e+02 8.155405016150152122e-06
1.431715857928964510e+02 8.673832477702945695e-06
1.440720360180089870e+02 9.161385272618222252e-06
1.449724862431215513e+02 9.446154319938789771e-06
1.458729364682341156e+02 9.415885522302300684e-06
1.467733866933466800e+02 9.125517106256643494e-06
1.476738369184592159e+02 8.751836926753086104e-06
1.485742871435717802e+02 8.407130162627991373e-06
1.494747373686843446e+02 8.083622636860710351e-06
1.503751875937968805e+02 7.735671253308038899e-06
1.512756378189094448e+02 7.393247591284715886e-06
1.521760880440220092e+02 7.135052839337708871e-06
1.530765382691345735e+02 7.007343324480735931e-06
1.539769884942471094e+02 7.023786761628496045e-06
1.548774387193596738e+02 7.153000077503579003e-06
1.557778889444722381e+02 7.302585466303469647e-06
1.566783391695847740e+02 7.391399446205110696e-06
1.575787893946973384e+02 7.447670821612008197e-06
1.584792396198099027e+02 7.563348012387602450e-06
1.593796898449224670e+02 7.814138286753240605e-06
1.602801400700350030e+02 8.222806807450626704e-06
1.611805902951475673e+02 8.730862552006412274e-06
1.620810405202601316e+02 9.226643489913517824e-06
1.629814907453726676e+02 9.611710308947726039e-06
1.638819409704852319e+02 9.798116203755707400e-06
1.647823911955977962e+02 9.710463940984667846e-06
1.656828414207103606e+02 9.379993817777658297e-06
1.665832916458228965e+02 8.972217952327797672e-06
1.674837418709354608e+02 8.658144517319692017e-06
1.683841920960480252e+02 8.464654866410538234e-06
1.692846423211605611e+02 8.301402997809287902e-06
1.701850925462731254e+02 8.104400832390412220e-06
1.710855427713856898e+02 7.905470506770082020e-06
1.719859929964982541e+02 7.804139141876311443e-06
1.728864432216107900e+02 7.901662693898648770e-06
1.737868934467233544e+02 8.255119657829593815e-06
1.746873436718359187e+02 8.862059201538749324e-06
1.755877938969484546e+02 9.640080126684490231e-06
1.764882441220610190e+02 1.044103610072876740e-05
1.773886943471735833e+02 1.115809930618303680e-05
1.782891445722861476e+02 1.176502026882696107e-05
1.791895947973986836e+02 1.215885150334098127e-05
1.800900450225112479e+02 1.219167818562297796e-05
1.809904952476238122e+02 1.194247463315386883e-05
1.818909454727363482e+02 1.165075828044200950e-05
1.827913956978489125e+02 1.145323949302107915e-05
1.836918459229614768e+02 1.131294862176962664e-05
1.845922961480740412e+02 1.115745173498742775e-05
1.854927463731865771e+02 1.098822379370258282e-05
1.863931965982991414e+02 1.086637855001037463e-05
1.872936468234117058e+02 1.086297316482423809e-05
1.881940970485242417e+02 1.092524673807905946e-05
1.890945472736368060e+02 1.087008945397721437e-05
1.899949974987493704e+02 1.060756720587188937e-05
1.908954477238619347e+02 1.028201629822874169e-05
1.917958979489744706e+02 1.008080667650679186e-05
1.926963481740870350e+02 1.004755332482941872e-05
1.935967983991995993e+02 1.014079614368360689e-05
1.944972486243121352e+02 1.032507166754891999e-05
1.953976988494246996e+02 1.055590639639545081e-05
1.962981490745372639e+02 1.077465976081450358e-05
1.971985992996498283e+02 1.092135759978605016e-05
1.980990495247623642e+02 1.094253116181837413e-05
1.989994997498749285e+02 1.079956455286571517e-05
1.998999499749874929e+02 1.052720938768562070e-05
2.008004002001000288e+02 1.027032503797357356e-05
2.017008504252125931e+02 1.014390645969244373e-05
2.026013006503251574e+02 1.015771898783188346e-05
2.035017508754377218e+02 1.028840861123989121e-05
2.044022011005502577e+02 1.048188670236674389e-05
2.053026513256628220e+02 1.067989438869279374e-05
2.062031015507753864e+02 1.093367120558049420e-05
2.071035517758879223e+02 1.130346292265968645e-05
2.080040020010004866e+02 1.170631795450059283e-05
2.089044522261130510e+02 1.198473676332263173e-05
2.098049024512256153e+02 1.213343506557047604e-05
2.107053526763381512e+02 1.233217479359317018e-05
2.116058029014507156e+02 1.271022868344148188e-05
2.125062531265632799e+02 1.324954397041730941e-05
2.134067033516758158e+02 1.384526437357401100e-05
2.143071535767883802e+02 1.430417650070373877e-05
2.152076038019009445e+02 1.439990132551411641e-05
2.161080540270135089e+02 1.409133114054058063e-05
2.170085042521260448e+02 1.356620776784386899e-05
2.179089544772386091e+02 1.303370227124385371e-05
2.188094047023511735e+02 1.264158805074835263e-05
2.197098549274637094e+02 1.245464483194181492e-05
2.206103051525762737e+02 1.243270082432014374e-05
2.215107553776888381e+02 1.253724440136420344e-05
2.224112056028014024e+02 1.277543526313894074e-05
2.233116558279139383e+02 1.312889103327852791e-05
2.242121060530265027e+02 1.353640268515862725e-05
2.251125562781390670e+02 1.395794111132439283e-05
2.260130065032516029e+02 1.436097284181418614e-05
2.269134567283641672e+02 1.470496714498301314e-05
2.278139069534767316e+02 1.498618691761995067e-05
2.287143571785892959e+02 1.523409881270789921e-05
2.296148074037018318e+02 1.552102642801423595e-05
2.305152576288143962e+02 1.591695251161642021e-05
2.314157078539269605e+02 1.634905839678763153e-05
2.323161580790394964e+02 1.663492136788491805e-05
2.332166083041520608e+02 1.670971961219142846e-05
2.341170585292646251e+02 1.663793424897996303e-05
2.350175087543771895e+02 1.642871794723794503e-05
2.359179589794897254e+02 1.602507935463633643e-05
2.368184092046022897e+02 1.550315073348617909e-05
2.377188594297148541e+02 1.507639875793804560e-05
2.386193096548273900e+02 1.487016005873877293e-05
2.395197598799399543e+02 1.483125550377104630e-05
2.404202101050525187e+02 1.481722384019220137e-05
2.413206603301650830e+02 1.480124422589936229e-05
2.422211105552776189e+02 1.485896175546682000e-05
2.431215607803901833e+02 1.496235364238053322e-05
2.440220110055027476e+02 1.504742811385398872e-05
2.449224612306152835e+02 1.511881291996363037e-05
2.458229114557278479e+02 1.517936511754446799e-05
2.467233616808404122e+02 1.518662169706090065e-05
2.476238119059529765e+02 1.510860846581873375e-05
2.485242621310655124e+02 1.494573234366551296e-05
2.494247123561780768e+02 1.471325099620075859e-05
2.503251625812906411e+02 1.448559985388459976e-05
2.512256128064031770e+02 1.438280707850618119e-05
2.521260630315157414e+02 1.444482625820825525e-05
2.530265132566283057e+02 1.455512260870243050e-05
2.539269634817408701e+02 1.456919475257312516e-05
2.548274137068534060e+02 1.443566521063339972e-05
2.557278639319659703e+02 1.415446448190859527e-05
2.566283141570785347e+02 1.374509688019261405e-05
2.575287643821910706e+02 1.327869954673202648e-05
2.584292146073036633e+02 1.285518380625718640e-05
2.593296648324161993e+02 1.252687170713295139e-05
2.602301150575287352e+02 1.229535048403760191e-05
2.611305652826413279e+02 1.213780588155093872e-05
2.620310155077538639e+02 1.201289773142439498e-05
2.629314657328663998e+02 1.193264477451931072e-05
2.638319159579789925e+02 1.195630411314902632e-05
2.647323661830915285e+02 1.204821753909290204e-05
2.656328164082040644e+02 1.210770976925660217e-05
2.665332666333166571e+02 1.209280407480190793e-05
2.674337168584291931e+02 1.200757812042655506e-05
2.683341670835417858e+02 1.187128711012145795e-05
2.692346173086543217e+02 1.169777076909040488e-05
2.701350675337668577e+02 1.150182612716244075e-05
2.710355177588794504e+02 1.130533950051086391e-05
2.719359679839919863e+02 1.108047028969388193e-05
2.728364182091045222e+02 1.079021434302510149e-05
2.737368684342171150e+02 1.048910850087039327e-05
2.746373186593296509e+02 1.025818941594057136e-05
2.755377688844421868e+02 1.009805699518985047e-05
2.764382191095547796e+02 9.975026116862956821e-06
2.773386693346673155e+02 9.907941679868881879e-06
2.782391195597798514e+02 9.950869646628775526e-06
2.791395697848924442e+02 1.011921959567799361e-05
2.800400200100049801e+02 1.036924479839972485e-05
2.809404702351175729e+02 1.061420193580066201e-05
2.818409204602301088e+02 1.080818478510783269e-05
2.827413706853426447e+02 1.100508118563488733e-05
2.836418209104552375e+02 1.126440782136967777e-05
2.845422711355677734e+02 1.157050720157463200e-05
2.854427213606803093e+02 1.186630112835554723e-05
2.863431715857929021e+02 1.210540408320373329e-05
2.872436218109054380e+02 1.230141224681968673e-05
2.881440720360179739e+02 1.248179959516144108e-05
2.890445222611305667e+02 1.258136470152844279e-05
2.899449724862431026e+02 1.251190236933641949e-05
2.908454227113556385e+02 1.233207751539986553e-05
2.917458729364682313e+02 1.221241733512660861e-05
2.926463231615807672e+02 1.225768635789710861e-05
2.935467733866933600e+02 1.244201190387563485e-05
2.944472236118058959e+02 1.271458981541557236e-05
2.953476738369184318e+02 1.309588722496220537e-05
2.962481240620310246e+02 1.359576765949782415e-05
2.971485742871435605e+02 1.409717666230660363e-05
2.980490245122560964e+02 1.443287872197646606e-05
2.989494747373686891e+02 1.451548338636749272e-05
2.998499249624812251e+02 1.432018522370614595e-05
3.007503751875937610e+02 1.390632659158920009e-05
3.016508254127063537e+02 1.340121757108588915e-05
3.025512756378188897e+02 1.290731215022653165e-05
3.034517258629314256e+02 1.248493698692808533e-05
3.043521760880440183e+02 1.212812472077054235e-05
3.052526263131565543e+02 1.182298811882647336e-05
3.061530765382691470e+02 1.162296208806698257e-05
3.070535267633816829e+02 1.159245050439260697e-05
3.079539769884942189e+02 1.171840252647879338e-05
3.088544272136068116e+02 1.191398299405858728e-05
3.097548774387193475e+02 1.211485069816556310e-05
3.106553276638318835e+02 1.233164557452829970e-05
3.115557778889444762e+02 1.257123154004550227e-05
3.124562281140570121e+02 1.282234920322126100e-05
3.133566783391695481e+02 1.310057877249719146e-05
3.142571285642821408e+02 1.342518333704200757e-05
3.151575787893946767e+02 1.374596292378743026e-05
3.160580290145072127e+02 1.389074542285058420e-05
3.169584792396198054e+02 1.369579676567324490e-05
3.178589294647323413e+02 1.323954084135236344e-05
3.187593796898449341e+02 1.277454701491077124e-05
3.196598299149574700e+02 1.244785197628604063e-05
3.205602801400700059e+02 1.223106454375431027e-05
3.214607303651825987e+02 1.205944381611236974e-05
3.223611805902951346e+02 1.189758477475183349e-05
3.232616308154076705e+02 1.175905814334542945e-05
3.241620810405202633e+02 1.171978903996727579e-05
3.250625312656327992e+02 1.180958693062052469e-05
3.259629814907453351e+02 1.194877261306806622e-05
3.268634317158579279e+02 1.203418584197839982e-05
3.277638819409704638e+02 1.202659781478200632e-05
3.286643321660829997e+02 1.196512226993608852e-05
3.295647823911955925e+02 1.194373378459728215e-05
3.304652326163081284e+02 1.202071515766582611e-05
3.313656828414207212e+02 1.216099214735712996e-05
3.322661330665332571e+02 1.228398830123714747e-05
3.331665832916457930e+02 1.230911053301565106e-05
3.340670335167583858e+02 1.222803670199401911e-05
3.349674837418709217e+02 1.213817278189231061e-05
3.358679339669834576e+02 1.212594404190345064e-05
3.367683841920960504e+02 1.217698849914371306e-05
3.376688344172085863e+02 1.223350196891410546e-05
3.385692846423211222e+02 1.226575650598168708e-05
3.394697348674337150e+02 1.225828837326512394e-05
3.403701850925462509e+02 1.219768907581629114e-05
3.412706353176587868e+02 1.208058188291900971e-05
3.421710855427713796e+02 1.192837645669271301e-05
3.430715357678839155e+02 1.177816825605686830e-05
3.439719859929965082e+02 1.165247907914029899e-05
3.448724362181090441e+02 1.155758612663386097e-05
3.457728864432215801e+02 1.151134906138038492e-05
3.466733366683341728e+02 1.153282258346079292e-05
3.475737868934467087e+02 1.163332649334859761e-05
3.484742371185592447e+02 1.182756186344362958e-05
3.493746873436718374e+02 1.210071215274152490e-05
3.502751375687843733e+02 1.237103404483410982e-05
3.511755877938969093e+02 1.252324229731728269e-05
3.520760380190095020e+02 1.250020437551380899e-05
3.529764882441220379e+02 1.235840869749102226e-05
3.538769384692345739e+02 1.219969799855299562e-05
3.547773886943471666e+02 1.210252697787408515e-05
3.556778389194597025e+02 1.210569940518471951e-05
3.565782891445722953e+02 1.220720172087885522e-05
3.574787393696848312e+02 1.236875887198499052e-05
3.583791895947973671e+02 1.252597020860154791e-05
3.592796398199099599e+02 1.263747906293939955e-05
3.601800900450224958e+02 1.270997650964141113e-05
3.610805402701350317e+02 1.281519152142139273e-05
3.619809904952476245e+02 1.303469662023390722e-05
3.628814407203601604e+02 1.338855822399841784e-05
3.637818909454726963e+02 1.381333441240900029e-05
3.646823411705852891e+02 1.415790725324129550e-05
3.655827913956978250e+02 1.428859999136384253e-05
3.664832416208103609e+02 1.425168005591360850e-05
3.673836918459229537e+02 1.423065968643689160e-05
3.682841420710354896e+02 1.433081831285569260e-05
3.691845922961480824e+02 1.451034475232044647e-05
3.700850425212606183e+02 1.469971140417250876e-05
3.709854927463731542e+02 1.484724490178292531e-05
3.718859429714857470e+02 1.493068330802214319e-05
3.727863931965982829e+02 1.498141501770851764e-05
3.736868434217108188e+02 1.502565808747967993e-05
3.745872936468234116e+02 1.501399974174076289e-05
3.754877438719359475e+02 1.490088484644974592e-05
3.763881940970484834e+02 1.476220790066820328e-05
3.772886443221610762e+02 1.471408536284134631e-05
3.781890945472736121e+02 1.478034633121211082e-05
3.790895447723861480e+02 1.487201658613379383e-05
3.799899949974987408e+02 1.491042893066818122e-05
3.808904452226112767e+02 1.491997451655213988e-05
3.817908954477238694e+02 1.496134406948373787e-05
3.826913456728364054e+02 1.505987312975662388e-05
3.835917958979489413e+02 1.517856144318660033e-05
3.844922461230615340e+02 1.528533101625256221e-05
3.853926963481740700e+02 1.542608502883257145e-05
3.862931465732866059e+02 1.563477119025155407e-05
3.871935967983991986e+02 1.586348088082937562e-05
3.880940470235117346e+02 1.605833460344353557e-05
3.889944972486242705e+02 1.623877431692222900e-05
3.898949474737368632e+02 1.645680980320155638e-05
3.907953976988493991e+02 1.675960819819538245e-05
3.916958479239619351e+02 1.714544321622574048e-05
3.925962981490745278e+02 1.750886430599163057e-05
3.934967483741870637e+02 1.769225751562784299e-05
3.943971985992996565e+02 1.764841702277628071e-05
3.952976488244121924e+02 1.747284705306271615e-05
3.961980990495247283e+02 1.727981319257418301e-05
3.970985492746373211e+02 1.715055133019436866e-05
3.979989994997498570e+02 1.715956406828318396e-05
3.988994497248623929e+02 1.737395246604618294e-05
3.997998999499749857e+02 1.779222290924424669e-05
4.007003501750875216e+02 1.834814594318686143e-05
4.016008004002000575e+02 1.896381283773758983e-05
4.025012506253126503e+02 1.954552547499821750e-05
4.034017008504251862e+02 1.997884784505720676e-05
4.043021510755377221e+02 2.015559314746184091e-05
4.052026013006503149e+02 2.007779822542999637e-05
4.061030515257628508e+02 1.992091768141193521e-05
4.070035017508754436e+02 1.986713544994495595e-05
4.079039519759879795e+02 1.994364350068186044e-05
4.088044022011005154e+02 2.011142968340760289e-05
4.097048524262131082e+02 2.033755274431435807e-05
4.106053026513256441e+02 2.060492635224821004e-05
4.115057528764381800e+02 2.094093991892103808e-05
4.124062031015507728e+02 2.134078921125686170e-05
4.133066533266633087e+02 2.173339205588765307e-05
4.142071035517758446e+02 2.203167376089463028e-05
4.151075537768884374e+02 2.216226388773906542e-05
4.160080040020009733e+02 2.209556070610655952e-05
4.169084542271135092e+02 2.186845008208627359e-05
4.178089044522261020e+02 2.159545037273174258e-05
4.187093546773386379e+02 2.141560024342205844e-05
4.196098049024512306e+02 2.137518418839762157e-05
4.205102551275637666e+02 2.139204058991420274e-05
4.214107053526763025e+02 2.136573290717727245e-05
4.223111555777888952e+02 2.132117222752008187e-05
4.232116058029014312e+02 2.137602690860205892e-05
4.241120560280139671e+02 2.156421712569764207e-05
4.250125062531265598e+02 2.184168197400654637e-05
4.259129564782390958e+02 2.214140543248050962e-05
4.268134067033516317e+02 2.235789881252835817e-05
4.277138569284642244e+02 2.244392833490892314e-05
4.286143071535767604e+02 2.244449805009016700e-05
4.295147573786892963e+02 2.239121620008323657e-05
4.304152076038018890e+02 2.227540798699310649e-05
4.313156578289144250e+02 2.210972362881335237e-05
4.322161080540270177e+02 2.196621043979267305e-05
4.331165582791395536e+02 2.191143615301409308e-05
4.340170085042520896e+02 2.194014360960046877e-05
4.349174587293646823e+02 2.206960880385330635e-05
4.358179089544772182e+02 2.236094605874450349e-05
4.367183591795897541e+02 2.278509902599559398e-05
4.376188094047023469e+02 2.321257987298342912e-05
4.385192596298148828e+02 2.348092075340214429e-05
4.394197098549274187e+02 2.350433508013846171e-05
4.403201600800400115e+02 2.334766376000650429e-05
4.412206103051525474e+02 2.315898717956741114e-05
4.421210605302650833e+02 2.305221939053597656e-05
4.430215107553776761e+02 2.306928880862219524e-05
4.439219609804902120e+02 2.318438574485439733e-05
4.448224112056028048e+02 2.335123600097127518e-05
4.457228614307153407e+02 2.353018932945635190e-05
4.466233116558278766e+02 2.365658512084502720e-05
4.475237618809404694e+02 2.361556222622361551e-05
4.484242121060530053e+02 2.333339836387440415e-05
4.493246623311655412e+02 2.292764322755850290e-05
4.502251125562781340e+02 2.260265778908081849e-05
4.511255627813906699e+02 2.242543457302897996e-05
4.520260130065032058e+02 2.236556063993047654e-05
4.529264632316157986e+02 2.241147105557890487e-05
4.538269134567283345e+02 2.258623379149312323e-05
4.547273636818408704e+02 2.293532796025640134e-05
4.556278139069534632e+02 2.342788776156191970e-05
4.565282641320659991e+02 2.391782347736799884e-05
4.574287143571785919e+02 2.427915202388727941e-05
4.583291645822911278e+02 2.449207341248242783e-05
4.592296148074036637e+02 2.459757353796250960e-05
4.601300650325162565e+02 2.470472132612290580e-05
4.610305152576287924e+02 2.497809686187683678e-05
4.619309654827413283e+02 2.548399394629526058e-05
4.628314157078539210e+02 2.615309027456270223e-05
4.637318659329664570e+02 2.688441828107123650e-05
4.646323161580789929e+02 2.755207763723613087e-05
4.655327663831915856e+02 2.799111637928661624e-05
4.664332166083041216e+02 2.818400102456079020e-05
4.673336668334167143e+02 2.826857005016475749e-05
4.682341170585292502e+02 2.822861933134668651e-05
4.691345672836417862e+02 2.791635140863996811e-05
4.700350175087543789e+02 2.736264158431459613e-05
4.709354677338669148e+02 2.682072929095422653e-05
4.718359179589794508e+02 2.658054337047978177e-05
4.727363681840920435e+02 2.679197174432428771e-05
4.736368184092045794e+02 2.740993445657728724e-05
4.745372686343171154e+02 2.820882135394766626e-05
4.754377188594297081e+02 2.885302158083687582e-05
4.763381690845422440e+02 2.907881364023602878e-05
4.772386193096547800e+02 2.886614851459854913e-05
4.781390695347673727e+02 2.839975398590004516e-05
4.790395197598799086e+02 2.792226169085106148e-05
4.799399699849925014e+02 2.760807782947491098e-05
4.808404202101050373e+02 2.744940153786477077e-05
4.817408704352175732e+02 2.735431212645899289e-05
4.826413206603301660e+02 2.733516862560349280e-05
4.835417708854427019e+02 2.742564896449933249e-05
4.844422211105552378e+02 2.756388993179338491e-05
4.853426713356678306e+02 2.771723647243478931e-05
4.862431215607803665e+02 2.795831096844684336e-05
4.871435717858929024e+02 2.833589470059797379e-05
4.880440220110054952e+02 2.883663803945635487e-05
4.889444722361180311e+02 2.944152878739945525e-05
4.898449224612305670e+02 3.010051730334614830e-05
4.907453726863431598e+02 3.072726353247881077e-05
4.916458229114556957e+02 3.129240349038245420e-05
4.925462731365682885e+02 3.180769546580771405e-05
4.934467233616808244e+02 3.222331562008899668e-05
4.943471735867933603e+02 3.249996005644458945e-05
4.952476238119059531e+02 3.272427969904999313e-05
4.961480740370184890e+02 3.300632288474162376e-05
4.970485242621310249e+02 3.333353384569102908e-05
4.979489744872436177e+02 3.356153295346681260e-05
4.988494247123561536e+02 3.351574944070648791e-05
4.997498749374686895e+02 3.308828383270402950e-05
5.006503251625812823e+02 3.234548511185705296e-05
5.015507753876938182e+02 3.152951476870619979e-05
5.024512256128063541e+02 3.083712838799800352e-05
5.033516758379189469e+02 3.042658041964928676e-05
5.042521260630314828e+02 3.036967734294929028e-05
5.051525762881440755e+02 3.058695270816859634e-05
5.060530265132566115e+02 3.101585789308764445e-05
5.069534767383691474e+02 3.157697031836428973e-05
5.078539269634817401e+02 3.208162027651053375e-05
5.087543771885942760e+02 3.243646666353621600e-05
5.096548274137068120e+02 3.273518951720898461e-05
5.105552776388194047e+02 3.302648848282894626e-05
5.114557278639319406e+02 3.327621485313772033e-05
5.123561780890445334e+02 3.347395001459305114e-05
5.132566283141570693e+02 3.359804210161357644e-05
5.141570785392696052e+02 3.366273774288191834e-05
5.150575287643821412e+02 3.372423882101514652e-05
5.159579789894946771e+02 3.373884778555826208e-05
5.168584292146073267e+02 3.369940864230652029e-05
5.177588794397198626e+02 3.373761741595087039e-05
5.186593296648323985e+02 3.396757378433794966e-05
5.195597798899449344e+02 3.439009718098842304e-05
5.204602301150574704e+02 3.491016574781755988e-05
5.213606803401700063e+02 3.543255055687811143e-05
5.222611305652826559e+02 3.590817743423582460e-05
5.231615807903951918e+02 3.624996961500618990e-05
5.240620310155077277e+02 3.638676352054230281e-05
5.249624812406202636e+02 3.640432081703167159e-05
5.258629314657327996e+02 3.648513934712993188e-05
5.267633816908454492e+02 3.671578510072011586e-05
5.276638319159579851e+02 3.710992294211234348e-05
5.285642821410705210e+02 3.766228795820250266e-05
5.294647323661830569e+02 3.828519498683871766e-05
5.303651825912955928e+02 3.887061304057349724e-05
5.312656328164081287e+02 3.935896287739131601e-05
5.321660830415207784e+02 3.973749226412409219e-05
5.330665332666333143e+02 3.996691141931802462e-05
5.339669834917458502e+02 4.002825456545211605e-05
5.348674337168583861e+02 3.999877666768307359e-05
5.357678839419709220e+02 4.000124190414717064e-05
5.366683341670835716e+02 4.018155383008372962e-05
5.375687843921961075e+02 4.060959383911441482e-05
5.384692346173086435e+02 4.120080915237743074e-05
5.393696848424211794e+02 4.180006915235074251e-05
5.402701350675337153e+02 4.231666669371350018e-05
5.411705852926462512e+02 4.278433611066289770e-05
5.420710355177589008e+02 4.324494598325484551e-05
5.429714857428714367e+02 4.374981878785937637e-05
5.438719359679839727e+02 4.446637948309909631e-05
5.447723861930965086e+02 4.550802048875713323e-05
5.456728364182090445e+02 4.680943214923958910e-05
5.465732866433215804e+02 4.822342795199746352e-05
5.474737368684342300e+02 4.959124895416934558e-05
5.483741870935467659e+02 5.079082230622165687e-05
5.492746373186593019e+02 5.177657855918073456e-05
5.501750875437718378e+02 5.259535558012797126e-05
5.510755377688843737e+02 5.327307249130433064e-05
5.519759879939970233e+02 5.372777376906707147e-05
5.528764382191095592e+02 5.387924661371526545e-05
5.537768884442220951e+02 5.388218975787569627e-05
5.546773386693346310e+02 5.401408958633021094e-05
5.555777888944471670e+02 5.432025277008864137e-05
5.564782391195597029e+02 5.459447049620320849e-05
5.573786893446723525e+02 5.468309823928583808e-05
5.582791395697848884e+02 5.473583575577914125e-05
5.591795897948974243e+02 5.499501642403293493e-05
5.600800400200099602e+02 5.551821916782140976e-05
5.609804902451224962e+02 5.625506707497978260e-05
5.618809404702351458e+02 5.715237235138600938e-05
5.627813906953476817e+02 5.813006043373400666e-05
5.636818409204602176e+02 5.907522215114424739e-05
5.645822911455727535e+02 5.990805933887056480e-05
5.654827413706852894e+02 6.068044157534837772e-05
5.663831915957978254e+02 6.156563135403326018e-05
5.672836418209104750e+02 6.260588004596160186e-05
5.681840920460230109e+02 6.364746963709442716e-05
5.690845422711355468e+02 6.454989821653903776e-05
5.699849924962480827e+02 6.527397752528850807e-05
5.708854427213606186e+02 6.590893889573949563e-05
5.717858929464731546e+02 6.665097449359701665e-05
5.726863431715858042e+02 6.763699651313531615e-05
5.735867933966983401e+02 6.874408005006522741e-05
5.744872436218108760e+02 6.948296760836469908e-05
5.753876938469234119e+02 6.954510809586205377e-05
5.762881440720359478e+02 6.918093264242177235e-05
5.771885942971485974e+02 6.867814412693627887e-05
5.780890445222611334e+02 6.809587411333277310e-05
5.789894947473736693e+02 6.755914437874879221e-05
5.798899449724862052e+02 6.726726951405142152e-05
5.807903951975987411e+02 6.723259382408941140e-05
5.816908454227112770e+02 6.733049622188613955e-05
5.825912956478239266e+02 6.750465023316514553e-05
5.834917458729364625e+02 6.776169851002758731e-05
5.843921960980489985e+02 6.807418522851370573e-05
5.852926463231615344e+02 6.847892437218631588e-05
5.861930965482740703e+02 6.896558346605868579e-05
5.870935467733867199e+02 6.944809179150894019e-05
5.879939969984992558e+02 6.997998750315136910e-05
5.888944472236117917e+02 7.073238709759288481e-05
5.897948974487243277e+02 7.159569196544750107e-05
5.906953476738368636e+02 7.211767097587924236e-05
5.915957978989493995e+02 7.201015025067515239e-05
5.924962481240620491e+02 7.133764191182757788e-05
5.933966983491745850e+02 7.034610485157094138e-05
5.942971485742871209e+02 6.923314244645959543e-05
5.951975987993996569e+02 6.816477022651147002e-05
5.960980490245121928e+02 6.734965225073475466e-05
5.969984992496247287e+02 6.691097942892768546e-05
5.978989494747373783e+02 6.681830665737756086e-05
5.987993996998499142e+02 6.700016945728531014e-05
5.996998499249624501e+02 6.742333933284439733e-05
6.006003001500749860e+02 6.796126607006750355e-05
6.015007503751875220e+02 6.828622046510235400e-05
6.024012006003001716e+02 6.823391413999371834e-05
6.033016508254127075e+02 6.802556153586338113e-05
6.042021010505252434e+02 6.787911625005566170e-05
6.051025512756377793e+02 6.782349240871440703e-05
6.060030015007503152e+02 6.788996650639146722e-05
6.069034517258628512e+02 6.825103060900393243e-05
6.078039019509755008e+02 6.903855786339695535e-05
6.087043521760880367e+02 7.010145309752777100e-05
6.096048024012005726e+02 7.099320430416999298e-05
6.105052526263131085e+02 7.129846775738396764e-05
6.114057028514256444e+02 7.114561010007664388e-05
6.123061530765382940e+02 7.088600101895035780e-05
6.132066033016508300e+02 7.054124784944681840e-05
6.141070535267633659e+02 7.003544466953996197e-05
6.150075037518759018e+02 6.940432817117114762e-05
6.159079539769884377e+02 6.871281124105423392e-05
6.168084042021009736e+02 6.806562665100770245e-05
6.177088544272136232e+02 6.751424689386531486e-05
6.186093046523261592e+02 6.707602648299542259e-05
6.195097548774386951e+02 6.673672483529687874e-05
6.204102051025512310e+02 6.642267090001908797e-05
6.213106553276637669e+02 6.611318082935975504e-05
6.222111055527763028e+02 6.598870110632815090e-05
6.231115557778889524e+02 6.620426944574035581e-05
6.240120060030014884e+02 6.672799514387041137e-05
6.249124562281140243e+02 6.757850413877760818e-05
6.258129064532265602e+02 6.860152777601533081e-05
6.267133566783390961e+02 6.928558284722623705e-05
6.276138069034517457e+02 6.913058070602079658e-05
6.285142571285642816e+02 6.815170676808603742e-05
6.294147073536768175e+02 6.700006960252998640e-05
6.303151575787893535e+02 6.629739384008358476e-05
6.312156078039018894e+02 6.614434065761258779e-05
6.321160580290144253e+02 6.634148011370204396e-05
6.330165082541270749e+02 6.675982978517453436e-05
6.339169584792396108e+02 6.734485628535591916e-05
6.348174087043521467e+02 6.787601835201852543e-05
6.357178589294646827e+02 6.810835214184712773e-05
6.366183091545772186e+02 6.797107452398182433e-05
6.375187593796898682e+02 6.748316340227924690e-05
6.384192096048024041e+02 6.670293016282801324e-05
6.393196598299149400e+02 6.579942972515587512e-05
6.402201100550274759e+02 6.505717895627067084e-05
6.411205602801400119e+02 6.457877898244661265e-05
6.420210105052525478e+02 6.420912194865901058e-05
6.429214607303651974e+02 6.382079771600086262e-05
6.438219109554777333e+02 6.344220578444243104e-05
6.447223611805902692e+02 6.318049885494160967e-05
6.456228114057028051e+02 6.309774612983401975e-05
6.465232616308153411e+02 6.315736338719696622e-05
6.474237118559278770e+02 6.335868986737084219e-05
6.483241620810405266e+02 6.382456563625239960e-05
6.492246123061530625e+02 6.452327958634988608e-05
6.501250625312655984e+02 6.507166510721653599e-05
6.510255127563781343e+02 6.504199228899048050e-05
6.519259629814906702e+02 6.439451149130937045e-05
6.528264132066033198e+02 6.339514268348285248e-05
6.537268634317158558e+02 6.232485548929486403e-05
6.546273136568283917e+02 6.138665775242392272e-05
6.555277638819409276e+02 6.084680783159275032e-05
6.564282141070534635e+02 6.090289405453236691e-05
6.573286643321659994e+02 6.150067857547963793e-05
6.582291145572786490e+02 6.244985661232452842e-05
6.591295647823911850e+02 6.345624896690191458e-05
6.600300150075037209e+02 6.427741849232740227e-05
6.609304652326162568e+02 6.482007401892783400e-05
6.618309154577287927e+02 6.504075415187685289e-05
6.627313656828414423e+02 6.486538476961732776e-05
6.636318159079539782e+02 6.416283992925337330e-05
6.645322661330665142e+02 6.286885724585327751e-05
6.654327163581790501e+02 6.127696468808402764e-05
6.663331665832915860e+02 5.985763672746578263e-05
6.672336168084041219e+02 5.881321612344334103e-05
6.681340670335167715e+02 5.810267763759171042e-05
6.690345172586293074e+02 5.760653140556789588e-05
6.699349674837418434e+02 5.714139366279759151e-05
6.708354177088543793e+02 5.658272445693029220e-05
6.717358679339669152e+02 5.597312509137397348e-05
6.726363181590794511e+02 5.548298359318103276e-05
6.735367683841921007e+02 5.524000228946375035e-05
6.744372186093046366e+02 5.522719673249970113e-05
6.753376688344171725e+02 5.534198531852370270e-05
6.762381190595297085e+02 5.551395559635022037e-05
6.771385692846422444e+02 5.564782679630463584e-05
6.780390195097548940e+02 5.556440018541715148e-05
6.789394697348674299e+02 5.515950928402487606e-05
6.798399199599799658e+02 5.446790438736066729e-05
6.807403701850925017e+02 5.363144980591456993e-05
6.816408204102050377e+02 5.288364530183102189e-05
6.825412706353175736e+02 5.218469210523670837e-05
6.834417208604302232e+02 5.127031412413607435e-05
6.843421710855427591e+02 5.019498105562694847e-05
6.852426213106552950e+02 4.924181952646745881e-05
6.861430715357678309e+02 4.854763312002765804e-05
6.870435217608803669e+02 4.805093089233857093e-05
6.879439719859930165e+02 4.769719419980871433e-05
6.888444222111055524e+02 4.753967975048203746e-05
6.897448724362180883e+02 4.753911045906026065e-05
6.906453226613306242e+02 4.758397798168019889e-05
6.915457728864431601e+02 4.761073331492576388e-05
6.924462231115556961e+02 4.758107217793152978e-05
6.933466733366683457e+02 4.748908034903284590e-05
6.942471235617808816e+02 4.740447857856494292e-05
6.951475737868934175e+02 4.745378468579742627e-05
6.960480240120059534e+02 4.768734866472480386e-05
6.969484742371184893e+02 4.803722842282760346e-05
6.978489244622311389e+02 4.836093488327606346e-05
6.987493746873436749e+02 4.856383001376513193e-05
6.996498249124562108e+02 4.865965850980523389e-05
7.005502751375687467e+02 4.865739097489204753e-05
7.014507253626812826e+02 4.845480288099700446e-05
7.023511755877938185e+02 4.801467547779207266e-05
7.032516258129064681e+02 4.754330871277301877e-05
7.041520760380190040e+02 4.722909133877924360e-05
7.050525262631315400e+02 4.700313268989381215e-05
7.059529764882440759e+02 4.681212356115788576e-05
7.068534267133566118e+02 4.667512355659721418e-05
7.077538769384691477e+02 4.645669700298143777e-05
7.086543271635817973e+02 4.598853152600657936e-05
7.095547773886943332e+02 4.527758264281576251e-05
7.104552276138068692e+02 4.444565157803910820e-05
7.113556778389194051e+02 4.364266535019030083e-05
7.122561280640319410e+02 4.306251891278739568e-05
7.131565782891445906e+02 4.282891923911667374e-05
7.140570285142571265e+02 4.284043454855698536e-05
7.149574787393696624e+02 4.286392751670867348e-05
7.158579289644821984e+02 4.282591854968229738e-05
7.167583791895947343e+02 4.277143404687774571e-05
7.176588294147072702e+02 4.264137716880056630e-05
7.185592796398199198e+02 4.232042479772078416e-05
7.194597298649324557e+02 4.172746089233269663e-05
7.203601800900449916e+02 4.082224755199003884e-05
7.212606303151575275e+02 3.977067153317700044e-05
7.221610805402700635e+02 3.886650003870585287e-05
7.230615307653827131e+02 3.824904735419466139e-05
7.239619809904952490e+02 3.784204857002906950e-05
7.248624312156077849e+02 3.755005217631986251e-05
7.257628814407203208e+02 3.736251831169311115e-05
7.266633316658328567e+02 3.730388719022857512e-05
7.275637818909453927e+02 3.732752585805288625e-05
7.284642321160580423e+02 3.725541787912445973e-05
7.293646823411705782e+02 3.703013427852168144e-05
7.302651325662831141e+02 3.681084427112926672e-05
7.311655827913956500e+02 3.672431472684303274e-05
7.320660330165081859e+02 3.670007764284897555e-05
7.329664832416207219e+02 3.658716803787534939e-05
7.338669334667333715e+02 3.637168848584348545e-05
7.347673836918459074e+02 3.615140080571121827e-05
7.356678339169584433e+02 3.602759120954246891e-05
7.365682841420709792e+02 3.606467757574834273e-05
7.374687343671835151e+02 3.617812051784219119e-05
7.383691845922961647e+02 3.614082722566717358e-05
7.392696348174087007e+02 3.585895911818204622e-05
7.401700850425212366e+02 3.550588094683144005e-05
7.410705352676337725e+02 3.529181778940172640e-05
7.419709854927463084e+02 3.513939227781990421e-05
7.428714357178588443e+02 3.481324205475004358e-05
7.437718859429714939e+02 3.429662314101917045e-05
7.446723361680840299e+02 3.375862476230723458e-05
7.455727863931965658e+02 3.330907416450046434e-05
7.464732366183091017e+02 3.296908086402060750e-05
7.473736868434216376e+02 3.266131551875961568e-05
7.482741370685342872e+02 3.226447747145928341e-05
7.491745872936468231e+02 3.174851549649525050e-05
7.500750375187593590e+02 3.122317941585135270e-05
7.509754877438718950e+02 3.083773238189180965e-05
7.518759379689844309e+02 3.061858678382038977e-05
7.527763881940969668e+02 3.054390540251701347e-05
7.536768384192096164e+02 3.066920904496943894e-05
7.545772886443221523e+02 3.103207102611504686e-05
7.554777388694346882e+02 3.149655991372732588e-05
7.563781890945472242e+02 3.184562508187942296e-05
7.572786393196597601e+02 3.193476148365843994e-05
7.581790895447722960e+02 3.172977203032676015e-05
7.590795397698849456e+02 3.136819315594697484e-05
7.599799899949974815e+02 3.110303616803103708e-05
7.608804402201100174e+02 3.106342066413519596e-05
7.617808904452225534e+02 3.121097904915275855e-05
7.626813406703350893e+02 3.147749015108059531e-05
7.635817908954477389e+02 3.176851841875898272e-05
7.644822411205602748e+02 3.197065258569327509e-05
7.653826913456728107e+02 3.203617022301273777e-05
7.662831415707853466e+02 3.194523394302369864e-05
7.671835917958978825e+02 3.172866982879689898e-05
7.680840420210104185e+02 3.145758349624201298e-05
7.689844922461230681e+02 3.107969081591507697e-05
7.698849424712356040e+02 3.047578806213074862e-05
7.707853926963481399e+02 2.972930527993170098e-05
7.716858429214606758e+02 2.910008567202252173e-05
7.725862931465732117e+02 2.876205760679415187e-05
7.734867433716858613e+02 2.871040945326028634e-05
7.743871935967983973e+02 2.884100322220528915e-05
7.752876438219109332e+02 2.907499039004347773e-05
7.761880940470234691e+02 2.937234832151674032e-05
7.770885442721360050e+02 2.967448993377147086e-05
7.779889944972485409e+02 2.994335103785569603e-05
7.788894447223611905e+02 3.016088308036964853e-05
7.797898949474737265e+02 3.023882030392473946e-05
7.806903451725862624e+02 3.010517256893031725e-05
7.815907953976987983e+02 2.988609705097758712e-05
7.824912456228113342e+02 2.976949410854873968e-05
7.833916958479238701e+02 2.979855248530122010e-05
7.842921460730365197e+02 2.988083899592705931e-05
7.851925962981490557e+02 2.986181624163625309e-05
7.860930465232615916e+02 2.963340413098491832e-05
7.869934967483741275e+02 2.915019024732184701e-05
7.878939469734866634e+02 2.845888627620771804e-05
7.887943971985993130e+02 2.771860456994829064e-05
7.896948474237118489e+02 2.703868850986271039e-05
7.905952976488243849e+02 2.646150259037730501e-05
7.914957478739369208e+02 2.603341686891271384e-05
7.923961980990494567e+02 2.578435543465397456e-05
7.932966483241619926e+02 2.572729245219550651e-05
7.941970985492746422e+02 2.584869154424813934e-05
7.950975487743871781e+02 2.604927976301374751e-05
7.959979989994997140e+02 2.624019048170147671e-05
7.968984492246122500e+02 2.643017547476052842e-05
7.977988994497247859e+02 2.664284185751064377e-05
7.986993496748374355e+02 2.687221203719166441e-05
7.995997998999499714e+02 2.714123676043570592e-05
8.005002501250625073e+02 2.744129244471489525e-05
8.014007003501750432e+02 2.769074546591979554e-05
8.023011505752875792e+02 2.782400208124603019e-05
8.032016008004001151e+02 2.789132483780371090e-05
8.041020510255127647e+02 2.794256604337996510e-05
8.050025012506253006e+02 2.791377785982203757e-05
8.059029514757378365e+02 2.775570574686124484e-05
8.068034017008503724e+02 2.755303024649895165e-05
8.077038519259629084e+02 2.745901665674876048e-05
8.086043021510754443e+02 2.754396479152769551e-05
8.095047523761880939e+02 2.777986116111068584e-05
8.104052026013006298e+02 2.804527883885748736e-05
8.113056528264131657e+02 2.814697005215071875e-05
8.122061030515257016e+02 2.800299703479949265e-05
8.131065532766382375e+02 2.772811309933418826e-05
8.140070035017508872e+02 2.745544429071490947e-05
8.149074537268634231e+02 2.721950670806589514e-05
8.158079039519759590e+02 2.699556090403431075e-05
8.167083541770884949e+02 2.675256087759082894e-05
8.176088044022010308e+02 2.647471786541332739e-05
8.185092546273135667e+02 2.620730552241541303e-05
8.194097048524262163e+02 2.602832323558054961e-05
8.203101550775387523e+02 2.595976217677866728e-05
8.212106053026512882e+02 2.593896385890110090e-05
8.221110555277638241e+02 2.586735378907753386e-05
8.230115057528763600e+02 2.571715173259671677e-05
8.239119559779890096e+02 2.554527359537423108e-05
8.248124062031015455e+02 2.545484209321308630e-05
8.257128564282140815e+02 2.549742046917881252e-05
8.266133066533266174e+02 2.555175963745303123e-05
8.275137568784391533e+02 2.553523283446238194e-05
8.284142071035516892e+02 2.553254411380395894e-05
8.293146573286643388e+02 2.555773420974187212e-05
8.302151075537768747e+02 2.555244921883884971e-05
8.311155577788894107e+02 2.550674059972593061e-05
8.320160080040019466e+02 2.538355243368914016e-05
8.329164582291144825e+02 2.518080452048896485e-05
8.338169084542270184e+02 2.499347555655821623e-05
8.347173586793396680e+02 2.492288491829883109e-05
8.356178089044522039e+02 2.501781125891344156e-05
8.365182591295647399e+02 2.515686659796471497e-05
8.374187093546772758e+02 2.512295855689212969e-05
8.383191595797898117e+02 2.491092754789345616e-05
8.392196098049024613e+02 2.471413315957940267e-05
8.401200600300149972e+02 2.465323075832536367e-05
8.410205102551275331e+02 2.471075786337276474e-05
8.419209604802400690e+02 2.485884866574687442e-05
8.428214107053526050e+02 2.512797093183758633e-05
8.437218609304651409e+02 2.550876523126298617e-05
8.446223111555777905e+02 2.588756404402431464e-05
8.455227613806903264e+02 2.619243757218342548e-05
8.464232116058028623e+02 2.647183649537985478e-05
8.473236618309153982e+02 2.673502458202525880e-05
8.482241120560279342e+02 2.692703322813882246e-05
8.491245622811405838e+02 2.702356598347742999e-05
8.500250125062531197e+02 2.702573543061824538e-05
8.509254627313656556e+02 2.694918008477696088e-05
8.518259129564781915e+02 2.681919844905455104e-05
8.527263631815907274e+02 2.666226480499931539e-05
8.536268134067032634e+02 2.648917548478247719e-05
8.545272636318159130e+02 2.628719639411459838e-05
8.554277138569284489e+02 2.603663194370617499e-05
8.563281640820409848e+02 2.576842759878378162e-05
8.572286143071535207e+02 2.554908502210329226e-05
8.581290645322660566e+02 2.537412834337269437e-05
8.590295147573785925e+02 2.518676878950668765e-05
8.599299649824912422e+02 2.503606069519430187e-05
8.608304152076037781e+02 2.502575221333910407e-05
8.617308654327163140e+02 2.512960930118964442e-05
8.626313156578288499e+02 2.520981816686188192e-05
8.635317658829413858e+02 2.520620454939397922e-05
8.644322161080540354e+02 2.518681474135255882e-05
8.653326663331665713e+02 2.526743641251955313e-05
8.662331165582791073e+02 2.553275662443265842e-05
8.671335667833916432e+02 2.594355151803864819e-05
8.680340170085041791e+02 2.635912981058251991e-05
8.689344672336167150e+02 2.663963947641581390e-05
8.698349174587293646e+02 2.675245388780895394e-05
8.707353676838419005e+02 2.677781676479501656e-05
8.716358179089544365e+02 2.682369289988962950e-05
8.725362681340669724e+02 2.693416592084062813e-05
8.734367183591795083e+02 2.704591129901047538e-05
8.743371685842921579e+02 2.711346621984422425e-05
8.752376188094046938e+02 2.714740805785045857e-05
8.761380690345172297e+02 2.712581620410651470e-05
8.770385192596297657e+02 2.708484168302163658e-05
8.779389694847423016e+02 2.710760107101185809e-05
8.788394197098548375e+02 2.720868552948505720e-05
8.797398699349674871e+02 2.734405107959039780e-05
8.806403201600800230e+02 2.751888914578228318e-05
8.815407703851925589e+02 2.776078888802975263e-05
8.824412206103050949e+02 2.803185520382912613e-05
8.833416708354176308e+02 2.833499360491923135e-05
8.842421210605301667e+02 2.872465780187832081e-05
8.851425712856428163e+02 2.921083432004495956e-05
8.860430215107553522e+02 2.975091827615971299e-05
8.869434717358678881e+02 3.032415738886541539e-05
8.878439219609804240e+02 3.094649483071452159e-05
8.887443721860929600e+02 3.155826863473248554e-05
8.896448224112056096e+02 3.205722126979817382e-05
8.905452726363181455e+02 3.242729815802113330e-05
8.914457228614306814e+02 3.275219415684090804e-05
8.923461730865432173e+02 3.309117573607335658e-05
8.932466233116557532e+02 3.343202734734392718e-05
8.941470735367682892e+02 3.378355732642209853e-05
8.950475237618809388e+02 3.417402034025264344e-05
8.959479739869934747e+02 3.459552387127694852e-05
8.968484242121060106e+02 3.509965691114972118e-05
8.977488744372185465e+02 3.574665571023921814e-05
8.986493246623310824e+02 3.654046349977285664e-05
8.995497748874437320e+02 3.745825386455742695e-05
9.004502251125562680e+02 3.839113321565736938e-05
9.013506753376688039e+02 3.914670517351880849e-05
9.022511255627813398e+02 3.960099866650988758e-05
9.031515757878938757e+02 3.989937777098420484e-05
9.040520260130064116e+02 4.026536644595820778e-05
9.049524762381190612e+02 4.079673032796112556e-05
9.058529264632315972e+02 4.139578300319853309e-05
9.067533766883441331e+02 4.183861451591010364e-05
9.076538269134566690e+02 4.205262680197372415e-05
9.085542771385692049e+02 4.216670123679727619e-05
9.094547273636817408e+02 4.230948360688029466e-05
9.103551775887943904e+02 4.249935348503385398e-05
9.112556278139069263e+02 4.275316248289493193e-05
9.121560780390194623e+02 4.312286244269999735e-05
9.130565282641319982e+02 4.373843648391947020e-05
9.139569784892445341e+02 4.468880204794938683e-05
9.148574287143571837e+02 4.575735321993433562e-05
9.157578789394697196e+02 4.656943582180703633e-05
9.166583291645822555e+02 4.700303185612246651e-05
9.175587793896947915e+02 4.727825123200226693e-05
9.184592296148073274e+02 4.776004556230133114e-05
9.193596798399198633e+02 4.846922844308645495e-05
9.202601300650325129e+02 4.898747373984920595e-05
9.211605802901450488e+02 4.907973327272459937e-05
9.220610305152575847e+02 4.889209319829090748e-05
9.229614807403701207e+02 4.859779083332666340e-05
9.238619309654826566e+02 4.826758134990446531e-05
9.247623811905953062e+02 4.803236160085024562e-05
9.256628314157078421e+02 4.813669892821623457e-05
9.265632816408203780e+02 4.866812744790441190e-05
9.274637318659329139e+02 4.939667278505826815e-05
9.283641820910454499e+02 5.005801367902757023e-05
9.292646323161579858e+02 5.052145411856416341e-05
9.301650825412706354e+02 5.077595275185002376e-05
9.310655327663831713e+02 5.098026439154918453e-05
9.319659829914957072e+02 5.134257611384353173e-05
9.328664332166082431e+02 5.193291506019716768e-05
9.337668834417207790e+02 5.272143070621439247e-05
9.346673336668334287e+02 5.374129077555578663e-05
9.355677838919459646e+02 5.507984616797681129e-05
9.364682341170585005e+02 5.668758713279130020e-05
9.373686843421710364e+02 5.837276327862567059e-05
9.382691345672835723e+02 6.000575450806249281e-05
9.391695847923961082e+02 6.160329509469264552e-05
9.400700350175087578e+02 6.328406510468821417e-05
9.409704852426212938e+02 6.504457169386296765e-05
9.418709354677338297e+02 6.674822337009200020e-05
9.427713856928463656e+02 6.825982842299373556e-05
9.436718359179589015e+02 6.936538777154220927e-05
9.445722861430714374e+02 6.993325948607215182e-05
9.454727363681840870e+02 7.026887483690533642e-05
9.463731865932966230e+02 7.079104977630488408e-05
9.472736368184091589e+02 7.157987322272447593e-05
9.481740870435216948e+02 7.249749086408892567e-05
9.490745372686342307e+02 7.349136189778503279e-05
9.499749874937468803e+02 7.462047727971261911e-05
9.508754377188594162e+02 7.578742600228094786e-05
9.517758879439719522e+02 7.664856317093180654e-05
9.526763381690844881e+02 7.709290689485574798e-05
9.535767883941970240e+02 7.745461782229883495e-05
9.544772386193095599e+02 7.810766037935088304e-05
9.553776888444222095e+02 7.907621331368788027e-05
9.562781390695347454e+02 8.005460206156179525e-05
9.571785892946472813e+02 8.094041153893031517e-05
9.580790395197598173e+02 8.193103934079490271e-05
9.589794897448723532e+02 8.306349945205310757e-05
9.598799399699850028e+02 8.427320360112803372e-05
9.607803901950975387e+02 8.555865779870127470e-05
9.616808404202100746e+02 8.704608718614443251e-05
9.625812906453226105e+02 8.889744401400636134e-05
9.634817408704351465e+02 9.103395790414922444e-05
9.643821910955476824e+02 9.300159091856672288e-05
9.652826413206603320e+02 9.445478083856344547e-05
9.661830915457728679e+02 9.578990325841748449e-05
9.670835417708854038e+02 9.773611163319064789e-05
9.679839919959979397e+02 1.005818891665218831e-04
9.688844422211104757e+02 1.038828963508063965e-04
9.697848924462230116e+02 1.067280304098236244e-04
9.706853426713356612e+02 1.086516714279926998e-04
9.715857928964481971e+02 1.100962493343651501e-04
9.724862431215607330e+02 1.115941263542321742e-04
9.733866933466732689e+02 1.130607550195786553e-04
9.742871435717858049e+02 1.140512621829424669e-04
9.751875937968984545e+02 1.144412965487623911e-04
9.760880440220109904e+02 1.144976199133145001e-04
9.769884942471235263e+02 1.145015487036543108e-04
9.778889444722360622e+02 1.146039523379019116e-04
9.787893946973485981e+02 1.150102595711545537e-04
9.796898449224611340e+02 1.161139992903353121e-04
9.805902951475737837e+02 1.181298459553624760e-04
9.814907453726863196e+02 1.208766681399553623e-04
9.823911955977988555e+02 1.238950386912191523e-04
9.832916458229113914e+02 1.268512532621497322e-04
9.841920960480239273e+02 1.297032337707382016e-04
9.850925462731365769e+02 1.325542586182576737e-04
9.859929964982491128e+02 1.356420378871345646e-04
9.868934467233616488e+02 1.390650692440546473e-04
9.877938969484741847e+02 1.427665160127832380e-04
9.886943471735867206e+02 1.466460849463015171e-04
9.895947973986992565e+02 1.505543347066644929e-04
9.904952476238119061e+02 1.542048535611647176e-04
9.913956978489244420e+02 1.569905797743740444e-04
9.922961480740369780e+02 1.584830130314467242e-04
9.931965982991495139e+02 1.590669798833134582e-04
9.940970485242620498e+02 1.595796556385408252e-04
9.949974987493745857e+02 1.604397628442481513e-04
9.958979489744872353e+02 1.615491482268137792e-04
9.967983991995997712e+02 1.628033885625079812e-04
9.976988494247123072e+02 1.645372440980760081e-04
9.985992996498248431e+02 1.675089769021676899e-04
9.994997498749373790e+02 1.720859641457316664e-04
1.000400200100050029e+03 1.775903938757106238e-04
1.001300650325162565e+03 1.828403201133109446e-04
1.002201100550275100e+03 1.873322753106644448e-04
1.003101550775387636e+03 1.916710543852604299e-04
1.004002001000500172e+03 1.967584739589699737e-04
1.004902451225612708e+03 2.024305555531533921e-04
1.005802901450725358e+03 2.073453108554203174e-04
1.006703351675837894e+03 2.105392076183589044e-04
1.007603801900950430e+03 2.122208338044812947e-04
1.008504252126062966e+03 2.135182688485693270e-04
1.009404702351175501e+03 2.155023908938036108e-04
1.010305152576288151e+03 2.179198255937482716e-04
1.011205602801400687e+03 2.201212087588680908e-04
1.012106053026513223e+03 2.224270661435505739e-04
1.013006503251625759e+03 2.258194009927782489e-04
1.013906953476738295e+03 2.307757513075340476e-04
1.014807403701850831e+03 2.367019307059869385e-04
1.015707853926963480e+03 2.424910701252253216e-04
1.016608304152076016e+03 2.474327350447886654e-04
1.017508754377188552e+03 2.516342575390927909e-04
1.018409204602301088e+03 2.564827839739052592e-04
1.019309654827413624e+03 2.635744945559898912e-04
1.020210105052526160e+03 2.723527817929970499e-04
1.021110555277638809e+03 2.806420459448778944e-04
1.022011005502751345e+03 2.871363534740451829e-04
1.022911455727863881e+03 2.915152507883215908e-04
1.023811905952976417e+03 2.944685596428979826e-04
1.024712356178089067e+03 2.976069840357466146e-04
1.025612806403201603e+03 3.021961992303486000e-04
1.026513256628314139e+03 3.083863819359575361e-04
1.027413706853426675e+03 3.156758229156817397e-04
1.028314157078539210e+03 3.235238835354209723e-04
1.029214607303651746e+03 3.319671642586998102e-04
1.030115057528764282e+03 3.412332111131172532e-04
1.031015507753876818e+03 3.506728804765233483e-04
1.031915957978989354e+03 3.587665851373372382e-04
1.032816408204101890e+03 3.648487157968728655e-04
1.033716858429214653e+03 3.696014584054446261e-04
1.034617308654327189e+03 3.739495725120485048e-04
1.035517758879439725e+03 3.789234339031590936e-04
1.036418209104552261e+03 3.854242869026481113e-04
1.037318659329664797e+03 3.935403820524179712e-04
1.038219109554777333e+03 4.019750579291094254e-04
1.039119559779889869e+03 4.086124607725950299e-04
1.040020010005002405e+03 4.128912478330068036e-04
1.040920460230114941e+03 4.166511021351925349e-04
1.041820910455227477e+03 4.216145583754847982e-04
1.042721360680340013e+03 4.282851308399998418e-04
1.043621810905452776e+03 4.369328832411988853e-04
1.044522261130565312e+03 4.475556867044298446e-04
1.045422711355677848e+03 4.592967271733263161e-04
1.046323161580790384e+03 4.705810292079394791e-04
1.047223611805902920e+03 4.817718746076809621e-04
1.048124062031015455e+03 4.953262566911626093e-04
1.049024512256127991e+03 5.120542094167465988e-04
1.049924962481240527e+03 5.302362156805549148e-04
1.050825412706353063e+03 5.477507414234929727e-04
1.051725862931465599e+03 5.631059849601762965e-04
1.052626313156578135e+03 5.759790469920217197e-04
1.053526763381690898e+03 5.872601878040161925e-04
1.054427213606803434e+03 5.980214278930593222e-04
1.055327663831915970e+03 6.084267393793489978e-04
1.056228114057028506e+03 6.173947451693194291e-04
1.057128564282141042e+03 6.230412500381533360e-04
1.058029014507253578e+03 6.244869290260931941e-04
1.058929464732366114e+03 6.236809166385406163e-04
1.059829914957478650e+03 6.232776730919037085e-04
1.060730365182591186e+03 6.246728045462339408e-04
1.061630815407703722e+03 6.287595547139427504e-04
1.062531265632816257e+03 6.346835119314078906e-04
1.063431715857929021e+03 6.399120740952293773e-04
1.064332166083041557e+03 6.432310724810244053e-04
1.065232616308154093e+03 6.443984259027974240e-04
1.066133066533266629e+03 6.420071052700594824e-04
1.067033516758379164e+03 6.357275758595662971e-04
1.067933966983491700e+03 6.280668390253145439e-04
1.068834417208604236e+03 6.217678136994784143e-04
1.069734867433716772e+03 6.177100628640478904e-04
1.070635317658829308e+03 6.164474694480226663e-04
1.071535767883941844e+03 6.179582832750696829e-04
1.072436218109054380e+03 6.205951772170704896e-04
1.073336668334167143e+03 6.224418344118056541e-04
1.074237118559279679e+03 6.232829076865893702e-04
1.075137568784392215e+03 6.247921293459187319e-04
1.076038019009504751e+03 6.283358920431011095e-04
1.076938469234617287e+03 6.330555530615599715e-04
1.077838919459729823e+03 6.377705714766091589e-04
1.078739369684842359e+03 6.418434294669685125e-04
1.079639819909954895e+03 6.450272028794675145e-04
1.080540270135067431e+03 6.478552300678529219e-04
1.081440720360179967e+03 6.493419117547734624e-04
1.082341170585292502e+03 6.467865398607129885e-04
1.083241620810405038e+03 6.395327369844229807e-04
1.084142071035517802e+03 6.304913725137763951e-04
1.085042521260630338e+03 6.215262856555923456e-04
1.085942971485742873e+03 6.126234295329103987e-04
1.086843421710855409e+03 6.040978934994277114e-04
1.087743871935967945e+03 5.963228393704024348e-04
1.088644322161080481e+03 5.882405878702036536e-04
1.089544772386193017e+03 5.789457080323692599e-04
1.090445222611305553e+03 5.696975518844964127e-04
1.091345672836418089e+03 5.612580787883080435e-04
1.092246123061530625e+03 5.529373280751480844e-04
1.093146573286643161e+03 5.457827195596069670e-04
1.094047023511755924e+03 5.423419945386860012e-04
1.094947473736868460e+03 5.424070757187097981e-04
1.095847923961980996e+03 5.435061964984774525e-04
1.096748374187093532e+03 5.443376843209626241e-04
1.097648824412206068e+03 5.438828775781904363e-04
1.098549274637318604e+03 5.397314215903417384e-04
1.099449724862431140e+03 5.302383553275943212e-04
1.100350175087543676e+03 5.176182085347277514e-04
1.101250625312656211e+03 5.062596488351668068e-04
1.102151075537768747e+03 4.980425075524885087e-04
1.103051525762881283e+03 4.913963950132179456e-04
1.103951975987994047e+03 4.839332036182949983e-04
1.104852426213106583e+03 4.748303982241538265e-04
1.105752876438219118e+03 4.646194697375296266e-04
1.106653326663331654e+03 4.529840283820534604e-04
1.107553776888444190e+03 4.385861215564333540e-04
1.108454227113556726e+03 4.217218341075333241e-04
1.109354677338669262e+03 4.044196216459862523e-04
1.110255127563781798e+03 3.880553707211922940e-04
1.111155577788894334e+03 3.738013173568206673e-04
1.112056028014006870e+03 3.619406036054088676e-04
1.112956478239119406e+03 3.509568797818284221e-04
1.113856928464232169e+03 3.403380830871744357e-04
1.114757378689344705e+03 3.318391778467075811e-04
1.115657828914457241e+03 3.263895068559072971e-04
1.116558279139569777e+03 3.218855244779934778e-04
1.117458729364682313e+03 3.153127112550441658e-04
1.118359179589794849e+03 3.059725126097867075e-04
1.119259629814907385e+03 2.960635846796488813e-04
1.120160080040019920e+03 2.878861577182694896e-04
1.121060530265132456e+03 2.804531650807119106e-04
1.121960980490244992e+03 2.714619320379743823e-04
1.122861430715357528e+03 2.607492358103175143e-04
1.123761880940470292e+03 2.494888759602242444e-04
1.124662331165582827e+03 2.383204386130577477e-04
1.125562781390695363e+03 2.265921676606823634e-04
1.126463231615807899e+03 2.134481338111929815e-04
1.127363681840920435e+03 2.002058919782928614e-04
1.128264132066032971e+03 1.888999595250004111e-04
1.129164582291145507e+03 1.802746921274528597e-04
1.130065032516258043e+03 1.737866596562641212e-04
1.130965482741370579e+03 1.681627360773331394e-04
1.131865932966483115e+03 1.624196445749293385e-04
1.132766383191595651e+03 1.560134996366521320e-04
1.133666833416708187e+03 1.484783962524563949e-04
1.134567283641820950e+03 1.399251864892033653e-04
1.135467733866933486e+03 1.314143935382244680e-04
1.136368184092046022e+03 1.237181044178604092e-04
1.137268634317158558e+03 1.169436170310109700e-04
1.138169084542271094e+03 1.112615509794659407e-04
1.139069534767383630e+03 1.069104913876657781e-04
1.139969984992496165e+03 1.039474855934373267e-04
1.140870435217608701e+03 1.021557292476423618e-04
1.141770885442721237e+03 1.009505361616656031e-04
1.142671335667833773e+03 9.953593568924562300e-05
1.143571785892946309e+03 9.765749825876591508e-05
1.144472236118059072e+03 9.567223458340581605e-05
1.145372686343171608e+03 9.386093797645701580e-05
1.146273136568284144e+03 9.207458840784068035e-05
1.147173586793396680e+03 9.011341513144557251e-05
1.148074037018509216e+03 8.809377365849036521e-05
1.148974487243621752e+03 8.612521749561909601e-05
1.149874937468734288e+03 8.419237650850140155e-05
1.150775387693846824e+03 8.241958617836295437e-05
1.151675837918959360e+03 8.103736535241379919e-05
1.152576288144071896e+03 8.002958938034712797e-05
1.153476738369184432e+03 7.919850347487535308e-05
1.154377188594297195e+03 7.855046233899210840e-05
1.155277638819409731e+03 7.837745049250568379e-05
1.156178089044522267e+03 7.901248116458850089e-05
1.157078539269634803e+03 8.056937018390584809e-05
1.157978989494747339e+03 8.283862214423955009e-05
1.158879439719859874e+03 8.518266476085851384e-05
1.159779889944972410e+03 8.659793251536216762e-05
1.160680340170084946e+03 8.636937347167016076e-05
1.161580790395197482e+03 8.501929405791116613e-05
1.162481240620310018e+03 8.376986168834969228e-05
1.163381690845422554e+03 8.330727754917153268e-05
1.164282141070535317e+03 8.367998755178790026e-05
1.165182591295647853e+03 8.488517943935706132e-05
1.166083041520760389e+03 8.702838359701260110e-05
1.166983491745872925e+03 8.976829387606680393e-05
1.167883941970985461e+03 9.238701699005890430e-05
1.168784392196097997e+03 9.442361125152486003e-05
1.169684842421210533e+03 9.586333681773300626e-05
1.170585292646323069e+03 9.710685029039737887e-05
1.171485742871435605e+03 9.877532085171359451e-05
1.172386193096548141e+03 1.012767132342077213e-04
1.173286643321660677e+03 1.046426172667724776e-04
1.174187093546773440e+03 1.087193471572992729e-04
1.175087543771885976e+03 1.133286812154107913e-04
1.175987993996998512e+03 1.178404459522674878e-04
1.176888444222111048e+03 1.213250154353705869e-04
1.177788894447223583e+03 1.235231365281233909e-04
1.178689344672336119e+03 1.251184489763594717e-04
1.179589794897448655e+03 1.270856724376546922e-04
1.180490245122561191e+03 1.300211674955863779e-04
1.181390695347673727e+03 1.338297523666268400e-04
1.182291145572786263e+03 1.384014562434591827e-04
1.183191595797898799e+03 1.437048844831713878e-04
1.184092046023011562e+03 1.492359488015808171e-04
1.184992496248124098e+03 1.542433961864633362e-04
1.185892946473236634e+03 1.581126888769715457e-04
1.186793396698349170e+03 1.607702873644869634e-04
1.187693846923461706e+03 1.626228870404208956e-04
1.188594297148574242e+03 1.638842457608061470e-04
1.189494747373686778e+03 1.646187181048902777e-04
1.190395197598799314e+03 1.649361493039711447e-04
1.191295647823911850e+03 1.650269585657636047e-04
1.192196098049024386e+03 1.652860472088442856e-04
1.193096548274136921e+03 1.663300960893491934e-04
1.193996998499249457e+03 1.687409650207700952e-04
1.194897448724362221e+03 1.727549265715670106e-04
1.195797898949474757e+03 1.782840343380401045e-04
1.196698349174587293e+03 1.846441105419499725e-04
1.197598799399699828e+03 1.909240364307017207e-04
1.198499249624812364e+03 1.968067748250000039e-04
1.199399699849924900e+03 2.024561436734474619e-04
1.200300150075037436e+03 2.077970032299767138e-04
1.201200600300149972e+03 2.124208157950201355e-04
1.202101050525262508e+03 2.161187065939901666e-04
1.203001500750375044e+03 2.192089818261604996e-04
1.203901950975487580e+03 2.218316942295096243e-04
1.204802401200600343e+03 2.238748657277955681e-04
1.205702851425712879e+03 2.257830250325420552e-04
1.206603301650825415e+03 2.281464764644265957e-04
1.207503751875937951e+03 2.304616686680517298e-04
1.208404202101050487e+03 2.317688706902182284e-04
1.209304652326163023e+03 2.323217986920257249e-04
1.210205102551275559e+03 2.330868593579789533e-04
1.211105552776388095e+03 2.341389121301862416e-04
1.212006003001500630e+03 2.348794640724751219e-04
1.212906453226613166e+03 2.356778416459304128e-04
1.213806903451725702e+03 2.379878137790995233e-04
1.214707353676838466e+03 2.419453118788764861e-04
1.215607803901951002e+03 2.460112763735087409e-04
1.216508254127063537e+03 2.499195682665083162e-04
1.217408704352176073e+03 2.548124449099694201e-04
1.218309154577288609e+03 2.609493165070471995e-04
1.219209604802401145e+03 2.672735614890849368e-04
1.220110055027513681e+03 2.727171017240361071e-04
1.221010505252626217e+03 2.770582289979708164e-04
1.221910955477738753e+03 2.816859807005888772e-04
1.222811405702851289e+03 2.891780972536568033e-04
1.223711855927963825e+03 3.006627216421333543e-04
1.224612306153076588e+03 3.149510610594189689e-04
1.225512756378189124e+03 3.305918862585479202e-04
1.226413206603301660e+03 3.477466981001483409e-04
1.227313656828414196e+03 3.667859205228585196e-04
1.228214107053526732e+03 3.863596217165604684e-04
1.229114557278639268e+03 4.045048455687695458e-04
1.230015007503751804e+03 4.204336658566655452e-04
1.230915457728864340e+03 4.346860644740860010e-04
1.231815907953976875e+03 4.486927374722344229e-04
1.232716358179089411e+03 4.642018639448062894e-04
1.233616808404201947e+03 4.823374501278378354e-04
1.234517258629314711e+03 5.030693565789296634e-04
1.235417708854427246e+03 5.254038255218757090e-04
1.236318159079539782e+03 5.481205705717695498e-04
1.237218609304652318e+03 5.698778776222703131e-04
1.238119059529764854e+03 5.892906552376175455e-04
1.239019509754877390e+03 6.067690803832552320e-04
1.239919959979989926e+03 6.241531352098803054e-04
1.240820410205102462e+03 6.416316365303794409e-04
1.241720860430214998e+03 6.577268115814886157e-04
1.242621310655327534e+03 6.717143638181251623e-04
1.243521760880440070e+03 6.831948591051902313e-04
1.244422211105552606e+03 6.909498767537628535e-04
1.245322661330665369e+03 6.932858613355709831e-04
1.246223111555777905e+03 6.898430496920844200e-04
1.247123561780890441e+03 6.834555420804303699e-04
1.248024012006002977e+03 6.782601790022292458e-04
1.248924462231115513e+03 6.750240644820469605e-04
1.249824912456228049e+03 6.715057604023034902e-04
1.250725362681340584e+03 6.666516730781218677e-04
1.251625812906453120e+03 6.614248804159578859e-04
1.252526263131565656e+03 6.574651166358915725e-04
1.253426713356678192e+03 6.559376920770120098e-04
1.254327163581790728e+03 6.568282185740626378e-04
1.255227613806903491e+03 6.601900088461386176e-04
1.256128064032016027e+03 6.670028483947785646e-04
1.257028514257128563e+03 6.773687356118952060e-04
1.257928964482241099e+03 6.898898588454020851e-04
1.258829414707353635e+03 7.029874367985437019e-04
1.259729864932466171e+03 7.158671453473555929e-04
1.260630315157578707e+03 7.283655389359738885e-04
1.261530765382691243e+03 7.401021886551722908e-04
1.262431215607803779e+03 7.503608227683144626e-04
1.263331665832916315e+03 7.589963779949811902e-04
1.264232116058028851e+03 7.669528545750209890e-04
1.265132566283141614e+03 7.754426581211487169e-04
1.266033016508254150e+03 7.843212033570528098e-04
1.266933466733366686e+03 7.932955788057481899e-04
1.267833916958479222e+03 8.039523835965717465e-04
1.268734367183591758e+03 8.178325732484729950e-04
1.269634817408704293e+03 8.349180576170083098e-04
1.270535267633816829e+03 8.538005271210326319e-04
1.271435717858929365e+03 8.727607482035465219e-04
1.272336168084041901e+03 8.906070871391855897e-04
1.273236618309154437e+03 9.075103331884440015e-04
1.274137068534266973e+03 9.260286956677252126e-04
1.275037518759379736e+03 9.489118319449779508e-04
1.275937968984492272e+03 9.763009482430901010e-04
1.276838419209604808e+03 1.006484966254442325e-03
1.277738869434717344e+03 1.037565109372704745e-03
1.278639319659829880e+03 1.068225407434287818e-03
1.279539769884942416e+03 1.096510998063078123e-03
1.280440220110054952e+03 1.120086152723475748e-03
1.281340670335167488e+03 1.139354877888234955e-03
1.282241120560280024e+03 1.157701266097634941e-03
1.283141570785392560e+03 1.178074734718893455e-03
1.284042021010505096e+03 1.201015102290767808e-03
1.284942471235617859e+03 1.225224196658820106e-03
1.285842921460730395e+03 1.247934486433611512e-03
1.286743371685842931e+03 1.266455981710197824e-03
1.287643821910955467e+03 1.280822361316633117e-03
1.288544272136068003e+03 1.292432431437672740e-03
1.289444722361180538e+03 1.301794557717943007e-03
1.290345172586293074e+03 1.309605358773297456e-03
1.291245622811405610e+03 1.316946366495910055e-03
1.292146073036518146e+03 1.324291403227076088e-03
1.293046523261630682e+03 1.332172978083164330e-03
1.293946973486743218e+03 1.341009866208154894e-03
1.294847423711855754e+03 1.349833384298972138e-03
1.295747873936968517e+03 1.356472453244600982e-03
1.296648324162081053e+03 1.359165278084661487e-03
1.297548774387193589e+03 1.359863262796624957e-03
1.298449224612306125e+03 1.364314154697784899e-03
1.299349674837418661e+03 1.375917093719075841e-03
1.300250125062531197e+03 1.393163253667535758e-03
1.301150575287643733e+03 1.411751970681659335e-03
1.302051025512756269e+03 1.427542365457681222e-03
1.302951475737868805e+03 1.440052484160476943e-03
1.303851925962981340e+03 1.453437548101961952e-03
1.304752376188093876e+03 1.471933690257501903e-03
1.305652826413206640e+03 1.495766672042795915e-03
1.306553276638319176e+03 1.524153991160398644e-03
1.307453726863431712e+03 1.557840541830066063e-03
1.308354177088544247e+03 1.595034051801164218e-03
1.309254627313656783e+03 1.631204024978999152e-03
1.310155077538769319e+03 1.663740346566772816e-03
1.311055527763881855e+03 1.693645645790949061e-03
1.311955977988994391e+03 1.722773241598952792e-03
1.312856428214106927e+03 1.750423634514430013e-03
1.313756878439219463e+03 1.776366077144152754e-03
1.314657328664331999e+03 1.802302412002056587e-03
1.315557778889444762e+03 1.829702854893632555e-03
1.316458229114557298e+03 1.861046862272804471e-03
1.317358679339669834e+03 1.898814233563336611e-03
1.318259129564782370e+03 1.941186397972705915e-03
1.319159579789894906e+03 1.983762578247095197e-03
1.320060030015007442e+03 2.026076213172849950e-03
1.320960480240119978e+03 2.072997175685717310e-03
1.321860930465232514e+03 2.129984397518419354e-03
1.322761380690345050e+03 2.198434900446061008e-03
1.323661830915457585e+03 2.274316126000380453e-03
1.324562281140570121e+03 2.349889953219833332e-03
1.325462731365682885e+03 2.419872665659928649e-03
1.326363181590795421e+03 2.484090018361105167e-03
1.327263631815907956e+03 2.543274196417954266e-03
1.328164082041020492e+03 2.596911974603555769e-03
1.329064532266133028e+03 2.647241538930786113e-03
1.329964982491245564e+03 2.699324997848455681e-03
1.330865432716358100e+03 2.754546592259104684e-03
1.331765882941470636e+03 2.812739545797764053e-03
1.332666333166583172e+03 2.878285150525477891e-03
1.333566783391695708e+03 2.957454249685135834e-03
1.334467233616808244e+03 3.054088040628700866e-03
1.335367683841921007e+03 3.169597941307835190e-03
1.336268134067033543e+03 3.301372789253296299e-03
1.337168584292146079e+03 3.440459929864651302e-03
1.338069034517258615e+03 3.571446159762681639e-03
1.338969484742371151e+03 3.684327637548806978e-03
1.339869934967483687e+03 3.790400443041489972e-03
1.340770385192596223e+03 3.905012105538247652e-03
1.341670835417708759e+03 4.029633521347528863e-03
1.342571285642821294e+03 4.161917606075477352e-03
1.343471735867933830e+03 4.294801776670909010e-03
1.344372186093046366e+03 4.418680032335476661e-03
1.345272636318158902e+03 4.538074095101420243e-03
1.346173086543271666e+03 4.663916478581777228e-03
1.347073536768384201e+03 4.799911847778666300e-03
1.347973986993496737e+03 4.945202293940369545e-03
1.348874437218609273e+03 5.102018860917163778e-03
1.349774887443721809e+03 5.280722183319849598e-03
1.350675337668834345e+03 5.485087255212089778e-03
1.351575787893946881e+03 5.702491668688286670e-03
1.352476238119059417e+03 5.916801131177767611e-03
1.353376688344171953e+03 6.124681935329220200e-03
1.354277138569284489e+03 6.340136807631607113e-03
1.355177588794397025e+03 6.574038137723654460e-03
1.356078039019509788e+03 6.818235272402982730e-03
1.356978489244622324e+03 7.065413197961140090e-03
1.357878939469734860e+03 7.314314192062528787e-03
1.358779389694847396e+03 7.564659094152991446e-03
1.359679839919959932e+03 7.835070164481493932e-03
1.360580290145072468e+03 8.148270645816847041e-03
1.361480740370185003e+03 8.498985583295324067e-03
1.362381190595297539e+03 8.859303070309765618e-03
1.363281640820410075e+03 9.207437377823835326e-03
1.364182091045522611e+03 9.537499854355370801e-03
1.365082541270635147e+03 9.845683891188816358e-03
1.365982991495747910e+03 1.014404002159202157e-02
1.366883441720860446e+03 1.048321062474591968e-02
1.367783891945972982e+03 1.091729669111024016e-02
1.368684342171085518e+03 1.143319550216180536e-02
1.369584792396198054e+03 1.197047049192966582e-02
1.370485242621310590e+03 1.249248068714815633e-02
1.371385692846423126e+03 1.298300171521004492e-02
1.372286143071535662e+03 1.343358756265396019e-02
1.373186593296648198e+03 1.386920902446097184e-02
1.374087043521760734e+03 1.429749619069643242e-02
1.374987493746873270e+03 1.470032066754961043e-02
1.375887943971986033e+03 1.508180099627789809e-02
1.376788394197098569e+03 1.546405055448191873e-02
1.377688844422211105e+03 1.586272408631587971e-02
1.378589294647323641e+03 1.629521261651423539e-02
1.379489744872436177e+03 1.679348349209221214e-02
1.380390195097548713e+03 1.738236016905001652e-02
1.381290645322661248e+03 1.805786055432040405e-02
1.382191095547773784e+03 1.878934635850770460e-02
1.383091545772886320e+03 1.958639151607876813e-02
1.383991995997998856e+03 2.055144386447348148e-02
1.384892446223111392e+03 2.178513089985219947e-02
1.385792896448224155e+03 2.324735188736396646e-02
1.386693346673336691e+03 2.477565252778990076e-02
1.387593796898449227e+03 2.624907424703669043e-02
1.388494247123561763e+03 2.766530004963780806e-02
1.389394697348674299e+03 2.906962562559899793e-02
1.390295147573786835e+03 3.048075439413696838e-02
1.391195597798899371e+03 3.191517642991300446e-02
1.392096048024011907e+03 3.334834078779181504e-02
1.392996498249124443e+03 3.466961233862419361e-02
1.393896948474236979e+03 3.576921681254710550e-02
1.394797398699349515e+03 3.657818004222194302e-02
1.395697848924462278e+03 3.714817241943343257e-02
1.396598299149574814e+03 3.754744102884183254e-02
1.397498749374687350e+03 3.769371481227364040e-02
1.398399199599799886e+03 3.754076606080879869e-02
1.399299649824912422e+03 3.723320831868345143e-02
1.400200100050024957e+03 3.697154787994408331e-02
1.401100550275137493e+03 3.685677073077032323e-02
1.402001000500250029e+03 3.684201989050853165e-02
1.402901450725362565e+03 3.676062725472967890e-02
1.403801900950475101e+03 3.639577780365715887e-02
1.404702351175587637e+03 3.560580568548392388e-02
1.405602801400700173e+03 3.440607188499730101e-02
1.406503251625812936e+03 3.289471344581280932e-02
1.407403701850925472e+03 3.112319861735603904e-02
1.408304152076038008e+03 2.911222446327737037e-02
1.409204602301150544e+03 2.694000158957407867e-02
1.410105052526263080e+03 2.473721611562885309e-02
1.411005502751375616e+03 2.263114483441261426e-02
1.411905952976488152e+03 2.067696748295200573e-02
1.412806403201600688e+03 1.884565382682679147e-02
1.413706853426713224e+03 1.713274983135247218e-02
1.414607303651825760e+03 1.556098016445362636e-02
1.415507753876938295e+03 1.414232963110130699e-02
1.416408204102051059e+03 1.288755401678215451e-02
1.417308654327163595e+03 1.179293066991183442e-02
1.418209104552276131e+03 1.083529637173782922e-02
1.419109554777388666e+03 1.000788148334045939e-02
1.420010005002501202e+03 9.321560200859566395e-03
1.420910455227613738e+03 8.759879777731790357e-03
1.421810905452726274e+03 8.269627018272596858e-03
1.422711355677838810e+03 7.810041446224564449e-03
1.423611805902951346e+03 7.376171661970922465e-03
1.424512256128063882e+03 6.977013059483324307e-03
1.425412706353176418e+03 6.615844131591590120e-03
1.426313156578289181e+03 6.284862229884099170e-03
1.427213606803401717e+03 5.967288763478458685e-03
1.428114057028514253e+03 5.653265181811637126e-03
1.429014507253626789e+03 5.350091451647696200e-03
1.429914957478739325e+03 5.072807917682395709e-03
1.430815407703851861e+03 4.829232345905820623e-03
1.431715857928964397e+03 4.615040960977174513e-03
1.432616308154076933e+03 4.422284791886101248e-03
1.433516758379189469e+03 4.250371274086668476e-03
1.434417208604302004e+03 4.101811542362065327e-03
1.435317658829414540e+03 3.970696545609144791e-03
1.436218109054527304e+03 3.844911217214784255e-03
1.437118559279639840e+03 3.714459312388438718e-03
1.438019009504752376e+03 3.576686621009332427e-03
1.438919459729864911e+03 3.437055101981068613e-03
1.439819909954977447e+03 3.301614373339714203e-03
1.440720360180089983e+03 3.173631948360317468e-03
1.441620810405202519e+03 3.052459229537172677e-03
1.442521260630315055e+03 2.941156437646015240e-03
1.443421710855427591e+03 2.846942748920474556e-03
1.444322161080540127e+03 2.769996459376641157e-03
1.445222611305652663e+03 2.702654555667294376e-03
1.446123061530765426e+03 2.634688681306125713e-03
1.447023511755877962e+03 2.561535766952049379e-03
1.447923961980990498e+03 2.488529440832786249e-03
1.448824412206103034e+03 2.424286067541968868e-03
1.449724862431215570e+03 2.372511218549923709e-03
1.450625312656328106e+03 2.326192424162624658e-03
1.451525762881440642e+03 2.275878994084434837e-03
1.452426213106553178e+03 2.222460789408722305e-03
1.453326663331665713e+03 2.171549293537915811e-03
1.454227113556778249e+03 2.123250396323294199e-03
1.455127563781890785e+03 2.073597724368929363e-03
1.456028014007003321e+03 2.018654894704929436e-03
1.456928464232116085e+03 1.957614757425387483e-03
1.457828914457228620e+03 1.893138015998847802e-03
1.458729364682341156e+03 1.830947817076256784e-03
1.459629814907453692e+03 1.778550042068243906e-03
1.460530265132566228e+03 1.740915002835425685e-03
1.461430715357678764e+03 1.713239481647564361e-03
1.462331165582791300e+03 1.685288880124768919e-03
1.463231615807903836e+03 1.653415432978497116e-03
1.464132066033016372e+03 1.621462769696936559e-03
1.465032516258128908e+03 1.594617514107359328e-03
1.465932966483241444e+03 1.574665568261512331e-03
1.466833416708354207e+03 1.557105761170776616e-03
1.467733866933466743e+03 1.532720390426234964e-03
1.468634317158579279e+03 1.498024610881025596e-03
1.469534767383691815e+03 1.460406260146995990e-03
1.470435217608804351e+03 1.429864328455062719e-03
1.471335667833916887e+03 1.410470145928443848e-03
1.472236118059029423e+03 1.400940785552528232e-03
1.473136568284141958e+03 1.396690310260174017e-03
1.474037018509254494e+03 1.388931884751112801e-03
1.474937468734367030e+03 1.370364224548163701e-03
1.475837918959479566e+03 1.345155679682002742e-03
1.476738369184592329e+03 1.322085825140138478e-03
1.477638819409704865e+03 1.301230458059963882e-03
1.478539269634817401e+03 1.276799852134633591e-03
1.479439719859929937e+03 1.246749425406755950e-03
1.480340170085042473e+03 1.214567159291717784e-03
1.481240620310155009e+03 1.184450053618984772e-03
1.482141070535267545e+03 1.157418783513428735e-03
1.483041520760380081e+03 1.131783168191831911e-03
1.483941970985492617e+03 1.107689579148446674e-03
1.484842421210605153e+03 1.086166989161560341e-03
1.485742871435717689e+03 1.066046095778566249e-03
1.486643321660830452e+03 1.045522025809463408e-03
1.487543771885942988e+03 1.025274208960781468e-03
1.488444222111055524e+03 1.006104862265051964e-03
1.489344672336168060e+03 9.847841696003698225e-04
1.490245122561280596e+03 9.578123242236729175e-04
1.491145572786393132e+03 9.260033839026068653e-04
1.492046023011505667e+03 8.942250852966883434e-04
1.492946473236618203e+03 8.670595791774991399e-04
1.493846923461730739e+03 8.461925434401416880e-04
1.494747373686843275e+03 8.305316626417315459e-04
1.495647823911955811e+03 8.172723517464089817e-04
1.496548274137068574e+03 8.048940837105738547e-04
1.497448724362181110e+03 7.938953797631530815e-04
1.498349174587293646e+03 7.854068178392303607e-04
1.499249624812406182e+03 7.802181689391214300e-04
1.500150075037518718e+03 7.771435324488065038e-04
1.501050525262631254e+03 7.720476870414581111e-04
1.501950975487743790e+03 7.600607551871259521e-04
1.502851425712856326e+03 7.404361595126690478e-04
1.503751875937968862e+03 7.189787895353608096e-04
1.504652326163081398e+03 7.026335730380592033e-04
1.505552776388193934e+03 6.932416464983469752e-04
1.506453226613306470e+03 6.874197644964034513e-04
1.507353676838419233e+03 6.798048131794799144e-04
1.508254127063531769e+03 6.683742892228007734e-04
1.509154577288644305e+03 6.554876589283503132e-04
1.510055027513756841e+03 6.430107098637511797e-04
1.510955477738869376e+03 6.304837577614937853e-04
1.511855927963981912e+03 6.179438568938446473e-04
1.512756378189094448e+03 6.067548160489036205e-04
1.513656828414206984e+03 5.973094741118392757e-04
1.514557278639319520e+03 5.894139573941828154e-04
1.515457728864432056e+03 5.837008009020053451e-04
1.516358179089544592e+03 5.797471786763686540e-04
1.517258629314657355e+03 5.759743896400294815e-04
1.518159079539769891e+03 5.721966936985541877e-04
1.519059529764882427e+03 5.689519552575434715e-04
1.519959979989994963e+03 5.641011411196291238e-04
1.520860430215107499e+03 5.561942723232351235e-04
1.521760880440220035e+03 5.478578411976230697e-04
1.522661330665332571e+03 5.420659883377001954e-04
1.523561780890445107e+03 5.392347409449202000e-04
1.524462231115557643e+03 5.380911946692568245e-04
1.525362681340670179e+03 5.376771002398430871e-04
1.526263131565782714e+03 5.374004483995273047e-04
1.527163581790895478e+03 5.368284477053915761e-04
1.528064032016008014e+03 5.361485706507550198e-04
1.528964482241120550e+03 5.354466754809002410e-04
1.529864932466233086e+03 5.339146949074801080e-04
1.530765382691345621e+03 5.310055209157112576e-04
1.531665832916458157e+03 5.274637141500487098e-04
1.532566283141570693e+03 5.235187920031945247e-04
1.533466733366683229e+03 5.176913961056421295e-04
1.534367183591795765e+03 5.095916314448033398e-04
1.535267633816908301e+03 5.020404499267816338e-04
1.536168084042020837e+03 4.980391575053092846e-04
1.537068534267133600e+03 4.969363009667822177e-04
1.537968984492246136e+03 4.953680282231827338e-04
1.538869434717358672e+03 4.912700124787303200e-04
1.539769884942471208e+03 4.847457433542548544e-04
1.540670335167583744e+03 4.770865670258294939e-04
1.541570785392696280e+03 4.700328534953529536e-04
1.542471235617808816e+03 4.644773203365080570e-04
1.543371685842921352e+03 4.598100816473965841e-04
1.544272136068033888e+03 4.545376854932626056e-04
1.545172586293146423e+03 4.485119140360496097e-04
1.546073036518258959e+03 4.432330331536826155e-04
1.546973486743371723e+03 4.386293290213770968e-04
1.547873936968484259e+03 4.324530589973716731e-04
1.548774387193596795e+03 4.241040451820066995e-04
1.549674837418709330e+03 4.157697816646333802e-04
1.550575287643821866e+03 4.096213824576999370e-04
1.551475737868934402e+03 4.063882486953826869e-04
1.552376188094046938e+03 4.059210147752642423e-04
1.553276638319159474e+03 4.076127410501298562e-04
1.554177088544272010e+03 4.099715861608691056e-04
1.555077538769384546e+03 4.105443055695788546e-04
1.555977988994497082e+03 4.079848867893281291e-04
1.556878439219609618e+03 4.038256606611764993e-04
1.557778889444722381e+03 3.999224666415187039e-04
1.558679339669834917e+03 3.950921585851501026e-04
1.559579789894947453e+03 3.874296177168570559e-04
1.560480240120059989e+03 3.778525721093547638e-04
1.561380690345172525e+03 3.692095080126288798e-04
1.562281140570285061e+03 3.638469255330325103e-04
1.563181590795397597e+03 3.622749020257886926e-04
1.564082041020510133e+03 3.629676361606620815e-04
1.564982491245622668e+03 3.640418420161224146e-04
1.565882941470735204e+03 3.641225210380422822e-04
1.566783391695847740e+03 3.611794396494161490e-04
1.567683841920960504e+03 3.531415314416249318e-04
1.568584292146073039e+03 3.400898970248899850e-04
1.569484742371185575e+03 3.240289150244855115e-04
1.570385192596298111e+03 3.064979295038715800e-04
1.571285642821410647e+03 2.877072339359819700e-04
1.572186093046523183e+03 2.678082164181423805e-04
1.573086543271635719e+03 2.472410554702485523e-04
1.573986993496748255e+03 2.262938123518989887e-04
1.574887443721860791e+03 2.051300660819332564e-04
1.575787893946973327e+03 1.839401526628889263e-04
1.576688344172085863e+03 1.636203982711563519e-04
1.577588794397198626e+03 1.454391450976134231e-04
1.578489244622311162e+03 1.301216915519862454e-04
1.579389694847423698e+03 1.176475457167485713e-04
1.580290145072536234e+03 1.075398048959522857e-04
1.581190595297648770e+03 9.936643837256304592e-05
1.582091045522761306e+03 9.279137377731689099e-05
1.582991495747873842e+03 8.747374621920642949e-05
1.583891945972986377e+03 8.310547281641873286e-05
1.584792396198098913e+03 7.944788113804807800e-05
1.585692846423211449e+03 7.632832773393602346e-05
1.586593296648323985e+03 7.362372622341871833e-05
1.587493746873436749e+03 7.124551217756649860e-05
1.588394197098549284e+03 6.912882698691822844e-05
1.589294647323661820e+03 6.722523292613089192e-05
1.590195097548774356e+03 6.549786185820962337e-05
1.591095547773886892e+03 6.391815548153938003e-05
1.591995997998999428e+03 6.246363860247491136e-05
1.592896448224111964e+03 6.111636931764527503e-05
1.593796898449224500e+03 5.986183992666573679e-05
1.594697348674337036e+03 5.868818346693849801e-05
1.595597798899449572e+03 5.758559130511723426e-05
1.596498249124562108e+03 5.654587906595634754e-05
1.597398699349674871e+03 5.556215855459304667e-05
1.598299149574787407e+03 5.462858658799783323e-05
1.599199599799899943e+03 5.374017043040161363e-05
1.600100050025012479e+03 5.289261543839436690e-05
1.601000500250125015e+03 5.208220456529847784e-05
1.601900950475237551e+03 5.130570218313254614e-05
1.602801400700350086e+03 5.056027665904901986e-05
1.603701850925462622e+03 4.984343753547522090e-05
1.604602301150575158e+03 4.915298418389872490e-05
1.605502751375687694e+03 4.848696354842875836e-05
1.606403201600800230e+03 4.784363514673236402e-05
1.607303651825912766e+03 4.722144190760926103e-05
1.608204102051025529e+03 4.661898573467257770e-05
1.609104552276138065e+03 4.603500692149832275e-05
1.610005002501250601e+03 4.546836672440653760e-05
1.610905452726363137e+03 4.491803253879216907e-05
1.611805902951475673e+03 4.438306523368266439e-05
1.612706353176588209e+03 4.386260828446660753e-05
1.613606803401700745e+03 4.335587841103053294e-05
1.614507253626813281e+03 4.286215748195785748e-05
1.615407703851925817e+03 4.238078548812869385e-05
1.616308154077038353e+03 4.191115442333152261e-05
1.617208604302150889e+03 4.145270293719062850e-05
1.618109054527263652e+03 4.100491164817922466e-05
1.619009504752376188e+03 4.056729902282561783e-05
1.619909954977488724e+03 4.013941774222946288e-05
1.620810405202601260e+03 3.972085148938170183e-05
1.621710855427713796e+03 3.931121210099466239e-05
1.622611305652826331e+03 3.891013703602638470e-05
1.623511755877938867e+03 3.851728712016467713e-05
1.624412206103051403e+03 3.813234453142653427e-05
1.625312656328163939e+03 3.775501099700763957e-05
1.626213106553276475e+03 3.738500617567885328e-05
1.627113556778389011e+03 3.702206620356826117e-05
1.628014007003501774e+03 3.666594238414824466e-05
1.628914457228614310e+03 3.631640000580095269e-05
1.629814907453726846e+03 3.597321727249321260e-05
1.630715357678839382e+03 3.563618433496154288e-05
1.631615807903951918e+03 3.530510241138390637e-05
1.632516258129064454e+03 3.497978298789287043e-05
1.633416708354176990e+03 3.466004709045679525e-05
1.634317158579289526e+03 3.434572462068178066e-05
1.635217608804402062e+03 3.403665374896320530e-05
1.636118059029514598e+03 3.373268035918254088e-05
1.637018509254627133e+03 3.343365753981848200e-05
1.637918959479739897e+03 3.313944511691041436e-05
1.638819409704852433e+03 3.284990922483712006e-05
1.639719859929964969e+03 3.256492191130039440e-05
1.640620310155077505e+03 3.228436077330714804e-05
1.641520760380190040e+03 3.200810862128318095e-05
1.642421210605302576e+03 3.173605316874921129e-05
1.643321660830415112e+03 3.146808674526159933e-05
1.644222111055527648e+03 3.120410603055959826e-05
1.645122561280640184e+03 3.094401180805546981e-05
1.646023011505752720e+03 3.068770873600903492e-05
1.646923461730865256e+03 3.043510513487251380e-05
1.647823911955978019e+03 3.018611278945598943e-05
1.648724362181090555e+03 2.994064676467890360e-05
1.649624812406203091e+03 2.969862523380128902e-05
1.650525262631315627e+03 2.945996931812519304e-05
1.651425712856428163e+03 2.922460293725345223e-05
1.652326163081540699e+03 2.899245266907415347e-05
1.653226613306653235e+03 2.876344761871765069e-05
1.654127063531765771e+03 2.853751929579571731e-05
1.655027513756878307e+03 2.831460149929597233e-05
1.655927963981990843e+03 2.809463020956204544e-05
1.656828414207103378e+03 2.787754348682955008e-05
1.657728864432216142e+03 2.766328137584555212e-05
1.658629314657328678e+03 2.745178581613024710e-05
1.659529764882441214e+03 2.724300055747739719e-05
1.660430215107553749e+03 2.703687108032627496e-05
1.661330665332666285e+03 2.683334452066680545e-05
1.662231115557778821e+03 2.663236959916421312e-05
1.663131565782891357e+03 2.643389655421608347e-05
1.664032016008003893e+03 2.623787707868163117e-05
1.664932466233116429e+03 2.604426426003191047e-05
1.665832916458228965e+03 2.585301252370485620e-05
1.666733366683341501e+03 2.566407757944905000e-05
1.667633816908454037e+03 2.547741637046987468e-05
1.668534267133566800e+03 2.529298702519699844e-05
1.669434717358679336e+03 2.511074881151047723e-05
1.670335167583791872e+03 2.493066209327110861e-05
1.671235617808904408e+03 2.475268828901348091e-05
1.672136068034016944e+03 2.457678983267264693e-05
1.673036518259129480e+03 2.440293013621885448e-05
1.673936968484242016e+03 2.423107355408930815e-05
1.674837418709354552e+03 2.406118534930894195e-05
1.675737868934467087e+03 2.389323166120483689e-05
1.676638319159579623e+03 2.372717947461910432e-05
1.677538769384692159e+03 2.356299659053698510e-05
1.678439219609804923e+03 2.340065159805012002e-05
1.679339669834917459e+03 2.324011384757899911e-05
1.680240120060029994e+03 2.308135342528664413e-05
1.681140570285142530e+03 2.292434112861682226e-05
1.682041020510255066e+03 2.276904844289722070e-05
1.682941470735367602e+03 2.261544751894991624e-05
1.683841920960480138e+03 2.246351115165448590e-05
1.684742371185592674e+03 2.231321275941676848e-05
1.685642821410705210e+03 2.216452636449118134e-05
1.686543271635817746e+03 2.201742657411865528e-05
1.687443721860930282e+03 2.187188856243294012e-05
1.688344172086043045e+03 2.172788805310039344e-05
1.689244622311155581e+03 2.158540130265409568e-05
1.690145072536268117e+03 2.144440508448931850e-05
1.691045522761380653e+03 2.130487667348711204e-05
1.691945972986493189e+03 2.116679383123581620e-05
1.692846423211605725e+03 2.103013479182084622e-05
1.693746873436718261e+03 2.089487824815765350e-05
1.694647323661830796e+03 2.076100333883890649e-05
1.695547773886943332e+03 2.062848963547562396e-05
1.696448224112055868e+03 2.049731713050570103e-05
1.697348674337168404e+03 2.036746622545082736e-05
1.698249124562281168e+03 2.023891771960043868e-05
1.699149574787393703e+03 2.011165279910354857e-05
1.700050025012506239e+03 1.998565302644923620e-05
1.700950475237618775e+03 1.986090033032036057e-05
1.701850925462731311e+03 1.973737699580275069e-05
1.702751375687843847e+03 1.961506565493485900e-05
1.703651825912956383e+03 1.949394927758272623e-05
1.704552276138068919e+03 1.937401116262628850e-05
1.705452726363181455e+03 1.925523492944511398e-05
1.706353176588293991e+03 1.913760450968952516e-05
1.707253626813406527e+03 1.902110413932473355e-05
1.708154077038519290e+03 1.890571835093884874e-05
1.709054527263631826e+03 1.879143196630173463e-05
1.709954977488744362e+03 1.867823008916579181e-05
1.710855427713856898e+03 1.856609809829838311e-05
1.711755877938969434e+03 1.845502164073653417e-05
1.712656328164081970e+03 1.834498662525578085e-05
1.713556778389194506e+03 1.823597921604338881e-05
1.714457228614307041e+03 1.812798582656956523e-05
1.715357678839419577e+03 1.802099311364774200e-05
1.716258129064532113e+03 1.791498797167721479e-05
1.717158579289644649e+03 1.780995752706097910e-05
1.718059029514757185e+03 1.770588913279236642e-05
1.718959479739869948e+03 1.760277036320390752e-05
1.719859929964982484e+03 1.750058900887295780e-05
1.720760380190095020e+03 1.739933307167626159e-05
1.721660830415207556e+03 1.729899075999129359e-05
1.722561280640320092e+03 1.719955048403633770e-05
1.723461730865432628e+03 1.710100085134507451e-05
1.724362181090545164e+03 1.700333066237208628e-05
1.725262631315657700e+03 1.690652890622120548e-05
1.726163081540770236e+03 1.681058475649742836e-05
1.727063531765882772e+03 1.671548756727320178e-05
1.727963981990995308e+03 1.662122686916859190e-05
1.728864432216108071e+03 1.652779236553857882e-05
1.729764882441220607e+03 1.643517392876665044e-05
1.730665332666333143e+03 1.634336159665813963e-05
1.731565782891445679e+03 1.625234556893301985e-05
1.732466233116558215e+03 1.616211620381248441e-05
1.733366683341670750e+03 1.607266401469583967e-05
1.734267133566783286e+03 1.598397966692755986e-05
1.735167583791895822e+03 1.589605397464893000e-05
1.736068034017008358e+03 1.580887789773264721e-05
1.736968484242120894e+03 1.572244253879626386e-05
1.737868934467233430e+03 1.563673914029463854e-05
1.738769384692346193e+03 1.555175908168665152e-05
1.739669834917458729e+03 1.546749387667410095e-05
1.740570285142571265e+03 1.538393517051089268e-05
1.741470735367683801e+03 1.530107473738097517e-05
1.742371185592796337e+03 1.521890447784134187e-05
1.743271635817908873e+03 1.513741641632935897e-05
1.744172086043021409e+03 1.505660269873189091e-05
1.745072536268133945e+03 1.497645559001441623e-05
1.745972986493246481e+03 1.489696747190838196e-05
1.746873436718359017e+03 1.481813084065484002e-05
1.747773886943471553e+03 1.473993830480261722e-05
1.748674337168584316e+03 1.466238258306078524e-05
1.749574787393696852e+03 1.458545650220061586e-05
1.750475237618809388e+03 1.450915299500938321e-05
1.751375687843921924e+03 1.443346509829194196e-05
1.752276138069034459e+03 1.435838595091896520e-05
1.753176588294146995e+03 1.428390879192222487e-05
1.754077038519259531e+03 1.421002695863279636e-05
1.754977488744372067e+03 1.413673388486365786e-05
1.755877938969484603e+03 1.406402309913386719e-05
1.756778389194597139e+03 1.399188822293265069e-05
1.757678839419709675e+03 1.392032296902501049e-05
1.758579289644822438e+03 1.384932113979366249e-05
1.759479739869934974e+03 1.377887662561999903e-05
1.760380190095047510e+03 1.370898340330079113e-05
1.761280640320160046e+03 1.363963553450028494e-05
1.762181090545272582e+03 1.357082716423717220e-05
1.763081540770385118e+03 1.350255251940431544e-05
1.763981990995497654e+03 1.343480590732172263e-05
1.764882441220610190e+03 1.336758171432130763e-05
1.765782891445722726e+03 1.330087440436165586e-05
1.766683341670835262e+03 1.323467851767392185e-05
1.767583791895947797e+03 1.316898866943635825e-05
1.768484242121060333e+03 1.310379954847730504e-05
1.769384692346173097e+03 1.303910591600636300e-05
1.770285142571285633e+03 1.297490260437201495e-05
1.771185592796398169e+03 1.291118451584623842e-05
1.772086043021510704e+03 1.284794662143418727e-05
1.772986493246623240e+03 1.278518395970894704e-05
1.773886943471735776e+03 1.272289163567108475e-05
1.774787393696848312e+03 1.266106481963131755e-05
1.775687843921960848e+03 1.259969874611686952e-05
1.776588294147073384e+03 1.253878871279982256e-05
1.777488744372185920e+03 1.247833007944807617e-05
1.778389194597298456e+03 1.241831826689738837e-05
1.779289644822411219e+03 1.235874875604403151e-05
1.780190095047523755e+03 1.229961708685878329e-05
1.781090545272636291e+03 1.224091885741967104e-05
1.781990995497748827e+03 1.218264972296507524e-05
1.782891445722861363e+03 1.212480539496508162e-05
1.783791895947973899e+03 1.206738164021183719e-05
1.784692346173086435e+03 1.201037427992770754e-05
1.785592796398198971e+03 1.195377918889107454e-05
1.786493246623311506e+03 1.189759229457919141e-05
1.787393696848424042e+03 1.184180957632790580e-05
1.788294147073536578e+03 1.178642706450822851e-05
1.789194597298649342e+03 1.173144083971802861e-05
1.790095047523761878e+03 1.167684703198983570e-05
1.790995497748874413e+03 1.162264182001428689e-05
1.791895947973986949e+03 1.156882143037760910e-05
1.792796398199099485e+03 1.151538213681433101e-05
1.793696848424212021e+03 1.146232025947404733e-05
1.794597298649324557e+03 1.140963216420191676e-05
1.795497748874437093e+03 1.135731426183340720e-05
1.796398199099549629e+03 1.130536300750086367e-05
1.797298649324662165e+03 1.125377489995493165e-05
1.798199099549774701e+03 1.120254648089719502e-05
1.799099549774887464e+03 1.115167433432620738e-05
1.800000000000000000e+03 1.110115508589457027e-05
