0.000000000000000000e+00 2.091967369524371304e-03
9.004502251125562351e-01 2.799885837344737605e-03
1.800900450225112470e+00 3.645375520937658639e-03
2.701350675337668594e+00 4.391624101903256021e-03
3.601800900450224940e+00 4.689483157949352748e-03
4.502251125562780842e+00 4.379016273217949465e-03
5.402701350675337189e+00 3.626716793657689796e-03
6.303151575787893535e+00 2.782490338493551207e-03
7.203601800900449881e+00 2.078680568833651040e-03
8.104052026013006227e+00 1.560507229437380376e-03
9.004502251125561685e+00 1.193096163456698958e-03
9.904952476238118919e+00 9.322940983097072329e-04
1.080540270135067438e+01 7.441337955974190125e-04
1.170585292646323161e+01 6.055113728146011140e-04
1.260630315157578707e+01 5.011877769636724879e-04
1.350675337668834430e+01 4.210923342259619289e-04
1.440720360180089976e+01 3.584761995539056142e-04
1.530765382691345522e+01 3.087343176005897236e-04
1.620810405202601245e+01 2.686664231305334652e-04
1.710855427713856969e+01 2.360113003175344319e-04
1.800900450225112337e+01 2.091460794389916596e-04
1.890945472736368060e+01 1.868759874316107362e-04
1.980990495247623784e+01 1.682503236710260945e-04
2.071035517758879507e+01 1.523838850626436654e-04
2.161080540270134875e+01 1.384386102977375090e-04
2.251125562781390599e+01 1.259152771256008855e-04
2.341170585292646322e+01 1.147434255602089209e-04
2.431215607803901690e+01 1.049329127123050444e-04
2.521260630315157414e+01 9.637665841857012662e-05
2.611305652826413137e+01 8.890310238856500560e-05
2.701350675337668861e+01 8.234606680031084829e-05
2.791395697848924229e+01 7.656698195799661671e-05
2.881440720360179952e+01 7.145549729045494881e-05
2.971485742871435676e+01 6.692096313919235900e-05
3.061530765382691044e+01 6.286598746232771498e-05
3.151575787893946767e+01 5.917894598005591402e-05
3.241620810405202491e+01 5.579509804361062802e-05
3.331665832916458214e+01 5.271553724502075469e-05
3.421710855427713938e+01 4.992404030308206421e-05
3.511755877938969661e+01 4.736918315267320343e-05
3.601800900450224674e+01 4.500717651615404049e-05
3.691845922961480397e+01 4.279439510260436478e-05
3.781890945472736121e+01 4.071826496232452036e-05
3.871935967983991844e+01 3.878863866032350812e-05
3.961980990495247568e+01 3.697455612232562137e-05
4.052026013006503291e+01 3.525948314241974396e-05
4.142071035517759015e+01 3.366257196545833721e-05
4.232116058029014027e+01 3.217215438402070717e-05
4.322161080540269751e+01 3.077204165529585369e-05
4.412206103051525474e+01 2.947126157117618353e-05
4.502251125562781198e+01 2.825467398590422784e-05
4.592296148074036921e+01 2.709331290627928993e-05
4.682341170585292645e+01 2.599987197218262989e-05
4.772386193096548368e+01 2.500660403487210557e-05
4.862431215607803381e+01 2.412951623308444652e-05
4.952476238119059104e+01 2.337404247080026345e-05
5.042521260630314828e+01 2.274642249310699952e-05
5.132566283141570551e+01 2.225220219458436154e-05
5.222611305652826275e+01 2.187959582609036192e-05
5.312656328164081998e+01 2.158111939879696673e-05
5.402701350675337721e+01 2.127890192201105683e-05
5.492746373186592734e+01 2.088790483216259740e-05
5.582791395697848458e+01 2.035497342911203790e-05
5.672836418209104181e+01 1.970854864072081117e-05
5.762881440720359905e+01 1.902356692128974968e-05
5.852926463231615628e+01 1.833327268484906487e-05
5.942971485742871351e+01 1.768830292793576117e-05
6.033016508254127075e+01 1.715646493009822154e-05
6.123061530765382088e+01 1.673248247033165960e-05
6.213106553276637811e+01 1.633014004953957656e-05
6.303151575787893535e+01 1.584865347648763834e-05
6.393196598299149258e+01 1.526606372445707968e-05
6.483241620810404982e+01 1.466405220749207350e-05
6.573286643321659994e+01 1.412537007228791430e-05
6.663331665832916428e+01 1.367830546876390080e-05
6.753376688344171441e+01 1.332294718476348078e-05
6.843421710855427875e+01 1.305634770286795241e-05
6.933466733366682888e+01 1.288118351591574006e-05
7.023511755877939322e+01 1.280386059984022560e-05
7.113556778389194335e+01 1.281825375539828232e-05
7.203601800900449348e+01 1.287325964586712890e-05
7.293646823411705782e+01 1.287329171703036738e-05
7.383691845922960795e+01 1.277040206500475855e-05
7.473736868434217229e+01 1.258306763094598033e-05
7.563781890945472242e+01 1.230639546051617984e-05
7.653826913456728676e+01 1.196284566184650650e-05
7.743871935967983688e+01 1.164822500771792173e-05
7.833916958479238701e+01 1.144548422764345747e-05
7.923961980990495135e+01 1.137505628790252640e-05
8.014007003501750148e+01 1.140785039941783525e-05
8.104052026013006582e+01 1.148885353914651758e-05
8.194097048524261595e+01 1.156106361156773270e-05
8.284142071035518029e+01 1.156179150652418157e-05
8.374187093546773042e+01 1.140987543302736673e-05
8.464232116058028055e+01 1.108046791378222816e-05
8.554277138569284489e+01 1.066833843637681201e-05
8.644322161080539502e+01 1.031112558557313828e-05
8.734367183591795936e+01 1.010109984830905779e-05
8.824412206103050949e+01 1.006338377202414729e-05
8.914457228614307382e+01 1.017124949823110606e-05
9.004502251125562395e+01 1.035542314737224239e-05
9.094547273636817408e+01 1.051141187306529273e-05
9.184592296148073842e+01 1.056380583470892186e-05
9.274637318659328855e+01 1.054659817591384162e-05
9.364682341170585289e+01 1.054133803594101146e-05
9.454727363681840302e+01 1.055584348442514150e-05
9.544772386193096736e+01 1.046075611947663267e-05
9.634817408704351749e+01 1.011310112925750645e-05
9.724862431215606762e+01 9.583570302540450302e-06
9.814907453726863196e+01 9.069968426402513453e-06
9.904952476238118209e+01 8.692913960634580199e-06
9.994997498749374643e+01 8.469051497524387583e-06
1.008504252126062966e+02 8.359753578593629429e-06
1.017508754377188609e+02 8.327168452877609979e-06
1.026513256628314110e+02 8.364965029540951286e-06
1.035517758879439612e+02 8.464613079128971708e-06
1.044522261130565255e+02 8.599349511597793197e-06
1.053526763381690756e+02 8.755051432119832547e-06
1.062531265632816400e+02 8.940766921597743299e-06
1.071535767883941901e+02 9.165129891415765105e-06
1.080540270135067544e+02 9.410883292333708036e-06
1.089544772386193046e+02 9.629036106771984927e-06
1.098549274637318547e+02 9.733732608739665797e-06
1.107553776888444190e+02 9.637255473969340888e-06
1.116558279139569692e+02 9.364218564515272228e-06
1.125562781390695335e+02 9.065740346745281320e-06
1.134567283641820836e+02 8.872512702072704106e-06
1.143571785892946480e+02 8.782225714141425130e-06
1.152576288144071981e+02 8.678359754851460505e-06
1.161580790395197482e+02 8.463979202109811391e-06
1.170585292646323126e+02 8.179150337964259898e-06
1.179589794897448627e+02 7.950645054867747891e-06
1.188594297148574270e+02 7.870464118649112619e-06
1.197598799399699772e+02 7.954865628826712730e-06
1.206603301650825415e+02 8.178016761363203930e-06
1.215607803901950916e+02 8.500136526888369727e-06
1.224612306153076418e+02 8.861557955703705704e-06
1.233616808404202061e+02 9.211237916367346230e-06
1.242621310655327562e+02 9.517295411819503423e-06
1.251625812906453206e+02 9.757547256326607930e-06
1.260630315157578707e+02 9.908521211456256892e-06
1.269634817408704350e+02 9.928281042487929024e-06
1.278639319659829852e+02 9.828114232383307751e-06
1.287643821910955353e+02 9.670674247499316472e-06
1.296648324162080996e+02 9.483873873488588444e-06
1.305652826413206640e+02 9.273684488404666064e-06
1.314657328664331999e+02 9.064698851275184032e-06
1.323661830915457642e+02 8.908851667984510269e-06
1.332666333166583286e+02 8.853037123249654354e-06
1.341670835417708929e+02 8.882777289155146779e-06
1.350675337668834288e+02 8.928489636304142674e-06
1.359679839919959932e+02 8.914911427590012686e-06
1.368684342171085575e+02 8.801121646721461438e-06
1.377688844422210934e+02 8.621476501042373404e-06
1.386693346673336578e+02 8.474624367515399344e-06
1.395697848924462221e+02 8.444984440357586737e-06
1.404702351175587864e+02 8.569145395537342737e-06
1.413706853426713224e+02 8.840487976123935217e-06
1.422711355677838867e+02 9.205949019995623986e-06
1.431715857928964510e+02 9.586569607343574574e-06
1.440720360180089870e+02 9.904497260960173265e-06
1.449724862431215513e+02 1.008802245109437984e-05
1.458729364682341156e+02 1.009934551061331553e-05
1.467733866933466800e+02 9.984879815865411917e-06
1.476738369184592159e+02 9.844664589264987621e-06
1.485742871435717802e+02 9.722317213229146702e-06
1.494747373686843446e+02 9.586037294343082403e-06
1.503751875937968805e+02 9.414391220750145019e-06
1.512756378189094448e+02 9.235452873648638736e-06
1.521760880440220092e+02 9.064738006850633491e-06
1.530765382691345735e+02 8.878124918832174016e-06
1.539769884942471094e+02 8.678050405849735362e-06
1.548774387193596738e+02 8.513804019103022908e-06
1.557778889444722381e+02 8.383885919251240725e-06
1.566783391695847740e+02 8.224863308828448311e-06
1.575787893946973384e+02 8.026874605655697799e-06
1.584792396198099027e+02 7.873682128126390938e-06
1.593796898449224670e+02 7.873005686392785618e-06
1.602801400700350030e+02 8.083016764029865304e-06
1.611805902951475673e+02 8.509658203403624885e-06
1.620810405202601316e+02 9.117477302332922475e-06
1.629814907453726676e+02 9.785887224011166445e-06
1.638819409704852319e+02 1.031752581970854948e-05
1.647823911955977962e+02 1.056691201781268435e-05
1.656828414207103606e+02 1.053703466964061986e-05
1.665832916458228965e+02 1.035715277177844912e-05
1.674837418709354608e+02 1.015759665611468879e-05
1.683841920960480252e+02 9.946106165247643391e-06
1.692846423211605611e+02 9.638805826110881381e-06
1.701850925462731254e+02 9.211743620815655969e-06
1.710855427713856898e+02 8.775963099714950436e-06
1.719859929964982541e+02 8.482403408974744302e-06
1.728864432216107900e+02 8.384897493599208980e-06
1.737868934467233544e+02 8.451346812235453838e-06
1.746873436718359187e+02 8.638597521712063730e-06
1.755877938969484546e+02 8.897729458021516629e-06
1.764882441220610190e+02 9.115828645491083098e-06
1.773886943471735833e+02 9.176825021570285244e-06
1.782891445722861476e+02 9.124340156464913105e-06
1.791895947973986836e+02 9.108225192541156859e-06
1.800900450225112479e+02 9.204117906182112131e-06
1.809904952476238122e+02 9.375233326229972426e-06
1.818909454727363482e+02 9.540982445162385066e-06
1.827913956978489125e+02 9.631554911663138552e-06
1.836918459229614768e+02 9.620309031442911274e-06
1.845922961480740412e+02 9.535162463286655100e-06
1.854927463731865771e+02 9.435511127340596966e-06
1.863931965982991414e+02 9.351138734169564385e-06
1.872936468234117058e+02 9.270939746739675344e-06
1.881940970485242417e+02 9.166072290305513206e-06
1.890945472736368060e+02 9.038360086910213973e-06
1.899949974987493704e+02 8.932564284356439370e-06
1.908954477238619347e+02 8.892208029264847270e-06
1.917958979489744706e+02 8.968543265793853158e-06
1.926963481740870350e+02 9.163922139495556197e-06
1.935967983991995993e+02 9.418934141118730100e-06
1.944972486243121352e+02 9.675098722107126946e-06
1.953976988494246996e+02 9.864724191056525846e-06
1.962981490745372639e+02 9.936867600717164893e-06
1.971985992996498283e+02 9.924801409723725876e-06
1.980990495247623642e+02 9.887079349457721474e-06
1.989994997498749285e+02 9.862659881520331577e-06
1.998999499749874929e+02 9.901244031941766293e-06
2.008004002001000288e+02 1.003800039637241289e-05
2.017008504252125931e+02 1.026032002510297544e-05
2.026013006503251574e+02 1.050934868094095439e-05
2.035017508754377218e+02 1.073357110706888023e-05
2.044022011005502577e+02 1.097118698907742412e-05
2.053026513256628220e+02 1.131881824036277324e-05
2.062031015507753864e+02 1.181978550744213166e-05
2.071035517758879223e+02 1.243439326286944991e-05
2.080040020010004866e+02 1.309142341728835485e-05
2.089044522261130510e+02 1.368253559640282920e-05
2.098049024512256153e+02 1.409828598068612776e-05
2.107053526763381512e+02 1.430283981782522990e-05
2.116058029014507156e+02 1.434573670029725803e-05
2.125062531265632799e+02 1.434334211855378936e-05
2.134067033516758158e+02 1.438885460112828098e-05
2.143071535767883802e+02 1.447536826949190371e-05
2.152076038019009445e+02 1.449985870684872002e-05
2.161080540270135089e+02 1.433521324934483948e-05
2.170085042521260448e+02 1.394291589555966400e-05
2.179089544772386091e+02 1.347943517813837171e-05
2.188094047023511735e+02 1.314615647160743420e-05
2.197098549274637094e+02 1.302924678950069549e-05
2.206103051525762737e+02 1.310057418983089343e-05
2.215107553776888381e+02 1.321874395115783023e-05
2.224112056028014024e+02 1.322337251833055624e-05
2.233116558279139383e+02 1.312735507437861120e-05
2.242121060530265027e+02 1.305713265396546644e-05
2.251125562781390670e+02 1.308401033278936123e-05
2.260130065032516029e+02 1.320871996691670824e-05
2.269134567283641672e+02 1.340965433162872730e-05
2.278139069534767316e+02 1.365543618972609997e-05
2.287143571785892959e+02 1.387288721194947488e-05
2.296148074037018318e+02 1.392119311387855752e-05
2.305152576288143962e+02 1.373135296924781337e-05
2.314157078539269605e+02 1.344348810368763051e-05
2.323161580790394964e+02 1.326554949429017872e-05
2.332166083041520608e+02 1.325873153767985760e-05
2.341170585292646251e+02 1.330180463115877191e-05
2.350175087543771895e+02 1.323357673626611416e-05
2.359179589794897254e+02 1.301582252746931898e-05
2.368184092046022897e+02 1.274678607153183722e-05
2.377188594297148541e+02 1.257285593895245592e-05
2.386193096548273900e+02 1.259702734933831750e-05
2.395197598799399543e+02 1.283275015541076430e-05
2.404202101050525187e+02 1.319307571809015920e-05
2.413206603301650830e+02 1.352205620458369003e-05
2.422211105552776189e+02 1.371780289352996860e-05
2.431215607803901833e+02 1.379900537635025867e-05
2.440220110055027476e+02 1.381573675184785090e-05
2.449224612306152835e+02 1.379962081298929434e-05
2.458229114557278479e+02 1.377757946690630479e-05
2.467233616808404122e+02 1.376986971122295093e-05
2.476238119059529765e+02 1.376125139578655547e-05
2.485242621310655124e+02 1.372954908032513249e-05
2.494247123561780768e+02 1.368938467631364578e-05
2.503251625812906411e+02 1.365985806918137147e-05
2.512256128064031770e+02 1.361014109954464096e-05
2.521260630315157414e+02 1.349349193769151975e-05
2.530265132566283057e+02 1.329550211973474324e-05
2.539269634817408701e+02 1.302702201863668756e-05
2.548274137068534060e+02 1.269957560150159537e-05
2.557278639319659703e+02 1.228950917094875297e-05
2.566283141570785347e+02 1.180445517941409107e-05
2.575287643821910706e+02 1.133530732792209248e-05
2.584292146073036633e+02 1.096311973495592318e-05
2.593296648324161993e+02 1.072202338033390516e-05
2.602301150575287352e+02 1.060522195966894284e-05
2.611305652826413279e+02 1.059802821079284873e-05
2.620310155077538639e+02 1.069637396556999991e-05
2.629314657328663998e+02 1.090510446682646688e-05
2.638319159579789925e+02 1.123227586515943450e-05
2.647323661830915285e+02 1.161276929667128422e-05
2.656328164082040644e+02 1.190845615374254558e-05
2.665332666333166571e+02 1.203938223256456886e-05
2.674337168584291931e+02 1.203515416983569167e-05
2.683341670835417858e+02 1.198730352228738754e-05
2.692346173086543217e+02 1.195850682243892603e-05
2.701350675337668577e+02 1.193032693384290717e-05
2.710355177588794504e+02 1.190703149667299944e-05
2.719359679839919863e+02 1.194069309717910907e-05
2.728364182091045222e+02 1.200750563129263592e-05
2.737368684342171150e+02 1.202133869742219900e-05
2.746373186593296509e+02 1.194925912306752816e-05
2.755377688844421868e+02 1.182168602583183237e-05
2.764382191095547796e+02 1.167761311181140550e-05
2.773386693346673155e+02 1.153534446623765082e-05
2.782391195597798514e+02 1.141301874168041049e-05
2.791395697848924442e+02 1.134532754156432161e-05
2.800400200100049801e+02 1.138374284734565387e-05
2.809404702351175729e+02 1.156771830361457600e-05
2.818409204602301088e+02 1.188886883828548869e-05
2.827413706853426447e+02 1.228934652344986312e-05
2.836418209104552375e+02 1.271065625268894551e-05
2.845422711355677734e+02 1.307220339378038235e-05
2.854427213606803093e+02 1.330756491330485008e-05
2.863431715857929021e+02 1.344746031583451860e-05
2.872436218109054380e+02 1.352825794605596712e-05
2.881440720360179739e+02 1.348622694333031802e-05
2.890445222611305667e+02 1.330936634245396740e-05
2.899449724862431026e+02 1.313470319793713211e-05
2.908454227113556385e+02 1.304887435553286245e-05
2.917458729364682313e+02 1.301828831800300498e-05
2.926463231615807672e+02 1.300633285284892145e-05
2.935467733866933600e+02 1.299884282110546171e-05
2.944472236118058959e+02 1.299619406357841120e-05
2.953476738369184318e+02 1.300639957495862789e-05
2.962481240620310246e+02 1.297835978390701773e-05
2.971485742871435605e+02 1.286031615279732023e-05
2.980490245122560964e+02 1.268176125435194020e-05
2.989494747373686891e+02 1.250185263763041923e-05
2.998499249624812251e+02 1.234452011544742096e-05
3.007503751875937610e+02 1.219542323288001106e-05
3.016508254127063537e+02 1.203371410214552385e-05
3.025512756378188897e+02 1.187123143519796658e-05
3.034517258629314256e+02 1.173520017677196518e-05
3.043521760880440183e+02 1.160306441088788724e-05
3.052526263131565543e+02 1.143635870368987457e-05
3.061530765382691470e+02 1.125630514261030368e-05
3.070535267633816829e+02 1.111657921683083979e-05
3.079539769884942189e+02 1.104739290246765216e-05
3.088544272136068116e+02 1.104249968495869716e-05
3.097548774387193475e+02 1.109618280088448962e-05
3.106553276638318835e+02 1.122897694564064161e-05
3.115557778889444762e+02 1.142932534880084174e-05
3.124562281140570121e+02 1.165558743165352625e-05
3.133566783391695481e+02 1.188344013571111552e-05
3.142571285642821408e+02 1.211146458368835822e-05
3.151575787893946767e+02 1.232796101793964065e-05
3.160580290145072127e+02 1.246608940041609016e-05
3.169584792396198054e+02 1.246253791926384708e-05
3.178589294647323413e+02 1.232855472508838872e-05
3.187593796898449341e+02 1.214162172056025041e-05
3.196598299149574700e+02 1.196548560950835088e-05
3.205602801400700059e+02 1.178971804532521331e-05
3.214607303651825987e+02 1.157148994164172563e-05
3.223611805902951346e+02 1.133490156493575102e-05
3.232616308154076705e+02 1.115454329376980548e-05
3.241620810405202633e+02 1.105990749979843779e-05
3.250625312656327992e+02 1.101795231052227058e-05
3.259629814907453351e+02 1.100063360613385779e-05
3.268634317158579279e+02 1.104169648655314878e-05
3.277638819409704638e+02 1.118431195760078848e-05
3.286643321660829997e+02 1.142042982791913647e-05
3.295647823911955925e+02 1.170605986442596326e-05
3.304652326163081284e+02 1.200403484309530142e-05
3.313656828414207212e+02 1.232157843884228515e-05
3.322661330665332571e+02 1.267962267461954318e-05
3.331665832916457930e+02 1.301183014100898834e-05
3.340670335167583858e+02 1.317201521344093006e-05
3.349674837418709217e+02 1.311599406001131670e-05
3.358679339669834576e+02 1.295254771417497429e-05
3.367683841920960504e+02 1.278934053936213145e-05
3.376688344172085863e+02 1.267469802756435317e-05
3.385692846423211222e+02 1.262012238817175540e-05
3.394697348674337150e+02 1.259707373951318654e-05
3.403701850925462509e+02 1.256503616823137286e-05
3.412706353176587868e+02 1.251582829273135050e-05
3.421710855427713796e+02 1.250491551310086570e-05
3.430715357678839155e+02 1.261071458043329735e-05
3.439719859929965082e+02 1.285362314970832629e-05
3.448724362181090441e+02 1.317722542364027413e-05
3.457728864432215801e+02 1.349219476796455744e-05
3.466733366683341728e+02 1.374193444163415873e-05
3.475737868934467087e+02 1.394531184558088228e-05
3.484742371185592447e+02 1.413557296626424485e-05
3.493746873436718374e+02 1.430560781929526761e-05
3.502751375687843733e+02 1.444618765366734831e-05
3.511755877938969093e+02 1.452861844894345337e-05
3.520760380190095020e+02 1.452369365730862295e-05
3.529764882441220379e+02 1.447681654156625148e-05
3.538769384692345739e+02 1.445365149815617956e-05
3.547773886943471666e+02 1.439136340989036431e-05
3.556778389194597025e+02 1.416284686059283190e-05
3.565782891445722953e+02 1.379607160282369977e-05
3.574787393696848312e+02 1.346111906920709044e-05
3.583791895947973671e+02 1.327668093876765365e-05
3.592796398199099599e+02 1.325425256703352459e-05
3.601800900450224958e+02 1.335566312874505268e-05
3.610805402701350317e+02 1.355495782602198213e-05
3.619809904952476245e+02 1.380349952619594523e-05
3.628814407203601604e+02 1.397640519350159790e-05
3.637818909454726963e+02 1.396656538105665372e-05
3.646823411705852891e+02 1.379317234512275993e-05
3.655827913956978250e+02 1.357586189449772244e-05
3.664832416208103609e+02 1.344406962684566784e-05
3.673836918459229537e+02 1.343929603864627221e-05
3.682841420710354896e+02 1.350769607035843449e-05
3.691845922961480824e+02 1.357160252727057892e-05
3.700850425212606183e+02 1.362279957345450208e-05
3.709854927463731542e+02 1.372861309613955229e-05
3.718859429714857470e+02 1.392818662662553498e-05
3.727863931965982829e+02 1.418610149512126000e-05
3.736868434217108188e+02 1.446307166501229520e-05
3.745872936468234116e+02 1.476719576923390396e-05
3.754877438719359475e+02 1.507532744395792314e-05
3.763881940970484834e+02 1.531778512524283360e-05
3.772886443221610762e+02 1.548839126989432725e-05
3.781890945472736121e+02 1.566448288944622435e-05
3.790895447723861480e+02 1.591513923278630016e-05
3.799899949974987408e+02 1.619527759660006802e-05
3.808904452226112767e+02 1.634870634360577053e-05
3.817908954477238694e+02 1.624599685673359110e-05
3.826913456728364054e+02 1.595488775027457774e-05
3.835917958979489413e+02 1.564593550744176976e-05
3.844922461230615340e+02 1.539849041284990395e-05
3.853926963481740700e+02 1.523555369488215710e-05
3.862931465732866059e+02 1.516635367285252494e-05
3.871935967983991986e+02 1.521031219575278885e-05
3.880940470235117346e+02 1.539187069900799565e-05
3.889944972486242705e+02 1.570518521847128697e-05
3.898949474737368632e+02 1.609522965412543273e-05
3.907953976988493991e+02 1.647963247553450988e-05
3.916958479239619351e+02 1.681237708281783217e-05
3.925962981490745278e+02 1.711977015739838927e-05
3.934967483741870637e+02 1.742895400875620935e-05
3.943971985992996565e+02 1.768775113693261977e-05
3.952976488244121924e+02 1.780545962496316720e-05
3.961980990495247283e+02 1.774662054180000179e-05
3.970985492746373211e+02 1.752976090670367403e-05
3.979989994997498570e+02 1.719861130146557355e-05
3.988994497248623929e+02 1.686507567406390711e-05
3.997998999499749857e+02 1.665507845524187818e-05
4.007003501750875216e+02 1.665976705641270163e-05
4.016008004002000575e+02 1.689655040052082002e-05
4.025012506253126503e+02 1.727267680305206844e-05
4.034017008504251862e+02 1.764064879994520303e-05
4.043021510755377221e+02 1.794826917718473117e-05
4.052026013006503149e+02 1.826183818327230450e-05
4.061030515257628508e+02 1.857478579873697114e-05
4.070035017508754436e+02 1.878299837432589658e-05
4.079039519759879795e+02 1.883040003702086092e-05
4.088044022011005154e+02 1.873693484164980533e-05
4.097048524262131082e+02 1.860626240581633557e-05
4.106053026513256441e+02 1.856074216798244745e-05
4.115057528764381800e+02 1.866538663538565236e-05
4.124062031015507728e+02 1.891622811747806251e-05
4.133066533266633087e+02 1.920672459621938251e-05
4.142071035517758446e+02 1.939637018415076399e-05
4.151075537768884374e+02 1.944592672235214440e-05
4.160080040020009733e+02 1.945078349678042951e-05
4.169084542271135092e+02 1.951901879406117018e-05
4.178089044522261020e+02 1.969676682123422902e-05
4.187093546773386379e+02 1.999173359064631032e-05
4.196098049024512306e+02 2.036098324472638258e-05
4.205102551275637666e+02 2.072386354755638028e-05
4.214107053526763025e+02 2.100517516081166653e-05
4.223111555777888952e+02 2.117754827607922161e-05
4.232116058029014312e+02 2.127076463615791633e-05
4.241120560280139671e+02 2.128612898898255305e-05
4.250125062531265598e+02 2.121077848972456687e-05
4.259129564782390958e+02 2.108146256248138748e-05
4.268134067033516317e+02 2.096508811827283071e-05
4.277138569284642244e+02 2.094335448547288584e-05
4.286143071535767604e+02 2.106290859202912460e-05
4.295147573786892963e+02 2.128658023845870999e-05
4.304152076038018890e+02 2.151520130051139563e-05
4.313156578289144250e+02 2.167540188799368378e-05
4.322161080540270177e+02 2.177153497121815477e-05
4.331165582791395536e+02 2.182969033519882633e-05
4.340170085042520896e+02 2.184194001647458868e-05
4.349174587293646823e+02 2.176584653426517433e-05
4.358179089544772182e+02 2.160737222594017305e-05
4.367183591795897541e+02 2.147526995023725020e-05
4.376188094047023469e+02 2.146101133193167328e-05
4.385192596298148828e+02 2.157420874438864032e-05
4.394197098549274187e+02 2.177316380429907352e-05
4.403201600800400115e+02 2.198871986376402013e-05
4.412206103051525474e+02 2.219791437705536256e-05
4.421210605302650833e+02 2.243798499573645960e-05
4.430215107553776761e+02 2.274682159316724700e-05
4.439219609804902120e+02 2.311801340190861923e-05
4.448224112056028048e+02 2.352774506300507346e-05
4.457228614307153407e+02 2.392295017227406809e-05
4.466233116558278766e+02 2.424544438606201537e-05
4.475237618809404694e+02 2.450028923942965440e-05
4.484242121060530053e+02 2.468971390552726451e-05
4.493246623311655412e+02 2.474289364656170304e-05
4.502251125562781340e+02 2.464063522053090447e-05
4.511255627813906699e+02 2.450684253083099993e-05
4.520260130065032058e+02 2.447657740696212184e-05
4.529264632316157986e+02 2.455409765841237531e-05
4.538269134567283345e+02 2.465093604421285986e-05
4.547273636818408704e+02 2.468535578121631147e-05
4.556278139069534632e+02 2.460138050948891840e-05
4.565282641320659991e+02 2.438100229282281486e-05
4.574287143571785919e+02 2.412084446013138526e-05
4.583291645822911278e+02 2.402129817940857581e-05
4.592296148074036637e+02 2.421291994139076605e-05
4.601300650325162565e+02 2.464840737796171545e-05
4.610305152576287924e+02 2.514218889710987572e-05
4.619309654827413283e+02 2.552008158076359801e-05
4.628314157078539210e+02 2.569595087233605334e-05
4.637318659329664570e+02 2.569838801377373995e-05
4.646323161580789929e+02 2.568971642794519840e-05
4.655327663831915856e+02 2.578883240104533364e-05
4.664332166083041216e+02 2.594571585193128355e-05
4.673336668334167143e+02 2.606305766883309559e-05
4.682341170585292502e+02 2.613532002293346280e-05
4.691345672836417862e+02 2.619107869055943333e-05
4.700350175087543789e+02 2.621442791773971181e-05
4.709354677338669148e+02 2.619949857245157439e-05
4.718359179589794508e+02 2.616840137706475763e-05
4.727363681840920435e+02 2.613363108082234707e-05
4.736368184092045794e+02 2.610894393259732650e-05
4.745372686343171154e+02 2.610335977409302180e-05
4.754377188594297081e+02 2.610303007754379890e-05
4.763381690845422440e+02 2.608981569072262881e-05
4.772386193096547800e+02 2.604522254076462354e-05
4.781390695347673727e+02 2.598113314827586986e-05
4.790395197598799086e+02 2.591571819520975664e-05
4.799399699849925014e+02 2.592145843378014890e-05
4.808404202101050373e+02 2.613425178929124396e-05
4.817408704352175732e+02 2.653395522570545825e-05
4.826413206603301660e+02 2.693481959275231512e-05
4.835417708854427019e+02 2.719321615110397561e-05
4.844422211105552378e+02 2.734540641717722538e-05
4.853426713356678306e+02 2.752081019219983934e-05
4.862431215607803665e+02 2.773531645492445768e-05
4.871435717858929024e+02 2.789703314297898294e-05
4.880440220110054952e+02 2.794322194079701898e-05
4.889444722361180311e+02 2.793618892817044923e-05
4.898449224612305670e+02 2.798806087920266685e-05
4.907453726863431598e+02 2.811555699147830103e-05
4.916458229114556957e+02 2.824766481954575111e-05
4.925462731365682885e+02 2.834023541816915045e-05
4.934467233616808244e+02 2.840709944621059546e-05
4.943471735867933603e+02 2.851272929647585819e-05
4.952476238119059531e+02 2.876014938843278571e-05
4.961480740370184890e+02 2.918225528221851702e-05
4.970485242621310249e+02 2.968006992178449170e-05
4.979489744872436177e+02 3.014189667098469039e-05
4.988494247123561536e+02 3.054859414486048042e-05
4.997498749374686895e+02 3.090794792710700826e-05
5.006503251625812823e+02 3.121095858566691293e-05
5.015507753876938182e+02 3.140280924184738978e-05
5.024512256128063541e+02 3.138378224114894520e-05
5.033516758379189469e+02 3.119953832514734142e-05
5.042521260630314828e+02 3.101698422567157382e-05
5.051525762881440755e+02 3.086540233783326658e-05
5.060530265132566115e+02 3.065440042665174486e-05
5.069534767383691474e+02 3.040870565473356048e-05
5.078539269634817401e+02 3.027814125515143265e-05
5.087543771885942760e+02 3.036653558459243691e-05
5.096548274137068120e+02 3.065282135372451270e-05
5.105552776388194047e+02 3.102915226161757732e-05
5.114557278639319406e+02 3.134392140616001026e-05
5.123561780890445334e+02 3.147699442130273668e-05
5.132566283141570693e+02 3.140476324663254163e-05
5.141570785392696052e+02 3.125723840478853463e-05
5.150575287643821412e+02 3.125014344062014760e-05
5.159579789894946771e+02 3.142758210702517553e-05
5.168584292146073267e+02 3.169646348853146596e-05
5.177588794397198626e+02 3.201783149296125088e-05
5.186593296648323985e+02 3.240824036061837034e-05
5.195597798899449344e+02 3.287214048488568710e-05
5.204602301150574704e+02 3.329774337466156038e-05
5.213606803401700063e+02 3.354015439821333148e-05
5.222611305652826559e+02 3.360999595835231915e-05
5.231615807903951918e+02 3.365265374462638809e-05
5.240620310155077277e+02 3.379323820146586924e-05
5.249624812406202636e+02 3.404196503089994616e-05
5.258629314657327996e+02 3.431251961278400619e-05
5.267633816908454492e+02 3.457829469398388287e-05
5.276638319159579851e+02 3.494051432958888195e-05
5.285642821410705210e+02 3.544628205329713300e-05
5.294647323661830569e+02 3.600995670959623618e-05
5.303651825912955928e+02 3.659980818574035610e-05
5.312656328164081287e+02 3.728387738558999845e-05
5.321660830415207784e+02 3.813033983558115312e-05
5.330665332666333143e+02 3.910045074924749226e-05
5.339669834917458502e+02 4.000488235518995570e-05
5.348674337168583861e+02 4.065267083224368002e-05
5.357678839419709220e+02 4.107751437775747626e-05
5.366683341670835716e+02 4.152223886301237721e-05
5.375687843921961075e+02 4.216007483506472269e-05
5.384692346173086435e+02 4.301132089355640201e-05
5.393696848424211794e+02 4.401828529137236513e-05
5.402701350675337153e+02 4.500689686761348980e-05
5.411705852926462512e+02 4.576907524131570922e-05
5.420710355177589008e+02 4.632247353393901092e-05
5.429714857428714367e+02 4.689162281366455554e-05
5.438719359679839727e+02 4.761622196661661560e-05
5.447723861930965086e+02 4.843572642438625337e-05
5.456728364182090445e+02 4.931192346096204606e-05
5.465732866433215804e+02 5.032780526339447982e-05
5.474737368684342300e+02 5.143994238311304623e-05
5.483741870935467659e+02 5.240219434540039972e-05
5.492746373186593019e+02 5.301706924860725273e-05
5.501750875437718378e+02 5.327552600765652008e-05
5.510755377688843737e+02 5.331185574819609856e-05
5.519759879939970233e+02 5.334217717014143735e-05
5.528764382191095592e+02 5.353581998623765736e-05
5.537768884442220951e+02 5.392940827772968346e-05
5.546773386693346310e+02 5.448495308710290082e-05
5.555777888944471670e+02 5.509430574827824909e-05
5.564782391195597029e+02 5.571633218684243880e-05
5.573786893446723525e+02 5.651964485246478703e-05
5.582791395697848884e+02 5.764956569381902095e-05
5.591795897948974243e+02 5.892937654785253444e-05
5.600800400200099602e+02 6.000800184185809246e-05
5.609804902451224962e+02 6.072087882178269500e-05
5.618809404702351458e+02 6.111078777284558914e-05
5.627813906953476817e+02 6.133406884849255979e-05
5.636818409204602176e+02 6.150857352310477530e-05
5.645822911455727535e+02 6.145321364072519666e-05
5.654827413706852894e+02 6.097439065401270841e-05
5.663831915957978254e+02 6.024135467108009730e-05
5.672836418209104750e+02 5.956963289040926788e-05
5.681840920460230109e+02 5.911874992050699848e-05
5.690845422711355468e+02 5.883842302958600557e-05
5.699849924962480827e+02 5.868446258522989618e-05
5.708854427213606186e+02 5.863859068896773994e-05
5.717858929464731546e+02 5.863595473077497136e-05
5.726863431715858042e+02 5.875665535770381912e-05
5.735867933966983401e+02 5.910238405321355205e-05
5.744872436218108760e+02 5.960194694412481223e-05
5.753876938469234119e+02 6.013028846637598476e-05
5.762881440720359478e+02 6.063368729680829969e-05
5.771885942971485974e+02 6.097456624913779835e-05
5.780890445222611334e+02 6.096127363088795533e-05
5.789894947473736693e+02 6.073650812663691323e-05
5.798899449724862052e+02 6.073908647224494852e-05
5.807903951975987411e+02 6.119764787600865037e-05
5.816908454227112770e+02 6.193557718788274377e-05
5.825912956478239266e+02 6.264372875918945867e-05
5.834917458729364625e+02 6.310554132593584507e-05
5.843921960980489985e+02 6.320973657955129691e-05
5.852926463231615344e+02 6.298266695930667270e-05
5.861930965482740703e+02 6.245409203763419600e-05
5.870935467733867199e+02 6.164468850883456183e-05
5.879939969984992558e+02 6.065762725710191011e-05
5.888944472236117917e+02 5.960074831944953621e-05
5.897948974487243277e+02 5.861709104533613097e-05
5.906953476738368636e+02 5.798265642613584779e-05
5.915957978989493995e+02 5.795762289244590286e-05
5.924962481240620491e+02 5.854827139578043109e-05
5.933966983491745850e+02 5.944514107664430810e-05
5.942971485742871209e+02 6.024777967778193941e-05
5.951975987993996569e+02 6.077437996595097368e-05
5.960980490245121928e+02 6.111778591567069529e-05
5.969984992496247287e+02 6.152144590834632157e-05
5.978989494747373783e+02 6.222690988449603214e-05
5.987993996998499142e+02 6.331937630530906505e-05
5.996998499249624501e+02 6.467872845963539290e-05
6.006003001500749860e+02 6.610331920476114815e-05
6.015007503751875220e+02 6.746692540689225043e-05
6.024012006003001716e+02 6.881763827004059577e-05
6.033016508254127075e+02 7.025901004980525952e-05
6.042021010505252434e+02 7.158675559301532257e-05
6.051025512756377793e+02 7.245652754051875460e-05
6.060030015007503152e+02 7.275357816127860425e-05
6.069034517258628512e+02 7.260337314089362708e-05
6.078039019509755008e+02 7.223980359369790237e-05
6.087043521760880367e+02 7.196732917931607254e-05
6.096048024012005726e+02 7.190741759949594578e-05
6.105052526263131085e+02 7.179770714147472039e-05
6.114057028514256444e+02 7.142358497290546651e-05
6.123061530765382940e+02 7.077148537265122755e-05
6.132066033016508300e+02 6.983363763002680216e-05
6.141070535267633659e+02 6.874421903040533544e-05
6.150075037518759018e+02 6.776087074277901566e-05
6.159079539769884377e+02 6.709986111222228833e-05
6.168084042021009736e+02 6.684554157007170769e-05
6.177088544272136232e+02 6.701586246844743041e-05
6.186093046523261592e+02 6.761553672854582659e-05
6.195097548774386951e+02 6.840600528954398523e-05
6.204102051025512310e+02 6.899119092495140343e-05
6.213106553276637669e+02 6.924355669441569112e-05
6.222111055527763028e+02 6.935700598826861733e-05
6.231115557778889524e+02 6.948799457435358659e-05
6.240120060030014884e+02 6.946409445632955573e-05
6.249124562281140243e+02 6.912303862481273479e-05
6.258129064532265602e+02 6.857640011237723288e-05
6.267133566783390961e+02 6.802475724307611657e-05
6.276138069034517457e+02 6.761138848069192433e-05
6.285142571285642816e+02 6.740013970959332569e-05
6.294147073536768175e+02 6.751228416613426768e-05
6.303151575787893535e+02 6.794982629468203285e-05
6.312156078039018894e+02 6.846951108547032953e-05
6.321160580290144253e+02 6.889258492520418267e-05
6.330165082541270749e+02 6.917373544957284746e-05
6.339169584792396108e+02 6.925432808512719260e-05
6.348174087043521467e+02 6.911014548162986999e-05
6.357178589294646827e+02 6.888975563220246356e-05
6.366183091545772186e+02 6.870966784291362972e-05
6.375187593796898682e+02 6.850812168058954300e-05
6.384192096048024041e+02 6.836948934334044785e-05
6.393196598299149400e+02 6.847779036467263689e-05
6.402201100550274759e+02 6.887318298016283059e-05
6.411205602801400119e+02 6.956800731213992964e-05
6.420210105052525478e+02 7.032947616023355378e-05
6.429214607303651974e+02 7.062429952289297228e-05
6.438219109554777333e+02 7.027671463519844614e-05
6.447223611805902692e+02 6.963430009634625562e-05
6.456228114057028051e+02 6.896908711843037249e-05
6.465232616308153411e+02 6.811822345276474224e-05
6.474237118559278770e+02 6.682555820205502491e-05
6.483241620810405266e+02 6.523877704524974684e-05
6.492246123061530625e+02 6.385117356987270361e-05
6.501250625312655984e+02 6.294192359209367974e-05
6.510255127563781343e+02 6.241426614273391164e-05
6.519259629814906702e+02 6.222515422535402632e-05
6.528264132066033198e+02 6.244424922550015540e-05
6.537268634317158558e+02 6.292794242859527565e-05
6.546273136568283917e+02 6.334701985864385173e-05
6.555277638819409276e+02 6.353860662815896101e-05
6.564282141070534635e+02 6.350074395645743150e-05
6.573286643321659994e+02 6.324076710821514965e-05
6.582291145572786490e+02 6.283500144682396078e-05
6.591295647823911850e+02 6.238524008817412036e-05
6.600300150075037209e+02 6.198764965401209223e-05
6.609304652326162568e+02 6.170726390794989327e-05
6.618309154577287927e+02 6.150525415245011772e-05
6.627313656828414423e+02 6.127325205796356608e-05
6.636318159079539782e+02 6.112920014313874670e-05
6.645322661330665142e+02 6.137977330967928167e-05
6.654327163581790501e+02 6.209873254482876589e-05
6.663331665832915860e+02 6.291006373264648548e-05
6.672336168084041219e+02 6.325843914185768041e-05
6.681340670335167715e+02 6.291287803604767427e-05
6.690345172586293074e+02 6.215196049881073102e-05
6.699349674837418434e+02 6.144749691057916805e-05
6.708354177088543793e+02 6.093745340304638629e-05
6.717358679339669152e+02 6.045285554095363654e-05
6.726363181590794511e+02 5.999713786859600369e-05
6.735367683841921007e+02 5.974799809671464110e-05
6.744372186093046366e+02 5.971789973156124530e-05
6.753376688344171725e+02 5.980200907982098223e-05
6.762381190595297085e+02 5.992032631648421204e-05
6.771385692846422444e+02 6.000339972613907830e-05
6.780390195097548940e+02 6.017469256235383695e-05
6.789394697348674299e+02 6.063059921138995277e-05
6.798399199599799658e+02 6.110698686364480624e-05
6.807403701850925017e+02 6.101481395761890533e-05
6.816408204102050377e+02 6.015876593911663147e-05
6.825412706353175736e+02 5.892838764490618069e-05
6.834417208604302232e+02 5.778351799719331485e-05
6.843421710855427591e+02 5.687906504434525785e-05
6.852426213106552950e+02 5.616986179507231318e-05
6.861430715357678309e+02 5.554511010831079265e-05
6.870435217608803669e+02 5.496499630372509197e-05
6.879439719859930165e+02 5.447151541968111134e-05
6.888444222111055524e+02 5.405582621193893555e-05
6.897448724362180883e+02 5.364530915704842360e-05
6.906453226613306242e+02 5.317155142827855748e-05
6.915457728864431601e+02 5.261482657395695278e-05
6.924462231115556961e+02 5.197245843719812517e-05
6.933466733366683457e+02 5.128570944835074836e-05
6.942471235617808816e+02 5.069175785549949264e-05
6.951475737868934175e+02 5.038119532250485142e-05
6.960480240120059534e+02 5.039993800054367554e-05
6.969484742371184893e+02 5.061753879450019941e-05
6.978489244622311389e+02 5.078800259949610760e-05
6.987493746873436749e+02 5.074291462102652184e-05
6.996498249124562108e+02 5.046384180910219020e-05
7.005502751375687467e+02 4.989861466423947158e-05
7.014507253626812826e+02 4.902113825681886621e-05
7.023511755877938185e+02 4.797442612923807508e-05
7.032516258129064681e+02 4.696982763487121036e-05
7.041520760380190040e+02 4.605096259386122942e-05
7.050525262631315400e+02 4.520165237014420249e-05
7.059529764882440759e+02 4.452102638439485487e-05
7.068534267133566118e+02 4.407489124637304034e-05
7.077538769384691477e+02 4.376332537400440611e-05
7.086543271635817973e+02 4.339484133559564510e-05
7.095547773886943332e+02 4.286654363618462501e-05
7.104552276138068692e+02 4.225375083277220750e-05
7.113556778389194051e+02 4.163428839176327111e-05
7.122561280640319410e+02 4.100803557139901412e-05
7.131565782891445906e+02 4.042402767916600459e-05
7.140570285142571265e+02 3.998001464211594995e-05
7.149574787393696624e+02 3.969810651308482917e-05
7.158579289644821984e+02 3.948706647677965067e-05
7.167583791895947343e+02 3.930019103120005437e-05
7.176588294147072702e+02 3.921013638851918409e-05
7.185592796398199198e+02 3.927383771259977002e-05
7.194597298649324557e+02 3.948281692392788359e-05
7.203601800900449916e+02 3.974496324796567513e-05
7.212606303151575275e+02 3.989609448795781462e-05
7.221610805402700635e+02 3.990690318730799103e-05
7.230615307653827131e+02 3.990923040928915538e-05
7.239619809904952490e+02 3.983883697658762650e-05
7.248624312156077849e+02 3.951138448340572006e-05
7.257628814407203208e+02 3.901257515073421376e-05
7.266633316658328567e+02 3.856820447431944855e-05
7.275637818909453927e+02 3.821665207204167502e-05
7.284642321160580423e+02 3.782335348797555811e-05
7.293646823411705782e+02 3.731772546659962395e-05
7.302651325662831141e+02 3.684378997630694398e-05
7.311655827913956500e+02 3.659318465381720709e-05
7.320660330165081859e+02 3.661713826930171426e-05
7.329664832416207219e+02 3.678743861598631685e-05
7.338669334667333715e+02 3.687344820388328647e-05
7.347673836918459074e+02 3.670367471851282231e-05
7.356678339169584433e+02 3.634311569842642623e-05
7.365682841420709792e+02 3.598326701332126134e-05
7.374687343671835151e+02 3.567907631349200612e-05
7.383691845922961647e+02 3.539873219973902016e-05
7.392696348174087007e+02 3.513662262020474596e-05
7.401700850425212366e+02 3.492166292804228805e-05
7.410705352676337725e+02 3.477279536753485304e-05
7.419709854927463084e+02 3.465200904031680068e-05
7.428714357178588443e+02 3.460669778114997957e-05
7.437718859429714939e+02 3.470226634385644874e-05
7.446723361680840299e+02 3.476750599953362891e-05
7.455727863931965658e+02 3.455384721364949502e-05
7.464732366183091017e+02 3.405664201006467932e-05
7.473736868434216376e+02 3.347590404676797557e-05
7.482741370685342872e+02 3.301825720507957617e-05
7.491745872936468231e+02 3.284714799577849345e-05
7.500750375187593590e+02 3.300913752487230396e-05
7.509754877438718950e+02 3.338843980859949173e-05
7.518759379689844309e+02 3.377768823629583332e-05
7.527763881940969668e+02 3.405188684898945113e-05
7.536768384192096164e+02 3.424861092864434477e-05
7.545772886443221523e+02 3.439978835170044914e-05
7.554777388694346882e+02 3.438807739484306739e-05
7.563781890945472242e+02 3.406655009899570852e-05
7.572786393196597601e+02 3.343957765261089437e-05
7.581790895447722960e+02 3.263876982845046587e-05
7.590795397698849456e+02 3.180738450823268322e-05
7.599799899949974815e+02 3.105116006932909348e-05
7.608804402201100174e+02 3.040244532745127064e-05
7.617808904452225534e+02 2.985336357411380874e-05
7.626813406703350893e+02 2.940212697176106143e-05
7.635817908954477389e+02 2.907410908989920960e-05
7.644822411205602748e+02 2.883076470102916326e-05
7.653826913456728107e+02 2.858438749900877774e-05
7.662831415707853466e+02 2.832670346253093915e-05
7.671835917958978825e+02 2.809099614063292254e-05
7.680840420210104185e+02 2.785162774219163731e-05
7.689844922461230681e+02 2.756535204476824667e-05
7.698849424712356040e+02 2.726731367773476908e-05
7.707853926963481399e+02 2.705611655016581615e-05
7.716858429214606758e+02 2.703552270053951969e-05
7.725862931465732117e+02 2.725611812638670836e-05
7.734867433716858613e+02 2.767131535932839637e-05
7.743871935967983973e+02 2.809159986846509441e-05
7.752876438219109332e+02 2.828327062029201762e-05
7.761880940470234691e+02 2.819480301855013473e-05
7.770885442721360050e+02 2.797085974179150370e-05
7.779889944972485409e+02 2.775862396151133904e-05
7.788894447223611905e+02 2.766167131305979313e-05
7.797898949474737265e+02 2.776413237757213422e-05
7.806903451725862624e+02 2.804668265267232783e-05
7.815907953976987983e+02 2.837795035539322704e-05
7.824912456228113342e+02 2.861288496689802770e-05
7.833916958479238701e+02 2.864792451506923887e-05
7.842921460730365197e+02 2.848846242788303295e-05
7.851925962981490557e+02 2.824967602316871867e-05
7.860930465232615916e+02 2.802100050707304318e-05
7.869934967483741275e+02 2.783622202599894761e-05
7.878939469734866634e+02 2.767869495429764898e-05
7.887943971985993130e+02 2.754376127009699622e-05
7.896948474237118489e+02 2.745090273894715608e-05
7.905952976488243849e+02 2.734567269198710839e-05
7.914957478739369208e+02 2.714866028762435247e-05
7.923961980990494567e+02 2.685700899642415399e-05
7.932966483241619926e+02 2.652544656810976924e-05
7.941970985492746422e+02 2.622749877708421471e-05
7.950975487743871781e+02 2.599098528520597611e-05
7.959979989994997140e+02 2.579619367189594237e-05
7.968984492246122500e+02 2.559733154268012593e-05
7.977988994497247859e+02 2.528776267451637952e-05
7.986993496748374355e+02 2.480982225764037617e-05
7.995997998999499714e+02 2.428544247637115454e-05
8.005002501250625073e+02 2.392677835128043578e-05
8.014007003501750432e+02 2.384754852915836140e-05
8.023011505752875792e+02 2.397465465382765952e-05
8.032016008004001151e+02 2.420437558324694136e-05
8.041020510255127647e+02 2.453342271982715008e-05
8.050025012506253006e+02 2.492481991262998501e-05
8.059029514757378365e+02 2.521803946319376843e-05
8.068034017008503724e+02 2.530581478059849894e-05
8.077038519259629084e+02 2.520598101952675583e-05
8.086043021510754443e+02 2.500647213562852007e-05
8.095047523761880939e+02 2.482207146853333531e-05
8.104052026013006298e+02 2.470199763185943305e-05
8.113056528264131657e+02 2.460933560040983221e-05
8.122061030515257016e+02 2.447795338631393941e-05
8.131065532766382375e+02 2.427742764535876257e-05
8.140070035017508872e+02 2.402788075782779040e-05
8.149074537268634231e+02 2.379701933515801623e-05
8.158079039519759590e+02 2.365038063139172342e-05
8.167083541770884949e+02 2.360955706511304637e-05
8.176088044022010308e+02 2.368662196413205581e-05
8.185092546273135667e+02 2.385566120805199939e-05
8.194097048524262163e+02 2.402320288582805857e-05
8.203101550775387523e+02 2.413193346528911510e-05
8.212106053026512882e+02 2.418325539024939312e-05
8.221110555277638241e+02 2.419696076136079201e-05
8.230115057528763600e+02 2.419347759965324987e-05
8.239119559779890096e+02 2.411479586491662279e-05
8.248124062031015455e+02 2.387109081840996434e-05
8.257128564282140815e+02 2.348040218155593046e-05
8.266133066533266174e+02 2.309513409494051275e-05
8.275137568784391533e+02 2.286585971851178630e-05
8.284142071035516892e+02 2.285001059114308817e-05
8.293146573286643388e+02 2.304626321900792610e-05
8.302151075537768747e+02 2.343320077976803942e-05
8.311155577788894107e+02 2.391447797477198355e-05
8.320160080040019466e+02 2.428828284681089244e-05
8.329164582291144825e+02 2.438778137549148280e-05
8.338169084542270184e+02 2.425769852381411693e-05
8.347173586793396680e+02 2.412065305274781033e-05
8.356178089044522039e+02 2.414946304179010371e-05
8.365182591295647399e+02 2.437557884234241830e-05
8.374187093546772758e+02 2.472923284865151324e-05
8.383191595797898117e+02 2.511877754377781630e-05
8.392196098049024613e+02 2.546484344781877875e-05
8.401200600300149972e+02 2.570251172003280827e-05
8.410205102551275331e+02 2.577929418612335649e-05
8.419209604802400690e+02 2.570996899201875551e-05
8.428214107053526050e+02 2.556066861609491639e-05
8.437218609304651409e+02 2.537010158048656178e-05
8.446223111555777905e+02 2.516596874292377373e-05
8.455227613806903264e+02 2.495969709486284103e-05
8.464232116058028623e+02 2.479327528305238696e-05
8.473236618309153982e+02 2.475106977862604070e-05
8.482241120560279342e+02 2.483300866209032289e-05
8.491245622811405838e+02 2.495487608651456786e-05
8.500250125062531197e+02 2.509416611746101127e-05
8.509254627313656556e+02 2.529158230966667455e-05
8.518259129564781915e+02 2.554787842048383102e-05
8.527263631815907274e+02 2.587516397137447485e-05
8.536268134067032634e+02 2.634424717051074045e-05
8.545272636318159130e+02 2.692901843662457792e-05
8.554277138569284489e+02 2.747886853148833050e-05
8.563281640820409848e+02 2.783046805384538274e-05
8.572286143071535207e+02 2.791873285436808833e-05
8.581290645322660566e+02 2.784816923964137286e-05
8.590295147573785925e+02 2.779860832653309208e-05
8.599299649824912422e+02 2.781879326149719008e-05
8.608304152076037781e+02 2.776804473608332307e-05
8.617308654327163140e+02 2.754364915049608328e-05
8.626313156578288499e+02 2.723719372953723434e-05
8.635317658829413858e+02 2.697467307345451481e-05
8.644322161080540354e+02 2.678734131762831804e-05
8.653326663331665713e+02 2.673565391937426396e-05
8.662331165582791073e+02 2.688275293780219207e-05
8.671335667833916432e+02 2.715648881624544477e-05
8.680340170085041791e+02 2.744034526374807754e-05
8.689344672336167150e+02 2.770473988440874623e-05
8.698349174587293646e+02 2.799479850772865482e-05
8.707353676838419005e+02 2.836181483414719601e-05
8.716358179089544365e+02 2.878384233223362551e-05
8.725362681340669724e+02 2.915596869207452658e-05
8.734367183591795083e+02 2.935100137182070787e-05
8.743371685842921579e+02 2.929983627278541099e-05
8.752376188094046938e+02 2.908605491056095370e-05
8.761380690345172297e+02 2.890449217619611309e-05
8.770385192596297657e+02 2.888726845541600497e-05
8.779389694847423016e+02 2.900141220508008948e-05
8.788394197098548375e+02 2.913438527303397146e-05
8.797398699349674871e+02 2.926815565581749793e-05
8.806403201600800230e+02 2.944073512428480887e-05
8.815407703851925589e+02 2.965734877127431648e-05
8.824412206103050949e+02 2.994955667424916120e-05
8.833416708354176308e+02 3.030109613475055763e-05
8.842421210605301667e+02 3.058639815090995499e-05
8.851425712856428163e+02 3.074730246382099312e-05
8.860430215107553522e+02 3.086106337004867128e-05
8.869434717358678881e+02 3.097531112214761754e-05
8.878439219609804240e+02 3.108693333985525887e-05
8.887443721860929600e+02 3.117379582925846492e-05
8.896448224112056096e+02 3.126095343637590672e-05
8.905452726363181455e+02 3.146400227574740291e-05
8.914457228614306814e+02 3.183251737427038845e-05
8.923461730865432173e+02 3.227909105510893531e-05
8.932466233116557532e+02 3.276490206041966731e-05
8.941470735367682892e+02 3.335584087204878409e-05
8.950475237618809388e+02 3.400207420280281477e-05
8.959479739869934747e+02 3.454462051970033361e-05
8.968484242121060106e+02 3.489123456429211138e-05
8.977488744372185465e+02 3.505480362337278969e-05
8.986493246623310824e+02 3.515522035377569726e-05
8.995497748874437320e+02 3.529819396645598811e-05
9.004502251125562680e+02 3.543913144600822299e-05
9.013506753376688039e+02 3.554124653813052476e-05
9.022511255627813398e+02 3.569871932364373655e-05
9.031515757878938757e+02 3.598714901833516700e-05
9.040520260130064116e+02 3.643444113843389816e-05
9.049524762381190612e+02 3.708398626691890044e-05
9.058529264632315972e+02 3.788846561183995741e-05
9.067533766883441331e+02 3.870879884823538741e-05
9.076538269134566690e+02 3.944888725465557546e-05
9.085542771385692049e+02 4.010163940140764222e-05
9.094547273636817408e+02 4.076999907137124167e-05
9.103551775887943904e+02 4.153340609999936218e-05
9.112556278139069263e+02 4.229266841268271380e-05
9.121560780390194623e+02 4.290071668386678615e-05
9.130565282641319982e+02 4.333120304186381498e-05
9.139569784892445341e+02 4.368071259875688008e-05
9.148574287143571837e+02 4.413906964793252769e-05
9.157578789394697196e+02 4.479704855751660765e-05
9.166583291645822555e+02 4.546917350821240368e-05
9.175587793896947915e+02 4.600616845411214313e-05
9.184592296148073274e+02 4.663604071906300101e-05
9.193596798399198633e+02 4.765593036344615158e-05
9.202601300650325129e+02 4.893953537046108471e-05
9.211605802901450488e+02 5.010922361486565572e-05
9.220610305152575847e+02 5.100265760003899480e-05
9.229614807403701207e+02 5.170899718487298506e-05
9.238619309654826566e+02 5.235291493649526926e-05
9.247623811905953062e+02 5.290220089423167268e-05
9.256628314157078421e+02 5.328778384655850897e-05
9.265632816408203780e+02 5.353825807770107710e-05
9.274637318659329139e+02 5.366857334174396973e-05
9.283641820910454499e+02 5.366327124285967287e-05
9.292646323161579858e+02 5.365962928908143818e-05
9.301650825412706354e+02 5.380625808766315845e-05
9.310655327663831713e+02 5.413729558430263312e-05
9.319659829914957072e+02 5.461901832485132740e-05
9.328664332166082431e+02 5.508320452815741860e-05
9.337668834417207790e+02 5.547716634556044518e-05
9.346673336668334287e+02 5.605973684564142097e-05
9.355677838919459646e+02 5.709210109023683680e-05
9.364682341170585005e+02 5.860860526419121635e-05
9.373686843421710364e+02 6.038476530298666258e-05
9.382691345672835723e+02 6.209055931093449140e-05
9.391695847923961082e+02 6.349887321765109480e-05
9.400700350175087578e+02 6.467897671803431148e-05
9.409704852426212938e+02 6.588829339992134583e-05
9.418709354677338297e+02 6.728708681860004676e-05
9.427713856928463656e+02 6.891982805520648395e-05
9.436718359179589015e+02 7.055828507394460477e-05
9.445722861430714374e+02 7.177852600044289837e-05
9.454727363681840870e+02 7.252255975309367000e-05
9.463731865932966230e+02 7.311727270102755607e-05
9.472736368184091589e+02 7.375684098364256437e-05
9.481740870435216948e+02 7.440432171387135086e-05
9.490745372686342307e+02 7.499238987249983346e-05
9.499749874937468803e+02 7.542548010165682525e-05
9.508754377188594162e+02 7.567056948429172665e-05
9.517758879439719522e+02 7.581867511141963337e-05
9.526763381690844881e+02 7.615838813133895657e-05
9.535767883941970240e+02 7.695300631555941032e-05
9.544772386193095599e+02 7.802705121888365723e-05
9.553776888444222095e+02 7.901672790938592825e-05
9.562781390695347454e+02 7.991626143294104927e-05
9.571785892946472813e+02 8.081660253995726637e-05
9.580790395197598173e+02 8.164860257988726161e-05
9.589794897448723532e+02 8.238145773565895634e-05
9.598799399699850028e+02 8.312258721460206567e-05
9.607803901950975387e+02 8.413548457876252615e-05
9.616808404202100746e+02 8.557516165362279951e-05
9.625812906453226105e+02 8.738568380711992745e-05
9.634817408704351465e+02 8.941790847536472072e-05
9.643821910955476824e+02 9.148330601855642020e-05
9.652826413206603320e+02 9.354381818359175501e-05
9.661830915457728679e+02 9.577928300763156335e-05
9.670835417708854038e+02 9.831258772059487793e-05
9.679839919959979397e+02 1.009010787340112965e-04
9.688844422211104757e+02 1.033194418137165166e-04
9.697848924462230116e+02 1.057468357936252272e-04
9.706853426713356612e+02 1.080117002925545967e-04
9.715857928964481971e+02 1.092843623790392440e-04
9.724862431215607330e+02 1.090914661508569179e-04
9.733866933466732689e+02 1.079943777022057981e-04
9.742871435717858049e+02 1.067085973214768762e-04
9.751875937968984545e+02 1.055795122415729975e-04
9.760880440220109904e+02 1.049900215183832220e-04
9.769884942471235263e+02 1.053149651940694595e-04
9.778889444722360622e+02 1.066167200116306771e-04
9.787893946973485981e+02 1.085010628037883710e-04
9.796898449224611340e+02 1.100818491127678554e-04
9.805902951475737837e+02 1.107841326623894577e-04
9.814907453726863196e+02 1.107118425505624856e-04
9.823911955977988555e+02 1.103777069435115060e-04
9.832916458229113914e+02 1.105528590626595988e-04
9.841920960480239273e+02 1.116344934576925496e-04
9.850925462731365769e+02 1.132368604271417515e-04
9.859929964982491128e+02 1.148119654557784429e-04
9.868934467233616488e+02 1.163705095031173753e-04
9.877938969484741847e+02 1.182257241831694190e-04
9.886943471735867206e+02 1.204140885540138425e-04
9.895947973986992565e+02 1.228856159600028790e-04
9.904952476238119061e+02 1.257222277915282752e-04
9.913956978489244420e+02 1.289601540996305833e-04
9.922961480740369780e+02 1.323936220057106005e-04
9.931965982991495139e+02 1.354780836046372034e-04
9.940970485242620498e+02 1.380532791932326752e-04
9.949974987493745857e+02 1.408006237406727527e-04
9.958979489744872353e+02 1.445230092210220564e-04
9.967983991995997712e+02 1.490922511924228208e-04
9.976988494247123072e+02 1.534227344079999722e-04
9.985992996498248431e+02 1.566552352546215934e-04
9.994997498749373790e+02 1.587937624405486665e-04
1.000400200100050029e+03 1.604388529950978928e-04
1.001300650325162565e+03 1.622902639880829327e-04
1.002201100550275100e+03 1.647663884353803515e-04
1.003101550775387636e+03 1.678452094870246949e-04
1.004002001000500172e+03 1.715605300201570129e-04
1.004902451225612708e+03 1.760815764565885422e-04
1.005802901450725358e+03 1.810523601898106089e-04
1.006703351675837894e+03 1.857565598459401705e-04
1.007603801900950430e+03 1.897504106504070481e-04
1.008504252126062966e+03 1.927704671595160805e-04
1.009404702351175501e+03 1.948647903435698017e-04
1.010305152576288151e+03 1.967560630015737909e-04
1.011205602801400687e+03 1.992749831359905491e-04
1.012106053026513223e+03 2.027920712951781276e-04
1.013006503251625759e+03 2.073464031713309998e-04
1.013906953476738295e+03 2.124591449907806324e-04
1.014807403701850831e+03 2.173533449111828843e-04
1.015707853926963480e+03 2.218353480897908303e-04
1.016608304152076016e+03 2.264745048842851504e-04
1.017508754377188552e+03 2.319914148355276050e-04
1.018409204602301088e+03 2.386115669866204782e-04
1.019309654827413624e+03 2.460106019670691931e-04
1.020210105052526160e+03 2.538033803567113326e-04
1.021110555277638809e+03 2.614157377762920211e-04
1.022011005502751345e+03 2.680043333659864720e-04
1.022911455727863881e+03 2.735441184845105824e-04
1.023811905952976417e+03 2.784434261019978329e-04
1.024712356178089067e+03 2.833958012805404877e-04
1.025612806403201603e+03 2.895707516727223912e-04
1.026513256628314139e+03 2.976952457316950850e-04
1.027413706853426675e+03 3.076023981163234096e-04
1.028314157078539210e+03 3.179430230015179554e-04
1.029214607303651746e+03 3.267724858721888039e-04
1.030115057528764282e+03 3.327635573892447031e-04
1.031015507753876818e+03 3.357506137800667046e-04
1.031915957978989354e+03 3.369479437648608420e-04
1.032816408204101890e+03 3.384725121017628314e-04
1.033716858429214653e+03 3.415011803740061725e-04
1.034617308654327189e+03 3.456702443629225451e-04
1.035517758879439725e+03 3.510560557750023276e-04
1.036418209104552261e+03 3.585744986817111183e-04
1.037318659329664797e+03 3.685585312292250014e-04
1.038219109554777333e+03 3.799778213806139534e-04
1.039119559779889869e+03 3.912516417846794489e-04
1.040020010005002405e+03 4.014548560418867724e-04
1.040920460230114941e+03 4.104801757009027339e-04
1.041820910455227477e+03 4.190524837240519151e-04
1.042721360680340013e+03 4.275152451801258243e-04
1.043621810905452776e+03 4.355763733393692039e-04
1.044522261130565312e+03 4.434097459438345566e-04
1.045422711355677848e+03 4.520098807690504819e-04
1.046323161580790384e+03 4.627864333639264741e-04
1.047223611805902920e+03 4.764661438642232567e-04
1.048124062031015455e+03 4.916296801523417203e-04
1.049024512256127991e+03 5.061583024770834613e-04
1.049924962481240527e+03 5.196020824374732736e-04
1.050825412706353063e+03 5.328514466218043028e-04
1.051725862931465599e+03 5.465748131509422800e-04
1.052626313156578135e+03 5.603424590848531638e-04
1.053526763381690898e+03 5.725849519296001468e-04
1.054427213606803434e+03 5.822341714490021809e-04
1.055327663831915970e+03 5.898123912502366327e-04
1.056228114057028506e+03 5.961602232247699244e-04
1.057128564282141042e+03 6.015896444566533286e-04
1.058029014507253578e+03 6.066269340810003484e-04
1.058929464732366114e+03 6.115537393776198163e-04
1.059829914957478650e+03 6.167148550823546181e-04
1.060730365182591186e+03 6.221596179123966555e-04
1.061630815407703722e+03 6.271679093097905309e-04
1.062531265632816257e+03 6.316927331166912645e-04
1.063431715857929021e+03 6.371477253872563553e-04
1.064332166083041557e+03 6.445831125294687125e-04
1.065232616308154093e+03 6.524734961676013478e-04
1.066133066533266629e+03 6.583743493017216435e-04
1.067033516758379164e+03 6.611123889582029350e-04
1.067933966983491700e+03 6.600714635488878898e-04
1.068834417208604236e+03 6.550414102621409697e-04
1.069734867433716772e+03 6.476143413891665259e-04
1.070635317658829308e+03 6.401815639681045049e-04
1.071535767883941844e+03 6.349152653047173247e-04
1.072436218109054380e+03 6.328838187791973203e-04
1.073336668334167143e+03 6.339396721972644609e-04
1.074237118559279679e+03 6.379227287419131365e-04
1.075137568784392215e+03 6.430885537567741523e-04
1.076038019009504751e+03 6.452788666631134509e-04
1.076938469234617287e+03 6.411816277488480197e-04
1.077838919459729823e+03 6.323418796106635180e-04
1.078739369684842359e+03 6.230690179394382045e-04
1.079639819909954895e+03 6.153544896216649662e-04
1.080540270135067431e+03 6.092411358021488808e-04
1.081440720360179967e+03 6.051073131147018287e-04
1.082341170585292502e+03 6.025949707686356410e-04
1.083241620810405038e+03 6.016377746748967402e-04
1.084142071035517802e+03 6.039744354137699953e-04
1.085042521260630338e+03 6.103829756686776024e-04
1.085942971485742873e+03 6.193287545438792450e-04
1.086843421710855409e+03 6.300424464776768069e-04
1.087743871935967945e+03 6.425412751413118063e-04
1.088644322161080481e+03 6.548398786053452126e-04
1.089544772386193017e+03 6.639102802640560810e-04
1.090445222611305553e+03 6.682206458378276304e-04
1.091345672836418089e+03 6.677394022499738742e-04
1.092246123061530625e+03 6.618892377219881768e-04
1.093146573286643161e+03 6.511050465702025768e-04
1.094047023511755924e+03 6.384367015441138552e-04
1.094947473736868460e+03 6.275194655029074815e-04
1.095847923961980996e+03 6.186714198885543727e-04
1.096748374187093532e+03 6.084460937516229014e-04
1.097648824412206068e+03 5.957363457112325664e-04
1.098549274637318604e+03 5.829215572413264579e-04
1.099449724862431140e+03 5.702251108278886919e-04
1.100350175087543676e+03 5.560326422297483641e-04
1.101250625312656211e+03 5.406265123988363572e-04
1.102151075537768747e+03 5.259797652575536010e-04
1.103051525762881283e+03 5.141346194446375865e-04
1.103951975987994047e+03 5.045363776999694811e-04
1.104852426213106583e+03 4.943524648299050216e-04
1.105752876438219118e+03 4.804856603599002305e-04
1.106653326663331654e+03 4.622019800358035161e-04
1.107553776888444190e+03 4.433540526056703327e-04
1.108454227113556726e+03 4.270539838164304409e-04
1.109354677338669262e+03 4.120819019722907076e-04
1.110255127563781798e+03 3.974171736606670166e-04
1.111155577788894334e+03 3.838985357967951450e-04
1.112056028014006870e+03 3.709681051433905792e-04
1.112956478239119406e+03 3.567924491079613051e-04
1.113856928464232169e+03 3.418223404536546695e-04
1.114757378689344705e+03 3.277238054903695331e-04
1.115657828914457241e+03 3.151543603424761253e-04
1.116558279139569777e+03 3.049143613035029459e-04
1.117458729364682313e+03 2.969578078364355322e-04
1.118359179589794849e+03 2.903620172212615356e-04
1.119259629814907385e+03 2.847872707231800349e-04
1.120160080040019920e+03 2.800962428283560249e-04
1.121060530265132456e+03 2.757546784870725854e-04
1.121960980490244992e+03 2.713914185559516208e-04
1.122861430715357528e+03 2.662725037053512611e-04
1.123761880940470292e+03 2.593954491615074590e-04
1.124662331165582827e+03 2.507708476288628640e-04
1.125562781390695363e+03 2.408702164423508750e-04
1.126463231615807899e+03 2.298150414059212208e-04
1.127363681840920435e+03 2.178753256353755134e-04
1.128264132066032971e+03 2.061184939956977897e-04
1.129164582291145507e+03 1.961319971310976308e-04
1.130065032516258043e+03 1.890609318791272586e-04
1.130965482741370579e+03 1.846018032598271193e-04
1.131865932966483115e+03 1.808082804694253207e-04
1.132766383191595651e+03 1.757508476789168225e-04
1.133666833416708187e+03 1.690485808454621805e-04
1.134567283641820950e+03 1.615777892908837516e-04
1.135467733866933486e+03 1.546549935482220749e-04
1.136368184092046022e+03 1.495765317131742282e-04
1.137268634317158558e+03 1.465199632720580502e-04
1.138169084542271094e+03 1.443520449056329667e-04
1.139069534767383630e+03 1.420465683528467484e-04
1.139969984992496165e+03 1.391499954124341798e-04
1.140870435217608701e+03 1.352811819804942669e-04
1.141770885442721237e+03 1.304116267165700879e-04
1.142671335667833773e+03 1.252633567836532907e-04
1.143571785892946309e+03 1.203760587350500004e-04
1.144472236118059072e+03 1.156565008822395664e-04
1.145372686343171608e+03 1.109581483799737306e-04
1.146273136568284144e+03 1.060970300110445638e-04
1.147173586793396680e+03 1.010313004638537508e-04
1.148074037018509216e+03 9.606638549784567941e-05
1.148974487243621752e+03 9.151147045797192149e-05
1.149874937468734288e+03 8.756083603365834029e-05
1.150775387693846824e+03 8.438021028515075802e-05
1.151675837918959360e+03 8.210118683661171213e-05
1.152576288144071896e+03 8.074893615474166458e-05
1.153476738369184432e+03 8.005476015486650513e-05
1.154377188594297195e+03 7.966479400658177151e-05
1.155277638819409731e+03 7.946470550000907685e-05
1.156178089044522267e+03 7.955763946532140400e-05
1.157078539269634803e+03 8.012718875216224309e-05
1.157978989494747339e+03 8.126935988223985073e-05
1.158879439719859874e+03 8.283296065669530140e-05
1.159779889944972410e+03 8.440839963128582261e-05
1.160680340170084946e+03 8.577766196618175532e-05
1.161580790395197482e+03 8.711492478097523364e-05
1.162481240620310018e+03 8.857890571864952573e-05
1.163381690845422554e+03 9.020043158130156371e-05
1.164282141070535317e+03 9.195095587594111577e-05
1.165182591295647853e+03 9.358518149974342267e-05
1.166083041520760389e+03 9.484438833900129813e-05
1.166983491745872925e+03 9.595934491534249692e-05
1.167883941970985461e+03 9.724548843576025670e-05
1.168784392196097997e+03 9.865429209392316686e-05
1.169684842421210533e+03 1.000505077217432755e-04
1.170585292646323069e+03 1.014617752171592473e-04
1.171485742871435605e+03 1.030319377883990971e-04
1.172386193096548141e+03 1.047098825781745687e-04
1.173286643321660677e+03 1.061852099743839230e-04
1.174187093546773440e+03 1.075606979122170929e-04
1.175087543771885976e+03 1.091754631173183363e-04
1.175987993996998512e+03 1.109974913341779819e-04
1.176888444222111048e+03 1.130416452757363176e-04
1.177788894447223583e+03 1.156381105678183082e-04
1.178689344672336119e+03 1.189465674570789889e-04
1.179589794897448655e+03 1.228399434721927537e-04
1.180490245122561191e+03 1.270295591398880016e-04
1.181390695347673727e+03 1.311121511913066135e-04
1.182291145572786263e+03 1.350466800497531308e-04
1.183191595797898799e+03 1.396026020255665336e-04
1.184092046023011562e+03 1.453788658142130387e-04
1.184992496248124098e+03 1.512085853834976769e-04
1.185892946473236634e+03 1.547628053245506639e-04
1.186793396698349170e+03 1.551526126760567061e-04
1.187693846923461706e+03 1.540218642730971084e-04
1.188594297148574242e+03 1.536811259683931274e-04
1.189494747373686778e+03 1.551068615815498811e-04
1.190395197598799314e+03 1.576039053944552112e-04
1.191295647823911850e+03 1.599624202788573271e-04
1.192196098049024386e+03 1.616996041689118242e-04
1.193096548274136921e+03 1.634741094251612747e-04
1.193996998499249457e+03 1.661294819687014345e-04
1.194897448724362221e+03 1.696707681671680247e-04
1.195797898949474757e+03 1.734486578068747636e-04
1.196698349174587293e+03 1.770454764423252047e-04
1.197598799399699828e+03 1.804532940531468376e-04
1.198499249624812364e+03 1.837977192430856918e-04
1.199399699849924900e+03 1.876176251712000759e-04
1.200300150075037436e+03 1.924489804602419506e-04
1.201200600300149972e+03 1.980687041356640570e-04
1.202101050525262508e+03 2.038215302642278710e-04
1.203001500750375044e+03 2.092771924826435212e-04
1.203901950975487580e+03 2.143466930161014793e-04
1.204802401200600343e+03 2.191126703047409786e-04
1.205702851425712879e+03 2.231438413316264924e-04
1.206603301650825415e+03 2.254307668911580413e-04
1.207503751875937951e+03 2.256525127241653576e-04
1.208404202101050487e+03 2.245200082161716109e-04
1.209304652326163023e+03 2.229626316495817849e-04
1.210205102551275559e+03 2.219970470356638116e-04
1.211105552776388095e+03 2.225913344498144520e-04
1.212006003001500630e+03 2.248404075997506048e-04
1.212906453226613166e+03 2.277074894337309638e-04
1.213806903451725702e+03 2.300476919657969057e-04
1.214707353676838466e+03 2.317381415960574121e-04
1.215607803901951002e+03 2.334338804442220177e-04
1.216508254127063537e+03 2.358091205309094905e-04
1.217408704352176073e+03 2.395829828053002613e-04
1.218309154577288609e+03 2.454677972642035758e-04
1.219209604802401145e+03 2.540917850149092684e-04
1.220110055027513681e+03 2.646738058955159481e-04
1.221010505252626217e+03 2.754300121933341895e-04
1.221910955477738753e+03 2.865347400393892705e-04
1.222811405702851289e+03 2.996933723185546405e-04
1.223711855927963825e+03 3.155750162489723417e-04
1.224612306153076588e+03 3.327454817884755562e-04
1.225512756378189124e+03 3.488720652540947334e-04
1.226413206603301660e+03 3.629371771410544001e-04
1.227313656828414196e+03 3.766677573213123953e-04
1.228214107053526732e+03 3.926156301194008518e-04
1.229114557278639268e+03 4.112930223856633852e-04
1.230015007503751804e+03 4.317331378221733328e-04
1.230915457728864340e+03 4.523938597973160705e-04
1.231815907953976875e+03 4.719510979785579061e-04
1.232716358179089411e+03 4.901409376666431353e-04
1.233616808404201947e+03 5.067845260392348818e-04
1.234517258629314711e+03 5.217377106107302888e-04
1.235417708854427246e+03 5.357509053996955227e-04
1.236318159079539782e+03 5.494286393270741628e-04
1.237218609304652318e+03 5.630124545256579927e-04
1.238119059529764854e+03 5.768290666731292057e-04
1.239019509754877390e+03 5.907855748867002314e-04
1.239919959979989926e+03 6.046395002093853284e-04
1.240820410205102462e+03 6.181182605056144419e-04
1.241720860430214998e+03 6.311628294633998739e-04
1.242621310655327534e+03 6.444299981679077775e-04
1.243521760880440070e+03 6.585380126171313684e-04
1.244422211105552606e+03 6.723625250943448747e-04
1.245322661330665369e+03 6.841126694440464876e-04
1.246223111555777905e+03 6.935046552967218938e-04
1.247123561780890441e+03 7.011139153533915615e-04
1.248024012006002977e+03 7.071599518322937115e-04
1.248924462231115513e+03 7.117894923683819580e-04
1.249824912456228049e+03 7.156734684464118729e-04
1.250725362681340584e+03 7.198993118752188740e-04
1.251625812906453120e+03 7.249184696325076472e-04
1.252526263131565656e+03 7.293470531278930169e-04
1.253426713356678192e+03 7.314597354804030930e-04
1.254327163581790728e+03 7.313515878605591526e-04
1.255227613806903491e+03 7.306542664079306157e-04
1.256128064032016027e+03 7.306607353054608888e-04
1.257028514257128563e+03 7.318752163040923627e-04
1.257928964482241099e+03 7.360237085577862664e-04
1.258829414707353635e+03 7.449132813355215446e-04
1.259729864932466171e+03 7.575138328373035934e-04
1.260630315157578707e+03 7.709699247205706622e-04
1.261530765382691243e+03 7.831195180267580807e-04
1.262431215607803779e+03 7.930285746104922011e-04
1.263331665832916315e+03 8.009376536011144666e-04
1.264232116058028851e+03 8.079162158122863303e-04
1.265132566283141614e+03 8.145978324623677231e-04
1.266033016508254150e+03 8.213585186212284334e-04
1.266933466733366686e+03 8.285970903956255910e-04
1.267833916958479222e+03 8.368126873610772735e-04
1.268734367183591758e+03 8.466675402068095727e-04
1.269634817408704293e+03 8.583938007236442290e-04
1.270535267633816829e+03 8.724801179148973778e-04
1.271435717858929365e+03 8.890399879089551588e-04
1.272336168084041901e+03 9.058029802530517295e-04
1.273236618309154437e+03 9.207059622846721541e-04
1.274137068534266973e+03 9.349228321238804663e-04
1.275037518759379736e+03 9.517759716352202802e-04
1.275937968984492272e+03 9.742115138598345667e-04
1.276838419209604808e+03 1.001564631952482024e-03
1.277738869434717344e+03 1.031199029531777202e-03
1.278639319659829880e+03 1.061917537398557191e-03
1.279539769884942416e+03 1.093635130206734203e-03
1.280440220110054952e+03 1.124442234222232341e-03
1.281340670335167488e+03 1.150501882116759583e-03
1.282241120560280024e+03 1.169668189163602760e-03
1.283141570785392560e+03 1.182341241548858987e-03
1.284042021010505096e+03 1.189949874727627395e-03
1.284942471235617859e+03 1.194354608437637414e-03
1.285842921460730395e+03 1.198779734080662653e-03
1.286743371685842931e+03 1.207603813829518551e-03
1.287643821910955467e+03 1.223626222024802633e-03
1.288544272136068003e+03 1.245041503549851672e-03
1.289444722361180538e+03 1.267444332316552047e-03
1.290345172586293074e+03 1.287718767518797412e-03
1.291245622811405610e+03 1.304909544503549384e-03
1.292146073036518146e+03 1.318909129310220571e-03
1.293046523261630682e+03 1.328739316913074347e-03
1.293946973486743218e+03 1.334219089917602430e-03
1.294847423711855754e+03 1.338356917147515883e-03
1.295747873936968517e+03 1.344107207979136284e-03
1.296648324162081053e+03 1.352304019136435628e-03
1.297548774387193589e+03 1.362392936473899542e-03
1.298449224612306125e+03 1.374079747372154454e-03
1.299349674837418661e+03 1.388217510975473272e-03
1.300250125062531197e+03 1.404128862769399256e-03
1.301150575287643733e+03 1.419448081357592125e-03
1.302051025512756269e+03 1.434022622732754760e-03
1.302951475737868805e+03 1.449814094173376136e-03
1.303851925962981340e+03 1.468081678273469928e-03
1.304752376188093876e+03 1.489102138960670622e-03
1.305652826413206640e+03 1.511834353978712756e-03
1.306553276638319176e+03 1.533910868877516901e-03
1.307453726863431712e+03 1.554743280028405552e-03
1.308354177088544247e+03 1.578062403056174892e-03
1.309254627313656783e+03 1.607750818060630542e-03
1.310155077538769319e+03 1.643003109706110167e-03
1.311055527763881855e+03 1.680576306241125806e-03
1.311955977988994391e+03 1.718452527381172674e-03
1.312856428214106927e+03 1.756964562106444038e-03
1.313756878439219463e+03 1.796771571664837605e-03
1.314657328664331999e+03 1.837140739827170573e-03
1.315557778889444762e+03 1.878796473773675525e-03
1.316458229114557298e+03 1.924834041257016950e-03
1.317358679339669834e+03 1.976654974904236764e-03
1.318259129564782370e+03 2.029338183685811675e-03
1.319159579789894906e+03 2.075557746550527570e-03
1.320060030015007442e+03 2.112644444314501317e-03
1.320960480240119978e+03 2.143405143770739374e-03
1.321860930465232514e+03 2.172517981126428042e-03
1.322761380690345050e+03 2.203952632523428941e-03
1.323661830915457585e+03 2.241704884855857602e-03
1.324562281140570121e+03 2.287253534773868793e-03
1.325462731365682885e+03 2.339867232995992974e-03
1.326363181590795421e+03 2.401234239337479443e-03
1.327263631815907956e+03 2.470815675446103032e-03
1.328164082041020492e+03 2.541508819060426735e-03
1.329064532266133028e+03 2.605840880143514820e-03
1.329964982491245564e+03 2.663269582899452891e-03
1.330865432716358100e+03 2.721661203893162555e-03
1.331765882941470636e+03 2.788924007202897050e-03
1.332666333166583172e+03 2.863865140603331222e-03
1.333566783391695708e+03 2.939345887735490045e-03
1.334467233616808244e+03 3.013220803216164201e-03
1.335367683841921007e+03 3.092225233887818930e-03
1.336268134067033543e+03 3.186227600943452361e-03
1.337168584292146079e+03 3.302552779878978936e-03
1.338069034517258615e+03 3.436426634549641368e-03
1.338969484742371151e+03 3.572799987713305009e-03
1.339869934967483687e+03 3.703901663588777139e-03
1.340770385192596223e+03 3.834453174640949525e-03
1.341670835417708759e+03 3.969002843963927510e-03
1.342571285642821294e+03 4.104992443374153380e-03
1.343471735867933830e+03 4.242535180516117214e-03
1.344372186093046366e+03 4.388148831301950589e-03
1.345272636318158902e+03 4.543310298193834265e-03
1.346173086543271666e+03 4.701420263821999394e-03
1.347073536768384201e+03 4.857104317774306977e-03
1.347973986993496737e+03 5.014560772004233481e-03
1.348874437218609273e+03 5.189716647058376098e-03
1.349774887443721809e+03 5.391199280888819313e-03
1.350675337668834345e+03 5.601552178470905682e-03
1.351575787893946881e+03 5.798953444568265801e-03
1.352476238119059417e+03 5.982325145306726863e-03
1.353376688344171953e+03 6.165456357139907639e-03
1.354277138569284489e+03 6.360699370842783605e-03
1.355177588794397025e+03 6.574324330155897726e-03
1.356078039019509788e+03 6.813689439956037257e-03
1.356978489244622324e+03 7.090004063524795244e-03
1.357878939469734860e+03 7.407798927489549733e-03
1.358779389694847396e+03 7.746213579488811160e-03
1.359679839919959932e+03 8.063177753141616277e-03
1.360580290145072468e+03 8.330560872644682952e-03
1.361480740370185003e+03 8.559773542693020418e-03
1.362381190595297539e+03 8.798072681345879553e-03
1.363281640820410075e+03 9.085216924084449711e-03
1.364182091045522611e+03 9.408878601262422522e-03
1.365082541270635147e+03 9.728401118202480158e-03
1.365982991495747910e+03 1.003034764951651545e-02
1.366883441720860446e+03 1.033946429592274077e-02
1.367783891945972982e+03 1.068545427911679960e-02
1.368684342171085518e+03 1.108171125213958629e-02
1.369584792396198054e+03 1.152955513919858704e-02
1.370485242621310590e+03 1.202945326318169417e-02
1.371385692846423126e+03 1.256349668901515781e-02
1.372286143071535662e+03 1.309747081509615371e-02
1.373186593296648198e+03 1.360703001497396911e-02
1.374087043521760734e+03 1.409483295361976980e-02
1.374987493746873270e+03 1.458142258311399993e-02
1.375887943971986033e+03 1.507790090382825701e-02
1.376788394197098569e+03 1.558260736704042589e-02
1.377688844422211105e+03 1.611928508630387780e-02
1.378589294647323641e+03 1.676174617427383592e-02
1.379489744872436177e+03 1.756525954180205434e-02
1.380390195097548713e+03 1.852368376025032709e-02
1.381290645322661248e+03 1.957676806277498446e-02
1.382191095547773784e+03 2.061027539537935854e-02
1.383091545772886320e+03 2.149036462313693233e-02
1.383991995997998856e+03 2.217464723313447919e-02
1.384892446223111392e+03 2.279298217073457908e-02
1.385792896448224155e+03 2.354180725137805172e-02
1.386693346673336691e+03 2.446871142263623913e-02
1.387593796898449227e+03 2.547356663904061166e-02
1.388494247123561763e+03 2.652177859005746402e-02
1.389394697348674299e+03 2.769425075921441368e-02
1.390295147573786835e+03 2.908954241935990739e-02
1.391195597798899371e+03 3.076292666557808864e-02
1.392096048024011907e+03 3.269584897432683407e-02
1.392996498249124443e+03 3.479075856433730407e-02
1.393896948474236979e+03 3.684923145382475174e-02
1.394797398699349515e+03 3.862879519539889200e-02
1.395697848924462278e+03 3.996638371775683429e-02
1.396598299149574814e+03 4.076874018476474987e-02
1.397498749374687350e+03 4.102863892619888070e-02
1.398399199599799886e+03 4.088551993556444053e-02
1.399299649824912422e+03 4.055962314046906991e-02
1.400200100050024957e+03 4.013526666768731099e-02
1.401100550275137493e+03 3.950779188591739544e-02
1.402001000500250029e+03 3.858719783535859149e-02
1.402901450725362565e+03 3.746085080112428189e-02
1.403801900950475101e+03 3.625566488746641280e-02
1.404702351175587637e+03 3.495062769320318036e-02
1.405602801400700173e+03 3.344474546383513491e-02
1.406503251625812936e+03 3.169127634183618175e-02
1.407403701850925472e+03 2.975498867034325617e-02
1.408304152076038008e+03 2.778384715666550042e-02
1.409204602301150544e+03 2.583578418030731474e-02
1.410105052526263080e+03 2.380771963059287108e-02
1.411005502751375616e+03 2.165779181303673084e-02
1.411905952976488152e+03 1.950224706108736467e-02
1.412806403201600688e+03 1.748485810622046541e-02
1.413706853426713224e+03 1.571611803854281939e-02
1.414607303651825760e+03 1.425007774923910293e-02
1.415507753876938295e+03 1.305185199462708702e-02
1.416408204102051059e+03 1.203969876019103658e-02
1.417308654327163595e+03 1.114095437042553899e-02
1.418209104552276131e+03 1.032330690621542126e-02
1.419109554777388666e+03 9.593343677039947379e-03
1.420010005002501202e+03 8.948454850229015448e-03
1.420910455227613738e+03 8.368525773832086873e-03
1.421810905452726274e+03 7.843077955778040428e-03
1.422711355677838810e+03 7.373673825751981409e-03
1.423611805902951346e+03 6.969006569269491601e-03
1.424512256128063882e+03 6.619683273857746714e-03
1.425412706353176418e+03 6.290397586526815486e-03
1.426313156578289181e+03 5.957449415704893329e-03
1.427213606803401717e+03 5.620765202993822061e-03
1.428114057028514253e+03 5.290186901291374540e-03
1.429014507253626789e+03 4.980364712294106655e-03
1.429914957478739325e+03 4.702195986572257208e-03
1.430815407703851861e+03 4.453343389293395495e-03
1.431715857928964397e+03 4.223232342700377132e-03
1.432616308154076933e+03 4.008951294620503522e-03
1.433516758379189469e+03 3.820125245007238192e-03
1.434417208604302004e+03 3.666145967258081784e-03
1.435317658829414540e+03 3.546126395627179160e-03
1.436218109054527304e+03 3.455778147376464826e-03
1.437118559279639840e+03 3.391057122463629354e-03
1.438019009504752376e+03 3.342791321498608022e-03
1.438919459729864911e+03 3.295210526428078018e-03
1.439819909954977447e+03 3.231007006481500816e-03
1.440720360180089983e+03 3.141937435336499516e-03
1.441620810405202519e+03 3.032766435263044465e-03
1.442521260630315055e+03 2.917927764183437730e-03
1.443421710855427591e+03 2.813943684656272388e-03
1.444322161080540127e+03 2.725850601768552237e-03
1.445222611305652663e+03 2.645573497486981753e-03
1.446123061530765426e+03 2.564049027288903011e-03
1.447023511755877962e+03 2.479959194530149263e-03
1.447923961980990498e+03 2.398567481352959115e-03
1.448824412206103034e+03 2.323574288350259160e-03
1.449724862431215570e+03 2.255546202295216802e-03
1.450625312656328106e+03 2.197691268815749489e-03
1.451525762881440642e+03 2.153899713338694455e-03
1.452426213106553178e+03 2.118727752766132785e-03
1.453326663331665713e+03 2.078051435633519739e-03
1.454227113556778249e+03 2.027872386169344773e-03
1.455127563781890785e+03 1.980594102202144335e-03
1.456028014007003321e+03 1.946310595429794369e-03
1.456928464232116085e+03 1.924027416630479928e-03
1.457828914457228620e+03 1.907708585153752422e-03
1.458729364682341156e+03 1.888311782104054419e-03
1.459629814907453692e+03 1.857995441284379786e-03
1.460530265132566228e+03 1.816203759592409980e-03
1.461430715357678764e+03 1.769570945851814880e-03
1.462331165582791300e+03 1.724355845087288024e-03
1.463231615807903836e+03 1.682300050192587788e-03
1.464132066033016372e+03 1.644019159939918550e-03
1.465032516258128908e+03 1.608180315724030756e-03
1.465932966483241444e+03 1.571720524890077774e-03
1.466833416708354207e+03 1.533874442580016864e-03
1.467733866933466743e+03 1.496967682804821670e-03
1.468634317158579279e+03 1.461207372418102607e-03
1.469534767383691815e+03 1.426046431000227519e-03
1.470435217608804351e+03 1.394183235940888799e-03
1.471335667833916887e+03 1.365156202564589633e-03
1.472236118059029423e+03 1.333601477853116682e-03
1.473136568284141958e+03 1.299800210112538957e-03
1.474037018509254494e+03 1.270133595531188061e-03
1.474937468734367030e+03 1.249096723929386810e-03
1.475837918959479566e+03 1.236156135356330068e-03
1.476738369184592329e+03 1.228726232463120882e-03
1.477638819409704865e+03 1.223768150328713314e-03
1.478539269634817401e+03 1.217446732844099707e-03
1.479439719859929937e+03 1.205251629461128035e-03
1.480340170085042473e+03 1.184253423065380166e-03
1.481240620310155009e+03 1.158353171456060491e-03
1.482141070535267545e+03 1.134519026877119519e-03
1.483041520760380081e+03 1.113560659292247082e-03
1.483941970985492617e+03 1.091221106074440539e-03
1.484842421210605153e+03 1.063825616327252052e-03
1.485742871435717689e+03 1.033434622330350623e-03
1.486643321660830452e+03 1.005353188554974865e-03
1.487543771885942988e+03 9.825836294789411750e-04
1.488444222111055524e+03 9.660828848932663526e-04
1.489344672336168060e+03 9.560959190550973388e-04
1.490245122561280596e+03 9.506509897497054115e-04
1.491145572786393132e+03 9.437194381994802638e-04
1.492046023011505667e+03 9.288933948657686346e-04
1.492946473236618203e+03 9.068105097882609485e-04
1.493846923461730739e+03 8.840683621858450155e-04
1.494747373686843275e+03 8.653453302408790253e-04
1.495647823911955811e+03 8.494640509565542673e-04
1.496548274137068574e+03 8.323736546084020650e-04
1.497448724362181110e+03 8.137708580849962970e-04
1.498349174587293646e+03 7.968473884972474431e-04
1.499249624812406182e+03 7.828726550506183435e-04
1.500150075037518718e+03 7.707330454221029362e-04
1.501050525262631254e+03 7.601486127313979418e-04
1.501950975487743790e+03 7.507513069447535993e-04
1.502851425712856326e+03 7.391929826806347336e-04
1.503751875937968862e+03 7.232695766351058923e-04
1.504652326163081398e+03 7.060655203614124575e-04
1.505552776388193934e+03 6.919419098588530355e-04
1.506453226613306470e+03 6.817793285914009209e-04
1.507353676838419233e+03 6.739833385788540415e-04
1.508254127063531769e+03 6.657660752833654064e-04
1.509154577288644305e+03 6.535644218341605171e-04
1.510055027513756841e+03 6.359457441986885243e-04
1.510955477738869376e+03 6.157862079021604422e-04
1.511855927963981912e+03 5.983446531309865798e-04
1.512756378189094448e+03 5.868029445956386703e-04
1.513656828414206984e+03 5.809154054438551290e-04
1.514557278639319520e+03 5.781158566008625386e-04
1.515457728864432056e+03 5.748157891384438316e-04
1.516358179089544592e+03 5.686551436345020204e-04
1.517258629314657355e+03 5.598968289095544336e-04
1.518159079539769891e+03 5.505371955734882083e-04
1.519059529764882427e+03 5.418876385097536530e-04
1.519959979989994963e+03 5.336546241349274938e-04
1.520860430215107499e+03 5.241214294848329028e-04
1.521760880440220035e+03 5.118982664127989368e-04
1.522661330665332571e+03 4.984444072445767251e-04
1.523561780890445107e+03 4.877756028406553496e-04
1.524462231115557643e+03 4.837503890294201909e-04
1.525362681340670179e+03 4.866604829665647776e-04
1.526263131565782714e+03 4.930044107489569942e-04
1.527163581790895478e+03 4.986979253684733484e-04
1.528064032016008014e+03 5.011991779361063028e-04
1.528964482241120550e+03 4.999752299431376064e-04
1.529864932466233086e+03 4.959541194094003926e-04
1.530765382691345621e+03 4.893602956536231017e-04
1.531665832916458157e+03 4.794808327129758407e-04
1.532566283141570693e+03 4.676638135815164451e-04
1.533466733366683229e+03 4.570451841251657425e-04
1.534367183591795765e+03 4.497368716255291908e-04
1.535267633816908301e+03 4.463589282971466691e-04
1.536168084042020837e+03 4.459756224979967106e-04
1.537068534267133600e+03 4.467080702145029194e-04
1.537968984492246136e+03 4.472214008657385861e-04
1.538869434717358672e+03 4.469015352935930166e-04
1.539769884942471208e+03 4.463835341789218654e-04
1.540670335167583744e+03 4.463447196464044738e-04
1.541570785392696280e+03 4.459778661029628025e-04
1.542471235617808816e+03 4.439019153237955631e-04
1.543371685842921352e+03 4.391178191626047092e-04
1.544272136068033888e+03 4.309948460089879901e-04
1.545172586293146423e+03 4.197405471630993781e-04
1.546073036518258959e+03 4.074687461684832522e-04
1.546973486743371723e+03 3.972908182310191938e-04
1.547873936968484259e+03 3.901336115577335719e-04
1.548774387193596795e+03 3.842835387728598968e-04
1.549674837418709330e+03 3.789545111739848452e-04
1.550575287643821866e+03 3.757708667904675697e-04
1.551475737868934402e+03 3.761371025441389996e-04
1.552376188094046938e+03 3.795445354957660534e-04
1.553276638319159474e+03 3.838496531833452113e-04
1.554177088544272010e+03 3.872655217582034550e-04
1.555077538769384546e+03 3.897705157698341263e-04
1.555977988994497082e+03 3.914040959404710982e-04
1.556878439219609618e+03 3.903609540778302180e-04
1.557778889444722381e+03 3.852612662248310494e-04
1.558679339669834917e+03 3.778717315323163860e-04
1.559579789894947453e+03 3.709990865952927344e-04
1.560480240120059989e+03 3.661667863566553729e-04
1.561380690345172525e+03 3.635347003404833526e-04
1.562281140570285061e+03 3.622500757205712480e-04
1.563181590795397597e+03 3.608139258399766544e-04
1.564082041020510133e+03 3.581384652640681363e-04
1.564982491245622668e+03 3.544178890432253689e-04
1.565882941470735204e+03 3.501496311820989486e-04
1.566783391695847740e+03 3.445459333837638089e-04
1.567683841920960504e+03 3.361987107482991457e-04
1.568584292146073039e+03 3.244608565671767194e-04
1.569484742371185575e+03 3.101193042207964798e-04
1.570385192596298111e+03 2.943767092454448739e-04
1.571285642821410647e+03 2.773463884262210755e-04
1.572186093046523183e+03 2.590247770898861514e-04
1.573086543271635719e+03 2.399676493306148047e-04
1.573986993496748255e+03 2.203189679495879414e-04
1.574887443721860791e+03 1.998300292446628600e-04
1.575787893946973327e+03 1.789670855371345139e-04
1.576688344172085863e+03 1.591740234637506544e-04
1.577588794397198626e+03 1.416563515851364252e-04
1.578489244622311162e+03 1.267372051123875269e-04
1.579389694847423698e+03 1.143790396163366974e-04
1.580290145072536234e+03 1.044479713952182218e-04
1.581190595297648770e+03 9.659268937024940158e-05
1.582091045522761306e+03 9.035440502313533322e-05
1.582991495747873842e+03 8.532175201505720554e-05
1.583891945972986377e+03 8.117935129541397200e-05
1.584792396198098913e+03 7.770036827649129808e-05
1.585692846423211449e+03 7.472468016464176987e-05
1.586593296648323985e+03 7.213862765931905658e-05
1.587493746873436749e+03 6.986020885381546627e-05
1.588394197098549284e+03 6.782908910534303536e-05
1.589294647323661820e+03 6.599999368317043154e-05
1.590195097548774356e+03 6.433831592709347955e-05
1.591095547773886892e+03 6.281715418015957079e-05
1.591995997998999428e+03 6.141527569395688834e-05
1.592896448224111964e+03 6.011569079312265821e-05
1.593796898449224500e+03 5.890463596986396052e-05
1.594697348674337036e+03 5.777083607181886417e-05
1.595597798899449572e+03 5.670496040730501242e-05
1.596498249124562108e+03 5.569921589035356437e-05
1.597398699349674871e+03 5.474703857785115542e-05
1.598299149574787407e+03 5.384285689800332977e-05
1.599199599799899943e+03 5.298190783202976525e-05
1.600100050025012479e+03 5.216009270499580872e-05
1.601000500250125015e+03 5.137386295227512628e-05
1.601900950475237551e+03 5.062012881791245935e-05
1.602801400700350086e+03 4.989618577337790042e-05
1.603701850925462622e+03 4.919965475806180934e-05
1.604602301150575158e+03 4.852843329481495847e-05
1.605502751375687694e+03 4.788065523185313201e-05
1.606403201600800230e+03 4.725465737950807973e-05
1.607303651825912766e+03 4.664895169724783474e-05
1.608204102051025529e+03 4.606220197858916840e-05
1.609104552276138065e+03 4.549320420404677875e-05
1.610005002501250601e+03 4.494086990317518936e-05
1.610905452726363137e+03 4.440421199897207842e-05
1.611805902951475673e+03 4.388233271098237890e-05
1.612706353176588209e+03 4.337441317431929740e-05
1.613606803401700745e+03 4.287970449570638093e-05
1.614507253626813281e+03 4.239752001840640873e-05
1.615407703851925817e+03 4.192722860850816837e-05
1.616308154077038353e+03 4.146824880764249502e-05
1.617208604302150889e+03 4.102004372358854874e-05
1.618109054527263652e+03 4.058211655162014014e-05
1.619009504752376188e+03 4.015400663693895249e-05
1.619909954977488724e+03 3.973528600284407294e-05
1.620810405202601260e+03 3.932555628110191178e-05
1.621710855427713796e+03 3.892444599072496421e-05
1.622611305652826331e+03 3.853160811946578851e-05
1.623511755877938867e+03 3.814671796908775732e-05
1.624412206103051403e+03 3.776947123110985526e-05
1.625312656328163939e+03 3.739958226447046350e-05
1.626213106553276475e+03 3.703678255054124944e-05
1.627113556778389011e+03 3.668081930429860040e-05
1.628014007003501774e+03 3.633145422331634378e-05
1.628914457228614310e+03 3.598846235868242933e-05
1.629814907453726846e+03 3.565163109400570272e-05
1.630715357678839382e+03 3.532075922046145651e-05
1.631615807903951918e+03 3.499565609734377815e-05
1.632516258129064454e+03 3.467614088889434652e-05
1.633416708354176990e+03 3.436204186931483958e-05
1.634317158579289526e+03 3.405319578883668209e-05
1.635217608804402062e+03 3.374944729456810224e-05
1.636118059029514598e+03 3.345064840057279649e-05
1.637018509254627133e+03 3.315665800227076554e-05
1.637918959479739897e+03 3.286734143080655591e-05
1.638819409704852433e+03 3.258257004352110847e-05
1.639719859929964969e+03 3.230222084707930896e-05
1.640620310155077505e+03 3.202617615019231394e-05
1.641520760380190040e+03 3.175432324318750761e-05
1.642421210605302576e+03 3.148655410198063762e-05
1.643321660830415112e+03 3.122276511424919261e-05
1.644222111055527648e+03 3.096285682583964176e-05
1.645122561280640184e+03 3.070673370563589309e-05
1.646023011505752720e+03 3.045430392729561991e-05
1.646923461730865256e+03 3.020547916641770490e-05
1.647823911955978019e+03 2.996017441184340460e-05
1.648724362181090555e+03 2.971830778991903913e-05
1.649624812406203091e+03 2.947980040066039599e-05
1.650525262631315627e+03 2.924457616485734372e-05
1.651425712856428163e+03 2.901256168124425304e-05
1.652326163081540699e+03 2.878368609294688560e-05
1.653226613306653235e+03 2.855788096248309927e-05
1.654127063531765771e+03 2.833508015465930650e-05
1.655027513756878307e+03 2.811521972676838039e-05
1.655927963981990843e+03 2.789823782553805086e-05
1.656828414207103378e+03 2.768407459033278922e-05
1.657728864432216142e+03 2.747267206215320970e-05
1.658629314657328678e+03 2.726397409801146039e-05
1.659529764882441214e+03 2.705792629030368844e-05
1.660430215107553749e+03 2.685447589082279226e-05
1.661330665332666285e+03 2.665357173909220392e-05
1.662231115557778821e+03 2.645516419472140093e-05
1.663131565782891357e+03 2.625920507351014863e-05
1.664032016008003893e+03 2.606564758704875255e-05
1.664932466233116429e+03 2.587444628558320934e-05
1.665832916458228965e+03 2.568555700393035406e-05
1.666733366683341501e+03 2.549893681024367639e-05
1.667633816908454037e+03 2.531454395744895769e-05
1.668534267133566800e+03 2.513233783717759809e-05
1.669434717358679336e+03 2.495227893604257249e-05
1.670335167583791872e+03 2.477432879411229472e-05
1.671235617808904408e+03 2.459844996544249056e-05
1.672136068034016944e+03 2.442460598054934829e-05
1.673036518259129480e+03 2.425276131069762031e-05
1.673936968484242016e+03 2.408288133390444082e-05
1.674837418709354552e+03 2.391493230255174710e-05
1.675737868934467087e+03 2.374888131251649584e-05
1.676638319159579623e+03 2.358469627373103352e-05
1.677538769384692159e+03 2.342234588209177049e-05
1.678439219609804923e+03 2.326179959263949886e-05
1.679339669834917459e+03 2.310302759394169413e-05
1.680240120060029994e+03 2.294600078360944801e-05
1.681140570285142530e+03 2.279069074488670422e-05
1.682041020510255066e+03 2.263706972425608637e-05
1.682941470735367602e+03 2.248511061000217797e-05
1.683841920960480138e+03 2.233478691168696878e-05
1.684742371185592674e+03 2.218607274048580545e-05
1.685642821410705210e+03 2.203894279034055597e-05
1.686543271635817746e+03 2.189337231988705394e-05
1.687443721860930282e+03 2.174933713511845840e-05
1.688344172086043045e+03 2.160681357274744989e-05
1.689244622311155581e+03 2.146577848423023694e-05
1.690145072536268117e+03 2.132620922042213416e-05
1.691045522761380653e+03 2.118808361683306317e-05
1.691945972986493189e+03 2.105137997945215811e-05
1.692846423211605725e+03 2.091607707111732157e-05
1.693746873436718261e+03 2.078215409839916002e-05
1.694647323661830796e+03 2.064959069898177849e-05
1.695547773886943332e+03 2.051836692950833552e-05
1.696448224112055868e+03 2.038846325387903567e-05
1.697348674337168404e+03 2.025986053197324834e-05
1.698249124562281168e+03 2.013254000878188533e-05
1.699149574787393703e+03 2.000648330392769240e-05
1.700050025012506239e+03 1.988167240155769993e-05
1.700950475237618775e+03 1.975808964059320966e-05
1.701850925462731311e+03 1.963571770531779157e-05
1.702751375687843847e+03 1.951453961629133425e-05
1.703651825912956383e+03 1.939453872157526808e-05
1.704552276138068919e+03 1.927569868825617776e-05
1.705452726363181455e+03 1.915800349425384854e-05
1.706353176588293991e+03 1.904143742040382564e-05
1.707253626813406527e+03 1.892598504280021266e-05
1.708154077038519290e+03 1.881163122539224116e-05
1.709054527263631826e+03 1.869836111281897493e-05
1.709954977488744362e+03 1.858616012347621664e-05
1.710855427713856898e+03 1.847501394280635345e-05
1.711755877938969434e+03 1.836490851679898172e-05
1.712656328164081970e+03 1.825583004569791980e-05
1.713556778389194506e+03 1.814776497790401415e-05
1.714457228614307041e+03 1.804070000406600370e-05
1.715357678839419577e+03 1.793462205135391645e-05
1.716258129064532113e+03 1.782951827790739532e-05
1.717158579289644649e+03 1.772537606745055742e-05
1.718059029514757185e+03 1.762218302406973099e-05
1.718959479739869948e+03 1.751992696714592160e-05
1.719859929964982484e+03 1.741859592643821273e-05
1.720760380190095020e+03 1.731817813730994910e-05
1.721660830415207556e+03 1.721866203609475157e-05
1.722561280640320092e+03 1.712003625559660713e-05
1.723461730865432628e+03 1.702228962071937205e-05
1.724362181090545164e+03 1.692541114421943020e-05
1.725262631315657700e+03 1.682939002257995476e-05
1.726163081540770236e+03 1.673421563200044106e-05
1.727063531765882772e+03 1.663987752449851522e-05
1.727963981990995308e+03 1.654636542411812343e-05
1.728864432216108071e+03 1.645366922324457268e-05
1.729764882441220607e+03 1.636177897901828476e-05
1.730665332666333143e+03 1.627068490984610134e-05
1.731565782891445679e+03 1.618037739200783957e-05
1.732466233116558215e+03 1.609084695635124745e-05
1.733366683341670750e+03 1.600208428507817450e-05
1.734267133566783286e+03 1.591408020861224390e-05
1.735167583791895822e+03 1.582682570255114325e-05
1.736068034017008358e+03 1.574031188469739463e-05
1.736968484242120894e+03 1.565453001216592002e-05
1.737868934467233430e+03 1.556947147856641670e-05
1.738769384692346193e+03 1.548512781125795410e-05
1.739669834917458729e+03 1.540149066867300354e-05
1.740570285142571265e+03 1.531855183770898675e-05
1.741470735367683801e+03 1.523630323118588106e-05
1.742371185592796337e+03 1.515473688536691668e-05
1.743271635817908873e+03 1.507384495754065342e-05
1.744172086043021409e+03 1.499361972366293582e-05
1.745072536268133945e+03 1.491405357605662438e-05
1.745972986493246481e+03 1.483513902116738689e-05
1.746873436718359017e+03 1.475686867737388785e-05
1.747773886943471553e+03 1.467923527285021445e-05
1.748674337168584316e+03 1.460223164348053730e-05
1.749574787393696852e+03 1.452585073082283821e-05
1.750475237618809388e+03 1.445008558012041731e-05
1.751375687843921924e+03 1.437492933836115930e-05
1.752276138069034459e+03 1.430037525238179071e-05
1.753176588294146995e+03 1.422641666701611509e-05
1.754077038519259531e+03 1.415304702328640118e-05
1.754977488744372067e+03 1.408025985663668562e-05
1.755877938969484603e+03 1.400804879520584557e-05
1.756778389194597139e+03 1.393640755814094605e-05
1.757678839419709675e+03 1.386532995394800919e-05
1.758579289644822438e+03 1.379480987888040529e-05
1.759479739869934974e+03 1.372484131536380184e-05
1.760380190095047510e+03 1.365541833045536825e-05
1.761280640320160046e+03 1.358653507433770381e-05
1.762181090545272582e+03 1.351818577884633191e-05
1.763081540770385118e+03 1.345036475602927479e-05
1.763981990995497654e+03 1.338306639673779397e-05
1.764882441220610190e+03 1.331628516924838286e-05
1.765782891445722726e+03 1.325001561791505773e-05
1.766683341670835262e+03 1.318425236184871982e-05
1.767583791895947797e+03 1.311899009362742573e-05
1.768484242121060333e+03 1.305422357803255494e-05
1.769384692346173097e+03 1.298994765081210277e-05
1.770285142571285633e+03 1.292615721747057353e-05
1.771185592796398169e+03 1.286284725208405256e-05
1.772086043021510704e+03 1.280001279614012518e-05
1.772986493246623240e+03 1.273764895740189538e-05
1.773886943471735776e+03 1.267575090879591117e-05
1.774787393696848312e+03 1.261431388732283279e-05
1.775687843921960848e+03 1.255333319299044904e-05
1.776588294147073384e+03 1.249280418776889765e-05
1.777488744372185920e+03 1.243272229456710060e-05
1.778389194597298456e+03 1.237308299622936202e-05
1.779289644822411219e+03 1.231388183455330471e-05
1.780190095047523755e+03 1.225511440932657001e-05
1.781090545272636291e+03 1.219677637738382792e-05
1.781990995497748827e+03 1.213886345168153925e-05
1.782891445722861363e+03 1.208137140039195907e-05
1.783791895947973899e+03 1.202429604601460588e-05
1.784692346173086435e+03 1.196763326450554902e-05
1.785592796398198971e+03 1.191137898442349275e-05
1.786493246623311506e+03 1.185552918609264172e-05
1.787393696848424042e+03 1.180007990078189721e-05
1.788294147073536578e+03 1.174502720990017930e-05
1.789194597298649342e+03 1.169036724420674305e-05
1.790095047523761878e+03 1.163609618303727844e-05
1.790995497748874413e+03 1.158221025354430133e-05
1.791895947973986949e+03 1.152870572995267762e-05
1.792796398199099485e+03 1.147557893282834750e-05
1.793696848424212021e+03 1.142282622836197444e-05
1.794597298649324557e+03 1.137044402766537588e-05
1.795497748874437093e+03 1.131842878608098476e-05
1.796398199099549629e+03 1.126677700250561564e-05
1.797298649324662165e+03 1.121548521872429700e-05
1.798199099549774701e+03 1.116455001875986009e-05
1.799099549774887464e+03 1.111396802823094383e-05
1.800000000000000000e+03 1.106373591372469576e-05
