0.000000000000000000e+00 1.338576058844026398e-03
9.004502251125562351e-01 1.768612694196406657e-03
1.800900450225112470e+00 2.346358401151864108e-03
2.701350675337668594e+00 3.024891373349590865e-03
3.601800900450224940e+00 3.605407332812240583e-03
4.502251125562780842e+00 3.863998224398018828e-03
5.402701350675337189e+00 3.852898713824817398e-03
6.303151575787893535e+00 3.723249728256505971e-03
7.203601800900449881e+00 3.411112478486954050e-03
8.104052026013006227e+00 2.871947749152888290e-03
9.004502251125561685e+00 2.271920301867478686e-03
9.904952476238118919e+00 1.757811812658244266e-03
1.080540270135067438e+01 1.356900231683288950e-03
1.170585292646323161e+01 1.053740588985836724e-03
1.260630315157578707e+01 8.295214564236766874e-04
1.350675337668834430e+01 6.649136486930225243e-04
1.440720360180089976e+01 5.430163428954172533e-04
1.530765382691345522e+01 4.512059687308464496e-04
1.620810405202601245e+01 3.807358359706193270e-04
1.710855427713856969e+01 3.257018361526195461e-04
1.800900450225112337e+01 2.821077018235728642e-04
1.890945472736368060e+01 2.471961915074243218e-04
1.980990495247623784e+01 2.189835009965892534e-04
2.071035517758879507e+01 1.958482875682037729e-04
2.161080540270134875e+01 1.762266781955982892e-04
2.251125562781390599e+01 1.588206147644868492e-04
2.341170585292646322e+01 1.431514726551572265e-04
2.431215607803901690e+01 1.293399961310511426e-04
2.521260630315157414e+01 1.174150331430835330e-04
2.611305652826413137e+01 1.071748620965516310e-04
2.701350675337668861e+01 9.835417890960559614e-05
2.791395697848924229e+01 9.072187503412389577e-05
2.881440720360179952e+01 8.409374468301815408e-05
2.971485742871435676e+01 7.830414820305092033e-05
3.061530765382691044e+01 7.315938084598919415e-05
3.151575787893946767e+01 6.844626662860745924e-05
3.241620810405202491e+01 6.404460890979625422e-05
3.331665832916458214e+01 5.996868695547919451e-05
3.421710855427713938e+01 5.627624355369464232e-05
3.511755877938969661e+01 5.297399006119196132e-05
3.601800900450224674e+01 4.999378396352325649e-05
3.691845922961480397e+01 4.723556993772551782e-05
3.781890945472736121e+01 4.465729002447177404e-05
3.871935967983991844e+01 4.228590849802643463e-05
3.961980990495247568e+01 4.014205396965412709e-05
4.052026013006503291e+01 3.821150923404081706e-05
4.142071035517759015e+01 3.644750845608145639e-05
4.232116058029014027e+01 3.478188919936154683e-05
4.322161080540269751e+01 3.317810254321031197e-05
4.412206103051525474e+01 3.165855666640215657e-05
4.502251125562781198e+01 3.025403295552137053e-05
4.592296148074036921e+01 2.897229130969543450e-05
4.682341170585292645e+01 2.780770772625430304e-05
4.772386193096548368e+01 2.675371806874827406e-05
4.862431215607803381e+01 2.580817038473527268e-05
4.952476238119059104e+01 2.497516427115386339e-05
5.042521260630314828e+01 2.426473115827050474e-05
5.132566283141570551e+01 2.368706508011526608e-05
5.222611305652826275e+01 2.323326607138348848e-05
5.312656328164081998e+01 2.285039796907169154e-05
5.402701350675337721e+01 2.245655021729232420e-05
5.492746373186592734e+01 2.196291061132717482e-05
5.582791395697848458e+01 2.126177047985143375e-05
5.672836418209104181e+01 2.035616964103228668e-05
5.762881440720359905e+01 1.941516725647452550e-05
5.852926463231615628e+01 1.858373110661863350e-05
5.942971485742871351e+01 1.790361587137208343e-05
6.033016508254127075e+01 1.735902648404935670e-05
6.123061530765382088e+01 1.690204933588859690e-05
6.213106553276637811e+01 1.645622889277514216e-05
6.303151575787893535e+01 1.595784215938429891e-05
6.393196598299149258e+01 1.541700134084954878e-05
6.483241620810404982e+01 1.489355273415085304e-05
6.573286643321659994e+01 1.442943451049901962e-05
6.663331665832916428e+01 1.403640818162541431e-05
6.753376688344171441e+01 1.371473900961853787e-05
6.843421710855427875e+01 1.346648372081713096e-05
6.933466733366682888e+01 1.329958964309576250e-05
7.023511755877939322e+01 1.322405165819606263e-05
7.113556778389194335e+01 1.323317434278557148e-05
7.203601800900449348e+01 1.326836488408371987e-05
7.293646823411705782e+01 1.322892132073142135e-05
7.383691845922960795e+01 1.307856583353571580e-05
7.473736868434217229e+01 1.284994540087774968e-05
7.563781890945472242e+01 1.253728941637752507e-05
7.653826913456728676e+01 1.214423326000846744e-05
7.743871935967983688e+01 1.175643984315294324e-05
7.833916958479238701e+01 1.146827964141355040e-05
7.923961980990495135e+01 1.131896775424454952e-05
8.014007003501750148e+01 1.129973679878779514e-05
8.104052026013006582e+01 1.135579266687610232e-05
8.194097048524261595e+01 1.137087473307596062e-05
8.284142071035518029e+01 1.121614145637841588e-05
8.374187093546773042e+01 1.087451270515841173e-05
8.464232116058028055e+01 1.045272156991535260e-05
8.554277138569284489e+01 1.007390529308726626e-05
8.644322161080539502e+01 9.807214100850031232e-06
8.734367183591795936e+01 9.673875455192941655e-06
8.824412206103050949e+01 9.672316567228692310e-06
8.914457228614307382e+01 9.780216709913914163e-06
9.004502251125562395e+01 9.934937342348553729e-06
9.094547273636817408e+01 1.002270520085317902e-05
9.184592296148073842e+01 9.943958353121383224e-06
9.274637318659328855e+01 9.726037387393375569e-06
9.364682341170585289e+01 9.475574830195297770e-06
9.454727363681840302e+01 9.253503509248207256e-06
9.544772386193096736e+01 9.040142694808907289e-06
9.634817408704351749e+01 8.784551825970766440e-06
9.724862431215606762e+01 8.485290837253469951e-06
9.814907453726863196e+01 8.201223954674378625e-06
9.904952476238118209e+01 7.989512288867653978e-06
9.994997498749374643e+01 7.872161637815640483e-06
1.008504252126062966e+02 7.851476807180979135e-06
1.017508754377188609e+02 7.928057376434155973e-06
1.026513256628314110e+02 8.103087711194939096e-06
1.035517758879439612e+02 8.365185314934552474e-06
1.044522261130565255e+02 8.681876985812185687e-06
1.053526763381690756e+02 8.988056869180164438e-06
1.062531265632816400e+02 9.187309100712492439e-06
1.071535767883941901e+02 9.238024159089886685e-06
1.080540270135067544e+02 9.187180314489038128e-06
1.089544772386193046e+02 9.097911836137360700e-06
1.098549274637318547e+02 9.000144747058621699e-06
1.107553776888444190e+02 8.878412284883061147e-06
1.116558279139569692e+02 8.716227027870557142e-06
1.125562781390695335e+02 8.552157227629120166e-06
1.134567283641820836e+02 8.464143493362473456e-06
1.143571785892946480e+02 8.483092308029890717e-06
1.152576288144071981e+02 8.524188331810387523e-06
1.161580790395197482e+02 8.450630853520894807e-06
1.170585292646323126e+02 8.228813918137375803e-06
1.179589794897448627e+02 7.963773517574474110e-06
1.188594297148574270e+02 7.756913015351033004e-06
1.197598799399699772e+02 7.631020301613487464e-06
1.206603301650825415e+02 7.606268564916700793e-06
1.215607803901950916e+02 7.730823228969871928e-06
1.224612306153076418e+02 8.032998782808409120e-06
1.233616808404202061e+02 8.489289064752572161e-06
1.242621310655327562e+02 9.018597908967275169e-06
1.251625812906453206e+02 9.527834679055133141e-06
1.260630315157578707e+02 9.923621090835764240e-06
1.269634817408704350e+02 1.008939586321492555e-05
1.278639319659829852e+02 1.001879131988130820e-05
1.287643821910955353e+02 9.833240556066005344e-06
1.296648324162080996e+02 9.578254819895838093e-06
1.305652826413206640e+02 9.244955307779125658e-06
1.314657328664331999e+02 8.902427854244199725e-06
1.323661830915457642e+02 8.646883077113823950e-06
1.332666333166583286e+02 8.512573631989845443e-06
1.341670835417708929e+02 8.479191766995479760e-06
1.350675337668834288e+02 8.493422515164194273e-06
1.359679839919959932e+02 8.475675312319671324e-06
1.368684342171085575e+02 8.376155526034932678e-06
1.377688844422210934e+02 8.234197460717345823e-06
1.386693346673336578e+02 8.162795634139288694e-06
1.395697848924462221e+02 8.279045737426485381e-06
1.404702351175587864e+02 8.623746552479856451e-06
1.413706853426713224e+02 9.120129886405500431e-06
1.422711355677838867e+02 9.609164984020505265e-06
1.431715857928964510e+02 9.971859005161069696e-06
1.440720360180089870e+02 1.014887999663048834e-05
1.449724862431215513e+02 1.010368070172111950e-05
1.458729364682341156e+02 9.836559324733263102e-06
1.467733866933466800e+02 9.447510004135778580e-06
1.476738369184592159e+02 9.089449019785570332e-06
1.485742871435717802e+02 8.830468891876569311e-06
1.494747373686843446e+02 8.648838825624519734e-06
1.503751875937968805e+02 8.468664177737492829e-06
1.512756378189094448e+02 8.264661273035541777e-06
1.521760880440220092e+02 8.102218692368267638e-06
1.530765382691345735e+02 8.035424575994838572e-06
1.539769884942471094e+02 8.060112037610158979e-06
1.548774387193596738e+02 8.165205692926520299e-06
1.557778889444722381e+02 8.347803782659947398e-06
1.566783391695847740e+02 8.562671957999964755e-06
1.575787893946973384e+02 8.740961419627814633e-06
1.584792396198099027e+02 8.860575680784324771e-06
1.593796898449224670e+02 8.961568262743792499e-06
1.602801400700350030e+02 9.060442249235177797e-06
1.611805902951475673e+02 9.134381240187359325e-06
1.620810405202601316e+02 9.164173632381532786e-06
1.629814907453726676e+02 9.126795553016027427e-06
1.638819409704852319e+02 9.036544832313062322e-06
1.647823911955977962e+02 8.914987333297715020e-06
1.656828414207103606e+02 8.767410440594293434e-06
1.665832916458228965e+02 8.618611407959393068e-06
1.674837418709354608e+02 8.493030970837353209e-06
1.683841920960480252e+02 8.357425147701916376e-06
1.692846423211605611e+02 8.115262003899810256e-06
1.701850925462731254e+02 7.748362396810921996e-06
1.710855427713856898e+02 7.372123267011058776e-06
1.719859929964982541e+02 7.108204626209114252e-06
1.728864432216107900e+02 7.005028953796025630e-06
1.737868934467233544e+02 7.042868656705606988e-06
1.746873436718359187e+02 7.174853155158083577e-06
1.755877938969484546e+02 7.379865747459574459e-06
1.764882441220610190e+02 7.661900136557110440e-06
1.773886943471735833e+02 8.007343995030544862e-06
1.782891445722861476e+02 8.372062374771911238e-06
1.791895947973986836e+02 8.702561970522218067e-06
1.800900450225112479e+02 8.946065167160942348e-06
1.809904952476238122e+02 9.072674380382402551e-06
1.818909454727363482e+02 9.116202843062730732e-06
1.827913956978489125e+02 9.141001068296842992e-06
1.836918459229614768e+02 9.170923831259904742e-06
1.845922961480740412e+02 9.187110367815117285e-06
1.854927463731865771e+02 9.189747217054316776e-06
1.863931965982991414e+02 9.202949151281140090e-06
1.872936468234117058e+02 9.225037959063269900e-06
1.881940970485242417e+02 9.218234999235479932e-06
1.890945472736368060e+02 9.145228517336600855e-06
1.899949974987493704e+02 9.022071684540476234e-06
1.908954477238619347e+02 8.921316821320785312e-06
1.917958979489744706e+02 8.911430013532336761e-06
1.926963481740870350e+02 9.032557764350393205e-06
1.935967983991995993e+02 9.298772407357717453e-06
1.944972486243121352e+02 9.674752277043473643e-06
1.953976988494246996e+02 1.011475505238698069e-05
1.962981490745372639e+02 1.058407900487205397e-05
1.971985992996498283e+02 1.100293931690353771e-05
1.980990495247623642e+02 1.124757810498844667e-05
1.989994997498749285e+02 1.123018913491536165e-05
1.998999499749874929e+02 1.100972495193718288e-05
2.008004002001000288e+02 1.076353626192715261e-05
2.017008504252125931e+02 1.066239646153993390e-05
2.026013006503251574e+02 1.073542097488629781e-05
2.035017508754377218e+02 1.085236272190969161e-05
2.044022011005502577e+02 1.088046717283989688e-05
2.053026513256628220e+02 1.080040306380449893e-05
2.062031015507753864e+02 1.068739788136537676e-05
2.071035517758879223e+02 1.063995329125331352e-05
2.080040020010004866e+02 1.066544023572875320e-05
2.089044522261130510e+02 1.070456799410620746e-05
2.098049024512256153e+02 1.073019197266968318e-05
2.107053526763381512e+02 1.075751232086494826e-05
2.116058029014507156e+02 1.084977209326811320e-05
2.125062531265632799e+02 1.106264621100663459e-05
2.134067033516758158e+02 1.138761972493209539e-05
2.143071535767883802e+02 1.177063317477183068e-05
2.152076038019009445e+02 1.213274693324980251e-05
2.161080540270135089e+02 1.239538268427552650e-05
2.170085042521260448e+02 1.249069470293568951e-05
2.179089544772386091e+02 1.239156512900065910e-05
2.188094047023511735e+02 1.211769970417612083e-05
2.197098549274637094e+02 1.173364252988439154e-05
2.206103051525762737e+02 1.138359155749352070e-05
2.215107553776888381e+02 1.117085513103325285e-05
2.224112056028014024e+02 1.105176904099192062e-05
2.233116558279139383e+02 1.096318752631041829e-05
2.242121060530265027e+02 1.094413264968878699e-05
2.251125562781390670e+02 1.103472380058295214e-05
2.260130065032516029e+02 1.122957074505290239e-05
2.269134567283641672e+02 1.151684723867651001e-05
2.278139069534767316e+02 1.182688403237607913e-05
2.287143571785892959e+02 1.207293872175333016e-05
2.296148074037018318e+02 1.226964272047555413e-05
2.305152576288143962e+02 1.250208502860318701e-05
2.314157078539269605e+02 1.281257839103817579e-05
2.323161580790394964e+02 1.316565471240608543e-05
2.332166083041520608e+02 1.350898320912832394e-05
2.341170585292646251e+02 1.379432682631492337e-05
2.350175087543771895e+02 1.393543526598406248e-05
2.359179589794897254e+02 1.387209886754879005e-05
2.368184092046022897e+02 1.367683350478089201e-05
2.377188594297148541e+02 1.347235889951905930e-05
2.386193096548273900e+02 1.329196690300440274e-05
2.395197598799399543e+02 1.313441606812002397e-05
2.404202101050525187e+02 1.307107430822948713e-05
2.413206603301650830e+02 1.317315428730785012e-05
2.422211105552776189e+02 1.338748166210672352e-05
2.431215607803901833e+02 1.356993905837143104e-05
2.440220110055027476e+02 1.367383691984790713e-05
2.449224612306152835e+02 1.375624678334114303e-05
2.458229114557278479e+02 1.382497031213763488e-05
2.467233616808404122e+02 1.382449278973201979e-05
2.476238119059529765e+02 1.372760631745711532e-05
2.485242621310655124e+02 1.360032587688243331e-05
2.494247123561780768e+02 1.350416082994778531e-05
2.503251625812906411e+02 1.342628562927533648e-05
2.512256128064031770e+02 1.333445841935247923e-05
2.521260630315157414e+02 1.327558553655419719e-05
2.530265132566283057e+02 1.332709447289787792e-05
2.539269634817408701e+02 1.344631011890433131e-05
2.548274137068534060e+02 1.350159499526376033e-05
2.557278639319659703e+02 1.340328532019553350e-05
2.566283141570785347e+02 1.319991157363161212e-05
2.575287643821910706e+02 1.300662597303036041e-05
2.584292146073036633e+02 1.286985730280680029e-05
2.593296648324161993e+02 1.276384435505686021e-05
2.602301150575287352e+02 1.267302483889815577e-05
2.611305652826413279e+02 1.260495065769339437e-05
2.620310155077538639e+02 1.254536338401685970e-05
2.629314657328663998e+02 1.246339564423429762e-05
2.638319159579789925e+02 1.236222220499592404e-05
2.647323661830915285e+02 1.230438730196824323e-05
2.656328164082040644e+02 1.236644424251430407e-05
2.665332666333166571e+02 1.255480949391116274e-05
2.674337168584291931e+02 1.277410213398094316e-05
2.683341670835417858e+02 1.290705013986239741e-05
2.692346173086543217e+02 1.291740546173055617e-05
2.701350675337668577e+02 1.286748464651720048e-05
2.710355177588794504e+02 1.283705482876215720e-05
2.719359679839919863e+02 1.280936909065511055e-05
2.728364182091045222e+02 1.270330791891384195e-05
2.737368684342171150e+02 1.250397743432457131e-05
2.746373186593296509e+02 1.229030599403973201e-05
2.755377688844421868e+02 1.213958432105919657e-05
2.764382191095547796e+02 1.207234312753095993e-05
2.773386693346673155e+02 1.208430850262428805e-05
2.782391195597798514e+02 1.219739981064090520e-05
2.791395697848924442e+02 1.241601560850278444e-05
2.800400200100049801e+02 1.266968881434647320e-05
2.809404702351175729e+02 1.286443644226880916e-05
2.818409204602301088e+02 1.302593296689288075e-05
2.827413706853426447e+02 1.327682204060703378e-05
2.836418209104552375e+02 1.362937048858753169e-05
2.845422711355677734e+02 1.395234384137360624e-05
2.854427213606803093e+02 1.412080164227989293e-05
2.863431715857929021e+02 1.411705223420290342e-05
2.872436218109054380e+02 1.401039523194017089e-05
2.881440720360179739e+02 1.385423881082752601e-05
2.890445222611305667e+02 1.365685580282041073e-05
2.899449724862431026e+02 1.343752445470897893e-05
2.908454227113556385e+02 1.326070437172042674e-05
2.917458729364682313e+02 1.314231986093809744e-05
2.926463231615807672e+02 1.303888924141211461e-05
2.935467733866933600e+02 1.291458776269039650e-05
2.944472236118058959e+02 1.275452435519293459e-05
2.953476738369184318e+02 1.257621127906936005e-05
2.962481240620310246e+02 1.244815016870269701e-05
2.971485742871435605e+02 1.241777490298615530e-05
2.980490245122560964e+02 1.244041741044079741e-05
2.989494747373686891e+02 1.241714388470790147e-05
2.998499249624812251e+02 1.229665473667108098e-05
3.007503751875937610e+02 1.210536826631263398e-05
3.016508254127063537e+02 1.188962075112852968e-05
3.025512756378188897e+02 1.168499387754803927e-05
3.034517258629314256e+02 1.148793340538118907e-05
3.043521760880440183e+02 1.127497491234125442e-05
3.052526263131565543e+02 1.106418229635605118e-05
3.061530765382691470e+02 1.089469019523616482e-05
3.070535267633816829e+02 1.077156274782140765e-05
3.079539769884942189e+02 1.066912734816731076e-05
3.088544272136068116e+02 1.058241689121736482e-05
3.097548774387193475e+02 1.055641609586046000e-05
3.106553276638318835e+02 1.065868537449291283e-05
3.115557778889444762e+02 1.092723458746858833e-05
3.124562281140570121e+02 1.134860419267617288e-05
3.133566783391695481e+02 1.184070489394531232e-05
3.142571285642821408e+02 1.227113791355262284e-05
3.151575787893946767e+02 1.252472277200389099e-05
3.160580290145072127e+02 1.261173776247660201e-05
3.169584792396198054e+02 1.263148050894795027e-05
3.178589294647323413e+02 1.261079329725005192e-05
3.187593796898449341e+02 1.251406463421876108e-05
3.196598299149574700e+02 1.233251282453363840e-05
3.205602801400700059e+02 1.206129896953795741e-05
3.214607303651825987e+02 1.173137802879241917e-05
3.223611805902951346e+02 1.144256743007677353e-05
3.232616308154076705e+02 1.126770922107534021e-05
3.241620810405202633e+02 1.120153889374706504e-05
3.250625312656327992e+02 1.121428225582037178e-05
3.259629814907453351e+02 1.130682126828198443e-05
3.268634317158579279e+02 1.150840066357550402e-05
3.277638819409704638e+02 1.184088787072616118e-05
3.286643321660829997e+02 1.229290995633939825e-05
3.295647823911955925e+02 1.277665988707361295e-05
3.304652326163081284e+02 1.316965623693418369e-05
3.313656828414207212e+02 1.345699080847781783e-05
3.322661330665332571e+02 1.373426680755037017e-05
3.331665832916457930e+02 1.401581098767421945e-05
3.340670335167583858e+02 1.415573106071208817e-05
3.349674837418709217e+02 1.405417909511801130e-05
3.358679339669834576e+02 1.383631415353814203e-05
3.367683841920960504e+02 1.365695251249273809e-05
3.376688344172085863e+02 1.356289511148568693e-05
3.385692846423211222e+02 1.356988624865027944e-05
3.394697348674337150e+02 1.365590892225702617e-05
3.403701850925462509e+02 1.377975994122472296e-05
3.412706353176587868e+02 1.393453356829098966e-05
3.421710855427713796e+02 1.407588116413091578e-05
3.430715357678839155e+02 1.416143022878501025e-05
3.439719859929965082e+02 1.425444424932120776e-05
3.448724362181090441e+02 1.441116175847558842e-05
3.457728864432215801e+02 1.456810800966604747e-05
3.466733366683341728e+02 1.462099750858625536e-05
3.475737868934467087e+02 1.455579182016452092e-05
3.484742371185592447e+02 1.445117303427559914e-05
3.493746873436718374e+02 1.440243705812251730e-05
3.502751375687843733e+02 1.442643280193028140e-05
3.511755877938969093e+02 1.440535819493177260e-05
3.520760380190095020e+02 1.421086290382830290e-05
3.529764882441220379e+02 1.386036383023813291e-05
3.538769384692345739e+02 1.348352412883329409e-05
3.547773886943471666e+02 1.317534976468222699e-05
3.556778389194597025e+02 1.297218226993587487e-05
3.565782891445722953e+02 1.290370380643111717e-05
3.574787393696848312e+02 1.296006674459857137e-05
3.583791895947973671e+02 1.308081970261779267e-05
3.592796398199099599e+02 1.324197331094513670e-05
3.601800900450224958e+02 1.345311898866924735e-05
3.610805402701350317e+02 1.368542944111135756e-05
3.619809904952476245e+02 1.390757295725938996e-05
3.628814407203601604e+02 1.410043072648356390e-05
3.637818909454726963e+02 1.422747134279484488e-05
3.646823411705852891e+02 1.429591116062544450e-05
3.655827913956978250e+02 1.433665417735730179e-05
3.664832416208103609e+02 1.432809073702623753e-05
3.673836918459229537e+02 1.421541556645774954e-05
3.682841420710354896e+02 1.398004742586933486e-05
3.691845922961480824e+02 1.370360488187839666e-05
3.700850425212606183e+02 1.350811062207082984e-05
3.709854927463731542e+02 1.343044464442811918e-05
3.718859429714857470e+02 1.342741517033557851e-05
3.727863931965982829e+02 1.346044247007482267e-05
3.736868434217108188e+02 1.354054489496252738e-05
3.745872936468234116e+02 1.370428128932892281e-05
3.754877438719359475e+02 1.393630096530081093e-05
3.763881940970484834e+02 1.419049044512032684e-05
3.772886443221610762e+02 1.446017891772288050e-05
3.781890945472736121e+02 1.473887041446644333e-05
3.790895447723861480e+02 1.494618309634404088e-05
3.799899949974987408e+02 1.497389232477791295e-05
3.808904452226112767e+02 1.480424212721562038e-05
3.817908954477238694e+02 1.453824280134643873e-05
3.826913456728364054e+02 1.432054666224844452e-05
3.835917958979489413e+02 1.423862266822789167e-05
3.844922461230615340e+02 1.427323507316870826e-05
3.853926963481740700e+02 1.439834513010283984e-05
3.862931465732866059e+02 1.466303805527359982e-05
3.871935967983991986e+02 1.508511099408925913e-05
3.880940470235117346e+02 1.556620979069281988e-05
3.889944972486242705e+02 1.599442631854786990e-05
3.898949474737368632e+02 1.634225517585226415e-05
3.907953976988493991e+02 1.662158781627369591e-05
3.916958479239619351e+02 1.680303483526259561e-05
3.925962981490745278e+02 1.688223499161088556e-05
3.934967483741870637e+02 1.693665383155536637e-05
3.943971985992996565e+02 1.702620527488172742e-05
3.952976488244121924e+02 1.710883399421299052e-05
3.961980990495247283e+02 1.709451915405093823e-05
3.970985492746373211e+02 1.697474209809330694e-05
3.979989994997498570e+02 1.686084735285207049e-05
3.988994497248623929e+02 1.685700064317734290e-05
3.997998999499749857e+02 1.696533719948661615e-05
4.007003501750875216e+02 1.709669662484538438e-05
4.016008004002000575e+02 1.713013617634341219e-05
4.025012506253126503e+02 1.702438189452227689e-05
4.034017008504251862e+02 1.687217755493389417e-05
4.043021510755377221e+02 1.679199786783756344e-05
4.052026013006503149e+02 1.683615046490041607e-05
4.061030515257628508e+02 1.698320022716747404e-05
4.070035017508754436e+02 1.715674134303908055e-05
4.079039519759879795e+02 1.729839556559808843e-05
4.088044022011005154e+02 1.744420680780847899e-05
4.097048524262131082e+02 1.764974727284187889e-05
4.106053026513256441e+02 1.788290678106728264e-05
4.115057528764381800e+02 1.809035095589350172e-05
4.124062031015507728e+02 1.833918255802497661e-05
4.133066533266633087e+02 1.869157818866792103e-05
4.142071035517758446e+02 1.905821804113328786e-05
4.151075537768884374e+02 1.930513922556896593e-05
4.160080040020009733e+02 1.941840325816987758e-05
4.169084542271135092e+02 1.952573269352592784e-05
4.178089044522261020e+02 1.971241238123749899e-05
4.187093546773386379e+02 1.993165372641633211e-05
4.196098049024512306e+02 2.012865210025391630e-05
4.205102551275637666e+02 2.031840811493192909e-05
4.214107053526763025e+02 2.056531455573094012e-05
4.223111555777888952e+02 2.089939279186295713e-05
4.232116058029014312e+02 2.125125579328181313e-05
4.241120560280139671e+02 2.151767436817300904e-05
4.250125062531265598e+02 2.161057456540316078e-05
4.259129564782390958e+02 2.144955105036809733e-05
4.268134067033516317e+02 2.101649888283937010e-05
4.277138569284642244e+02 2.047048564158622286e-05
4.286143071535767604e+02 2.002072607442039341e-05
4.295147573786892963e+02 1.971970873786221695e-05
4.304152076038018890e+02 1.954002825345996854e-05
4.313156578289144250e+02 1.949430610053183374e-05
4.322161080540270177e+02 1.958994919872900081e-05
4.331165582791395536e+02 1.981358892163464225e-05
4.340170085042520896e+02 2.011206833716330702e-05
4.349174587293646823e+02 2.038380608289240195e-05
4.358179089544772182e+02 2.059142500156888709e-05
4.367183591795897541e+02 2.077552754344595950e-05
4.376188094047023469e+02 2.092937327315599872e-05
4.385192596298148828e+02 2.105003493273677735e-05
4.394197098549274187e+02 2.122259519093261252e-05
4.403201600800400115e+02 2.150111967424810428e-05
4.412206103051525474e+02 2.185960676310398258e-05
4.421210605302650833e+02 2.228612580537793876e-05
4.430215107553776761e+02 2.274646275223097256e-05
4.439219609804902120e+02 2.315511923807775268e-05
4.448224112056028048e+02 2.349643495269459220e-05
4.457228614307153407e+02 2.383691972299241320e-05
4.466233116558278766e+02 2.419855344226607693e-05
4.475237618809404694e+02 2.451373706429358523e-05
4.484242121060530053e+02 2.469494638129967950e-05
4.493246623311655412e+02 2.467820190781604481e-05
4.502251125562781340e+02 2.444194702638067084e-05
4.511255627813906699e+02 2.403867746917072397e-05
4.520260130065032058e+02 2.358206284179836001e-05
4.529264632316157986e+02 2.323067033595583756e-05
4.538269134567283345e+02 2.308366128471351378e-05
4.547273636818408704e+02 2.311783112934375956e-05
4.556278139069534632e+02 2.326701492428701848e-05
4.565282641320659991e+02 2.348318231857709744e-05
4.574287143571785919e+02 2.374466870314212994e-05
4.583291645822911278e+02 2.404430977205452668e-05
4.592296148074036637e+02 2.441621927173727381e-05
4.601300650325162565e+02 2.487463500875021938e-05
4.610305152576287924e+02 2.534300495353937358e-05
4.619309654827413283e+02 2.569988895056185234e-05
4.628314157078539210e+02 2.584659061409461109e-05
4.637318659329664570e+02 2.582982874559215734e-05
4.646323161580789929e+02 2.582478706099924532e-05
4.655327663831915856e+02 2.588909724781534278e-05
4.664332166083041216e+02 2.589708856267049222e-05
4.673336668334167143e+02 2.575364411704867819e-05
4.682341170585292502e+02 2.546232293964019642e-05
4.691345672836417862e+02 2.510488534826556153e-05
4.700350175087543789e+02 2.484984309528120967e-05
4.709354677338669148e+02 2.483857581519756760e-05
4.718359179589794508e+02 2.506282501159046177e-05
4.727363681840920435e+02 2.540414604173461309e-05
4.736368184092045794e+02 2.575724191905763612e-05
4.745372686343171154e+02 2.606561964288380925e-05
4.754377188594297081e+02 2.634385115117325956e-05
4.763381690845422440e+02 2.665703143675708992e-05
4.772386193096547800e+02 2.696908383602035936e-05
4.781390695347673727e+02 2.715761240285893770e-05
4.790395197598799086e+02 2.716499853611925434e-05
4.799399699849925014e+02 2.702253430695607719e-05
4.808404202101050373e+02 2.676800597370925430e-05
4.817408704352175732e+02 2.645382445705672154e-05
4.826413206603301660e+02 2.620514624613105070e-05
4.835417708854427019e+02 2.615887988408053234e-05
4.844422211105552378e+02 2.640972127611852051e-05
4.853426713356678306e+02 2.697384348364407312e-05
4.862431215607803665e+02 2.772785119957373078e-05
4.871435717858929024e+02 2.845562898360806773e-05
4.880440220110054952e+02 2.904044541135233215e-05
4.889444722361180311e+02 2.944609222386905694e-05
4.898449224612305670e+02 2.958850992064384510e-05
4.907453726863431598e+02 2.946447785756072920e-05
4.916458229114556957e+02 2.921013607192450698e-05
4.925462731365682885e+02 2.898563397191830190e-05
4.934467233616808244e+02 2.897940776176617051e-05
4.943471735867933603e+02 2.935530552895420010e-05
4.952476238119059531e+02 3.013254742366131133e-05
4.961480740370184890e+02 3.116038325962393400e-05
4.970485242621310249e+02 3.218842763792101639e-05
4.979489744872436177e+02 3.301610998725482864e-05
4.988494247123561536e+02 3.361000532622200577e-05
4.997498749374686895e+02 3.402305497743178270e-05
5.006503251625812823e+02 3.427919188426874339e-05
5.015507753876938182e+02 3.440381617553383734e-05
5.024512256128063541e+02 3.445546509252796820e-05
5.033516758379189469e+02 3.442378139858661551e-05
5.042521260630314828e+02 3.428869366141290380e-05
5.051525762881440755e+02 3.414865272869652466e-05
5.060530265132566115e+02 3.414428144921409703e-05
5.069534767383691474e+02 3.434281316148802551e-05
5.078539269634817401e+02 3.470093194409399516e-05
5.087543771885942760e+02 3.509211820162440060e-05
5.096548274137068120e+02 3.535311633181075327e-05
5.105552776388194047e+02 3.537146677686648489e-05
5.114557278639319406e+02 3.516382009045237675e-05
5.123561780890445334e+02 3.479387117722550286e-05
5.132566283141570693e+02 3.434794548757154456e-05
5.141570785392696052e+02 3.395197662041127160e-05
5.150575287643821412e+02 3.360210402850046890e-05
5.159579789894946771e+02 3.316880326967672497e-05
5.168584292146073267e+02 3.268240507896311273e-05
5.177588794397198626e+02 3.232747612409932506e-05
5.186593296648323985e+02 3.216758496516660261e-05
5.195597798899449344e+02 3.214653638559132533e-05
5.204602301150574704e+02 3.229140375061948512e-05
5.213606803401700063e+02 3.273550326116391368e-05
5.222611305652826559e+02 3.348147460712526120e-05
5.231615807903951918e+02 3.428573552729353253e-05
5.240620310155077277e+02 3.491154266076179727e-05
5.249624812406202636e+02 3.534983802425789421e-05
5.258629314657327996e+02 3.569919267676707688e-05
5.267633816908454492e+02 3.602720105986590582e-05
5.276638319159579851e+02 3.635396969096689609e-05
5.285642821410705210e+02 3.671292369190612209e-05
5.294647323661830569e+02 3.718118102272573514e-05
5.303651825912955928e+02 3.783834995454557948e-05
5.312656328164081287e+02 3.872602233822959529e-05
5.321660830415207784e+02 3.978471065084044462e-05
5.330665332666333143e+02 4.079842006126625250e-05
5.339669834917458502e+02 4.150274900393525302e-05
5.348674337168583861e+02 4.182684653284802709e-05
5.357678839419709220e+02 4.198343587784111202e-05
5.366683341670835716e+02 4.226569601175459464e-05
5.375687843921961075e+02 4.275918352843339885e-05
5.384692346173086435e+02 4.330869716223505222e-05
5.393696848424211794e+02 4.374563683220575262e-05
5.402701350675337153e+02 4.404485238535860609e-05
5.411705852926462512e+02 4.433818165121937704e-05
5.420710355177589008e+02 4.476134387275502595e-05
5.429714857428714367e+02 4.529805093497791407e-05
5.438719359679839727e+02 4.584156167699207071e-05
5.447723861930965086e+02 4.645634569343751609e-05
5.456728364182090445e+02 4.736229520971441934e-05
5.465732866433215804e+02 4.862516315067668727e-05
5.474737368684342300e+02 5.006935722127468699e-05
5.483741870935467659e+02 5.143127667292749780e-05
5.492746373186593019e+02 5.247782862195560948e-05
5.501750875437718378e+02 5.305503813495848119e-05
5.510755377688843737e+02 5.315292560022597006e-05
5.519759879939970233e+02 5.297748890935014313e-05
5.528764382191095592e+02 5.292236300392550184e-05
5.537768884442220951e+02 5.331656992649243612e-05
5.546773386693346310e+02 5.414384327983382672e-05
5.555777888944471670e+02 5.507938293087930617e-05
5.564782391195597029e+02 5.584020251763756169e-05
5.573786893446723525e+02 5.636919781509887756e-05
5.582791395697848884e+02 5.665793049697570463e-05
5.591795897948974243e+02 5.668529999460094173e-05
5.600800400200099602e+02 5.656894287892064231e-05
5.609804902451224962e+02 5.636272151908657669e-05
5.618809404702351458e+02 5.590719136112883215e-05
5.627813906953476817e+02 5.522903775778865179e-05
5.636818409204602176e+02 5.467488896619165960e-05
5.645822911455727535e+02 5.454213442706539985e-05
5.654827413706852894e+02 5.475326878704115660e-05
5.663831915957978254e+02 5.500129987951165515e-05
5.672836418209104750e+02 5.518553916769004884e-05
5.681840920460230109e+02 5.537896500120865210e-05
5.690845422711355468e+02 5.559002860688928583e-05
5.699849924962480827e+02 5.577821416592285711e-05
5.708854427213606186e+02 5.589087179486862427e-05
5.717858929464731546e+02 5.588724336282581770e-05
5.726863431715858042e+02 5.586534138108365416e-05
5.735867933966983401e+02 5.612284307404196381e-05
5.744872436218108760e+02 5.689525601753574722e-05
5.753876938469234119e+02 5.814690240062274791e-05
5.762881440720359478e+02 5.966749458871671894e-05
5.771885942971485974e+02 6.125403939885179581e-05
5.780890445222611334e+02 6.279463174596608215e-05
5.789894947473736693e+02 6.430124353949958163e-05
5.798899449724862052e+02 6.581638103192772476e-05
5.807903951975987411e+02 6.725159338194081602e-05
5.816908454227112770e+02 6.837020985533304618e-05
5.825912956478239266e+02 6.891065002890191000e-05
5.834917458729364625e+02 6.881263577532593131e-05
5.843921960980489985e+02 6.823737197141355453e-05
5.852926463231615344e+02 6.739732233444036740e-05
5.861930965482740703e+02 6.661429590626907478e-05
5.870935467733867199e+02 6.624870819933124369e-05
5.879939969984992558e+02 6.635858773860331405e-05
5.888944472236117917e+02 6.666085382962247180e-05
5.897948974487243277e+02 6.690782958032105189e-05
5.906953476738368636e+02 6.700502488588852914e-05
5.915957978989493995e+02 6.695025594886658065e-05
5.924962481240620491e+02 6.693360636490325267e-05
5.933966983491745850e+02 6.714411896475275515e-05
5.942971485742871209e+02 6.752264633697848057e-05
5.951975987993996569e+02 6.789223317767139200e-05
5.960980490245121928e+02 6.824651282943783412e-05
5.969984992496247287e+02 6.880769350190230125e-05
5.978989494747373783e+02 6.956120431388568195e-05
5.987993996998499142e+02 7.011060783190697682e-05
5.996998499249624501e+02 7.015520117503959386e-05
6.006003001500749860e+02 6.985158608445815208e-05
6.015007503751875220e+02 6.962146281973672116e-05
6.024012006003001716e+02 6.959357083060858050e-05
6.033016508254127075e+02 6.956393721649264386e-05
6.042021010505252434e+02 6.933427527634262490e-05
6.051025512756377793e+02 6.890632829274926177e-05
6.060030015007503152e+02 6.851572228253700663e-05
6.069034517258628512e+02 6.830042156590366577e-05
6.078039019509755008e+02 6.818859081774596891e-05
6.087043521760880367e+02 6.819838917583743033e-05
6.096048024012005726e+02 6.842072696357486689e-05
6.105052526263131085e+02 6.895798089132868913e-05
6.114057028514256444e+02 6.980030656030641238e-05
6.123061530765382940e+02 7.065977235940963956e-05
6.132066033016508300e+02 7.144488895562130205e-05
6.141070535267633659e+02 7.237110790497526753e-05
6.150075037518759018e+02 7.343595380916777358e-05
6.159079539769884377e+02 7.436667779247783645e-05
6.168084042021009736e+02 7.484679358813970936e-05
6.177088544272136232e+02 7.465268346065593880e-05
6.186093046523261592e+02 7.376250877976394109e-05
6.195097548774386951e+02 7.238670348666835421e-05
6.204102051025512310e+02 7.086304081899750357e-05
6.213106553276637669e+02 6.945084812812286142e-05
6.222111055527763028e+02 6.837754499202308104e-05
6.231115557778889524e+02 6.792059308629779261e-05
6.240120060030014884e+02 6.818957786545026812e-05
6.249124562281140243e+02 6.901821668164716196e-05
6.258129064532265602e+02 7.016482832116614809e-05
6.267133566783390961e+02 7.130601832801778523e-05
6.276138069034517457e+02 7.200381383161015667e-05
6.285142571285642816e+02 7.196941204050515139e-05
6.294147073536768175e+02 7.114940748904346351e-05
6.303151575787893535e+02 6.983790445350949885e-05
6.312156078039018894e+02 6.863794403700635034e-05
6.321160580290144253e+02 6.800037779682886817e-05
6.330165082541270749e+02 6.800539494071681872e-05
6.339169584792396108e+02 6.848364145874839728e-05
6.348174087043521467e+02 6.914482722547029376e-05
6.357178589294646827e+02 6.957690861072245397e-05
6.366183091545772186e+02 6.969484621619600649e-05
6.375187593796898682e+02 6.980089865734710730e-05
6.384192096048024041e+02 6.989148350962610739e-05
6.393196598299149400e+02 6.977013319002897023e-05
6.402201100550274759e+02 6.957642550172708654e-05
6.411205602801400119e+02 6.953264526906696350e-05
6.420210105052525478e+02 6.964411655677848329e-05
6.429214607303651974e+02 6.956667989351719564e-05
6.438219109554777333e+02 6.885755260782857787e-05
6.447223611805902692e+02 6.746707872706571567e-05
6.456228114057028051e+02 6.588689459154102167e-05
6.465232616308153411e+02 6.471499723715571815e-05
6.474237118559278770e+02 6.406585043938420191e-05
6.483241620810405266e+02 6.379591363888241257e-05
6.492246123061530625e+02 6.390622229573099779e-05
6.501250625312655984e+02 6.437145846496016639e-05
6.510255127563781343e+02 6.498928879674098112e-05
6.519259629814906702e+02 6.542377516671537630e-05
6.528264132066033198e+02 6.536507546143044791e-05
6.537268634317158558e+02 6.483361576855500906e-05
6.546273136568283917e+02 6.421074407018514192e-05
6.555277638819409276e+02 6.380602946313888391e-05
6.564282141070534635e+02 6.364111433001922986e-05
6.573286643321659994e+02 6.348952567691904219e-05
6.582291145572786490e+02 6.307117920290668429e-05
6.591295647823911850e+02 6.241038725687056692e-05
6.600300150075037209e+02 6.176080840898393802e-05
6.609304652326162568e+02 6.128135327570186249e-05
6.618309154577287927e+02 6.095572464211737682e-05
6.627313656828414423e+02 6.075044991339133895e-05
6.636318159079539782e+02 6.074335936531699538e-05
6.645322661330665142e+02 6.102968288148299041e-05
6.654327163581790501e+02 6.141996374239864565e-05
6.663331665832915860e+02 6.155925047480665150e-05
6.672336168084041219e+02 6.145012661518761633e-05
6.681340670335167715e+02 6.122946885265768610e-05
6.690345172586293074e+02 6.089165413096056284e-05
6.699349674837418434e+02 6.048053630532290210e-05
6.708354177088543793e+02 6.010142768485558150e-05
6.717358679339669152e+02 5.982789741247428314e-05
6.726363181590794511e+02 5.961098045965933657e-05
6.735367683841921007e+02 5.925975547958209426e-05
6.744372186093046366e+02 5.861043577762794799e-05
6.753376688344171725e+02 5.761184041497298657e-05
6.762381190595297085e+02 5.653694395529607210e-05
6.771385692846422444e+02 5.584114102439689537e-05
6.780390195097548940e+02 5.571457283323094542e-05
6.789394697348674299e+02 5.591514265103714410e-05
6.798399199599799658e+02 5.597822016609334912e-05
6.807403701850925017e+02 5.559831870791438763e-05
6.816408204102050377e+02 5.477782009233256517e-05
6.825412706353175736e+02 5.378231410848160343e-05
6.834417208604302232e+02 5.290761390913986645e-05
6.843421710855427591e+02 5.211170476621126106e-05
6.852426213106552950e+02 5.121444368538088997e-05
6.861430715357678309e+02 5.024968618951030936e-05
6.870435217608803669e+02 4.928724578457362653e-05
6.879439719859930165e+02 4.834863531445780593e-05
6.888444222111055524e+02 4.750416954850997486e-05
6.897448724362180883e+02 4.682262003917844778e-05
6.906453226613306242e+02 4.634289778776709367e-05
6.915457728864431601e+02 4.608653233532488801e-05
6.924462231115556961e+02 4.596940291751298619e-05
6.933466733366683457e+02 4.590502492916450164e-05
6.942471235617808816e+02 4.587589749866932698e-05
6.951475737868934175e+02 4.587599193437620778e-05
6.960480240120059534e+02 4.601149025681076476e-05
6.969484742371184893e+02 4.637297109501075602e-05
6.978489244622311389e+02 4.688153148905722657e-05
6.987493746873436749e+02 4.738342231967674413e-05
6.996498249124562108e+02 4.768662489940683492e-05
7.005502751375687467e+02 4.768204862815321639e-05
7.014507253626812826e+02 4.747443704031719134e-05
7.023511755877938185e+02 4.723854334776207800e-05
7.032516258129064681e+02 4.702031885674240832e-05
7.041520760380190040e+02 4.679024697988715516e-05
7.050525262631315400e+02 4.650021337887375256e-05
7.059529764882440759e+02 4.604538568460489652e-05
7.068534267133566118e+02 4.539111171190984346e-05
7.077538769384691477e+02 4.471266924837553707e-05
7.086543271635817973e+02 4.420717329647744762e-05
7.095547773886943332e+02 4.385093955535602421e-05
7.104552276138068692e+02 4.349260554719707155e-05
7.113556778389194051e+02 4.301886090821418411e-05
7.122561280640319410e+02 4.242620915075951326e-05
7.131565782891445906e+02 4.181060907319201575e-05
7.140570285142571265e+02 4.125535330861062288e-05
7.149574787393696624e+02 4.075653593630632787e-05
7.158579289644821984e+02 4.020867938459705390e-05
7.167583791895947343e+02 3.951506539595917971e-05
7.176588294147072702e+02 3.877599718708173561e-05
7.185592796398199198e+02 3.825720606379282273e-05
7.194597298649324557e+02 3.811109025851646911e-05
7.203601800900449916e+02 3.826828317676991565e-05
7.212606303151575275e+02 3.855005658719706113e-05
7.221610805402700635e+02 3.882797956298679519e-05
7.230615307653827131e+02 3.900776102751929691e-05
7.239619809904952490e+02 3.898768011769137713e-05
7.248624312156077849e+02 3.872537096958745916e-05
7.257628814407203208e+02 3.831024130958424374e-05
7.266633316658328567e+02 3.789796751399890991e-05
7.275637818909453927e+02 3.755792227201454981e-05
7.284642321160580423e+02 3.728563510817967005e-05
7.293646823411705782e+02 3.708539434800946910e-05
7.302651325662831141e+02 3.697122864117335906e-05
7.311655827913956500e+02 3.694354890757159908e-05
7.320660330165081859e+02 3.693178876356772148e-05
7.329664832416207219e+02 3.681580620951108266e-05
7.338669334667333715e+02 3.652780260307984019e-05
7.347673836918459074e+02 3.619467850660432141e-05
7.356678339169584433e+02 3.603052372377264122e-05
7.365682841420709792e+02 3.610321974053671673e-05
7.374687343671835151e+02 3.632808963208278394e-05
7.383691845922961647e+02 3.658599843845677235e-05
7.392696348174087007e+02 3.683193256597620374e-05
7.401700850425212366e+02 3.706807728512529875e-05
7.410705352676337725e+02 3.718369400903670790e-05
7.419709854927463084e+02 3.709302910547887646e-05
7.428714357178588443e+02 3.694727426443241043e-05
7.437718859429714939e+02 3.696607295425397770e-05
7.446723361680840299e+02 3.712021134083674827e-05
7.455727863931965658e+02 3.706606008889954811e-05
7.464732366183091017e+02 3.659242256902961113e-05
7.473736868434216376e+02 3.593274604917231059e-05
7.482741370685342872e+02 3.538557577696380054e-05
7.491745872936468231e+02 3.500715865505985946e-05
7.500750375187593590e+02 3.477876352227578401e-05
7.509754877438718950e+02 3.466484135117891061e-05
7.518759379689844309e+02 3.459604713835354238e-05
7.527763881940969668e+02 3.450071706158910700e-05
7.536768384192096164e+02 3.436480106572588350e-05
7.545772886443221523e+02 3.426019735494221038e-05
7.554777388694346882e+02 3.425166743860557186e-05
7.563781890945472242e+02 3.423475801520170508e-05
7.572786393196597601e+02 3.398876700581584880e-05
7.581790895447722960e+02 3.344433259473139896e-05
7.590795397698849456e+02 3.277287021619543298e-05
7.599799899949974815e+02 3.216514144971098130e-05
7.608804402201100174e+02 3.172787775338078536e-05
7.617808904452225534e+02 3.147911022588674185e-05
7.626813406703350893e+02 3.131154164527235429e-05
7.635817908954477389e+02 3.105609782042815142e-05
7.644822411205602748e+02 3.072060510900475022e-05
7.653826913456728107e+02 3.044045746197702109e-05
7.662831415707853466e+02 3.025335278608635113e-05
7.671835917958978825e+02 3.020624597850671996e-05
7.680840420210104185e+02 3.033792752861241203e-05
7.689844922461230681e+02 3.049964467036131780e-05
7.698849424712356040e+02 3.048131910496455085e-05
7.707853926963481399e+02 3.027329269561707513e-05
7.716858429214606758e+02 3.000308089680656096e-05
7.725862931465732117e+02 2.970932059447606920e-05
7.734867433716858613e+02 2.931489520740087484e-05
7.743871935967983973e+02 2.882830450998909893e-05
7.752876438219109332e+02 2.837632044953807055e-05
7.761880940470234691e+02 2.803690433138886410e-05
7.770885442721360050e+02 2.780289789255053901e-05
7.779889944972485409e+02 2.757210561047888835e-05
7.788894447223611905e+02 2.720985988843243776e-05
7.797898949474737265e+02 2.668968812202673779e-05
7.806903451725862624e+02 2.615436450170623037e-05
7.815907953976987983e+02 2.581599481127109941e-05
7.824912456228113342e+02 2.578250035963116764e-05
7.833916958479238701e+02 2.597777413850391653e-05
7.842921460730365197e+02 2.624194941232964949e-05
7.851925962981490557e+02 2.648050952090464199e-05
7.860930465232615916e+02 2.661632677698506306e-05
7.869934967483741275e+02 2.658503459809536822e-05
7.878939469734866634e+02 2.643338135263821492e-05
7.887943971985993130e+02 2.622288685793816202e-05
7.896948474237118489e+02 2.596680740727032676e-05
7.905952976488243849e+02 2.571182178457403282e-05
7.914957478739369208e+02 2.550669814067047710e-05
7.923961980990494567e+02 2.538018996013436792e-05
7.932966483241619926e+02 2.537896250564530132e-05
7.941970985492746422e+02 2.546039355825015755e-05
7.950975487743871781e+02 2.547203576179268969e-05
7.959979989994997140e+02 2.531770434717798245e-05
7.968984492246122500e+02 2.504478496362103280e-05
7.977988994497247859e+02 2.480229643857133611e-05
7.986993496748374355e+02 2.473214627115708200e-05
7.995997998999499714e+02 2.483335134729672996e-05
8.005002501250625073e+02 2.497862393684700629e-05
8.014007003501750432e+02 2.509336667099298834e-05
8.023011505752875792e+02 2.519407294790905875e-05
8.032016008004001151e+02 2.527442137298126546e-05
8.041020510255127647e+02 2.529173433008025240e-05
8.050025012506253006e+02 2.521238108264723480e-05
8.059029514757378365e+02 2.503177873084757538e-05
8.068034017008503724e+02 2.479922092992700269e-05
8.077038519259629084e+02 2.458540431706132646e-05
8.086043021510754443e+02 2.443568373448796484e-05
8.095047523761880939e+02 2.437084894177513601e-05
8.104052026013006298e+02 2.440481476722085324e-05
8.113056528264131657e+02 2.452360495368957524e-05
8.122061030515257016e+02 2.467200527777108949e-05
8.131065532766382375e+02 2.478423379364609968e-05
8.140070035017508872e+02 2.482423531947299523e-05
8.149074537268634231e+02 2.480419248124612297e-05
8.158079039519759590e+02 2.470950742965386462e-05
8.167083541770884949e+02 2.449801226733780567e-05
8.176088044022010308e+02 2.422384887433395894e-05
8.185092546273135667e+02 2.401996328588683937e-05
8.194097048524262163e+02 2.395301847011420071e-05
8.203101550775387523e+02 2.399867530680888203e-05
8.212106053026512882e+02 2.410825539984849043e-05
8.221110555277638241e+02 2.424421239137481934e-05
8.230115057528763600e+02 2.444118934988943805e-05
8.239119559779890096e+02 2.478325674864805111e-05
8.248124062031015455e+02 2.528739238809113592e-05
8.257128564282140815e+02 2.585464318047339921e-05
8.266133066533266174e+02 2.630602753935994099e-05
8.275137568784391533e+02 2.647672236183844173e-05
8.284142071035516892e+02 2.637872009755288288e-05
8.293146573286643388e+02 2.617107515447579652e-05
8.302151075537768747e+02 2.591350425555182167e-05
8.311155577788894107e+02 2.554810013996644850e-05
8.320160080040019466e+02 2.506200424242704253e-05
8.329164582291144825e+02 2.451236424472744675e-05
8.338169084542270184e+02 2.400670457185623491e-05
8.347173586793396680e+02 2.364471982224620799e-05
8.356178089044522039e+02 2.343128673645568486e-05
8.365182591295647399e+02 2.328358713090778961e-05
8.374187093546772758e+02 2.312946810833702355e-05
8.383191595797898117e+02 2.298000299438855758e-05
8.392196098049024613e+02 2.289819780380364047e-05
8.401200600300149972e+02 2.294874051690858364e-05
8.410205102551275331e+02 2.313013780386610714e-05
8.419209604802400690e+02 2.338345371980154322e-05
8.428214107053526050e+02 2.368430840828505071e-05
8.437218609304651409e+02 2.401181306700001639e-05
8.446223111555777905e+02 2.430988151097784026e-05
8.455227613806903264e+02 2.458062823214633648e-05
8.464232116058028623e+02 2.486174572841344968e-05
8.473236618309153982e+02 2.514859731525721995e-05
8.482241120560279342e+02 2.540162361945447664e-05
8.491245622811405838e+02 2.554855466324362873e-05
8.500250125062531197e+02 2.554256855902773272e-05
8.509254627313656556e+02 2.543133891635291635e-05
8.518259129564781915e+02 2.532195333744199578e-05
8.527263631815907274e+02 2.533580911329814806e-05
8.536268134067032634e+02 2.554910912170090139e-05
8.545272636318159130e+02 2.595982391947636634e-05
8.554277138569284489e+02 2.642856121071669427e-05
8.563281640820409848e+02 2.675907991078400303e-05
8.572286143071535207e+02 2.691037099301953344e-05
8.581290645322660566e+02 2.696999027808718829e-05
8.590295147573785925e+02 2.703521560860379030e-05
8.599299649824912422e+02 2.716405424604760149e-05
8.608304152076037781e+02 2.734272670251965264e-05
8.617308654327163140e+02 2.756510337037804763e-05
8.626313156578288499e+02 2.793869952170523213e-05
8.635317658829413858e+02 2.852471069802879180e-05
8.644322161080540354e+02 2.910560926401467336e-05
8.653326663331665713e+02 2.938937585493006427e-05
8.662331165582791073e+02 2.936687851204016628e-05
8.671335667833916432e+02 2.923057113148493961e-05
8.680340170085041791e+02 2.906188909694463210e-05
8.689344672336167150e+02 2.882294264105044482e-05
8.698349174587293646e+02 2.852619727464582853e-05
8.707353676838419005e+02 2.824733110303272640e-05
8.716358179089544365e+02 2.802167850884929972e-05
8.725362681340669724e+02 2.778691413071505430e-05
8.734367183591795083e+02 2.748694838083296283e-05
8.743371685842921579e+02 2.718456841186934339e-05
8.752376188094046938e+02 2.700283268455925734e-05
8.761380690345172297e+02 2.702602778938954537e-05
8.770385192596297657e+02 2.725558735509263868e-05
8.779389694847423016e+02 2.764892944240637376e-05
8.788394197098548375e+02 2.814870431586344595e-05
8.797398699349674871e+02 2.872144071267909710e-05
8.806403201600800230e+02 2.934589751781703263e-05
8.815407703851925589e+02 2.992733933034252817e-05
8.824412206103050949e+02 3.040758747665109552e-05
8.833416708354176308e+02 3.087536344059168679e-05
8.842421210605301667e+02 3.138484687445222091e-05
8.851425712856428163e+02 3.177474890008029362e-05
8.860430215107553522e+02 3.185568696632932063e-05
8.869434717358678881e+02 3.158644482828209762e-05
8.878439219609804240e+02 3.112358903084583425e-05
8.887443721860929600e+02 3.073592629150120095e-05
8.896448224112056096e+02 3.059253107017574495e-05
8.905452726363181455e+02 3.070686843432433096e-05
8.914457228614306814e+02 3.100056260982631570e-05
8.923461730865432173e+02 3.142804171229703937e-05
8.932466233116557532e+02 3.193626931928598257e-05
8.941470735367682892e+02 3.245609042935249181e-05
8.950475237618809388e+02 3.299430430765026872e-05
8.959479739869934747e+02 3.359679359441818884e-05
8.968484242121060106e+02 3.427911027921835564e-05
8.977488744372185465e+02 3.502567238057955614e-05
8.986493246623310824e+02 3.575879021884553077e-05
8.995497748874437320e+02 3.637842933452050726e-05
9.004502251125562680e+02 3.692366293640771975e-05
9.013506753376688039e+02 3.750516695730668433e-05
9.022511255627813398e+02 3.815051569211228249e-05
9.031515757878938757e+02 3.886785017015757316e-05
9.040520260130064116e+02 3.966124078781099391e-05
9.049524762381190612e+02 4.044302917435907408e-05
9.058529264632315972e+02 4.110909587301835494e-05
9.067533766883441331e+02 4.157355616703137100e-05
9.076538269134566690e+02 4.179500730773515513e-05
9.085542771385692049e+02 4.189568767329540769e-05
9.094547273636817408e+02 4.204463765503344306e-05
9.103551775887943904e+02 4.227441185302203915e-05
9.112556278139069263e+02 4.258979517475231912e-05
9.121560780390194623e+02 4.310634302262842613e-05
9.130565282641319982e+02 4.392837068130364193e-05
9.139569784892445341e+02 4.513673774644386697e-05
9.148574287143571837e+02 4.678785013311310091e-05
9.157578789394697196e+02 4.876761670882187062e-05
9.166583291645822555e+02 5.087479868617146068e-05
9.175587793896947915e+02 5.290916335838526802e-05
9.184592296148073274e+02 5.477859293530178559e-05
9.193596798399198633e+02 5.654647347104020335e-05
9.202601300650325129e+02 5.803133873125027742e-05
9.211605802901450488e+02 5.886756266219688154e-05
9.220610305152575847e+02 5.924006792236237087e-05
9.229614807403701207e+02 5.953444216305350893e-05
9.238619309654826566e+02 5.978589331899901877e-05
9.247623811905953062e+02 5.998047205751791069e-05
9.256628314157078421e+02 6.018004147531813753e-05
9.265632816408203780e+02 6.024760021164939880e-05
9.274637318659329139e+02 6.002673544036577651e-05
9.283641820910454499e+02 5.974134559276926207e-05
9.292646323161579858e+02 5.976621709292042603e-05
9.301650825412706354e+02 6.018299211071418683e-05
9.310655327663831713e+02 6.095110601597363497e-05
9.319659829914957072e+02 6.210793971229007200e-05
9.328664332166082431e+02 6.362708814507796672e-05
9.337668834417207790e+02 6.526809652268452473e-05
9.346673336668334287e+02 6.669656113067796055e-05
9.355677838919459646e+02 6.768486852691457038e-05
9.364682341170585005e+02 6.809566800304710113e-05
9.373686843421710364e+02 6.788442265896124509e-05
9.382691345672835723e+02 6.728613587512285879e-05
9.391695847923961082e+02 6.691981373043659009e-05
9.400700350175087578e+02 6.718080170295745576e-05
9.409704852426212938e+02 6.786738468407671324e-05
9.418709354677338297e+02 6.872216595582237772e-05
9.427713856928463656e+02 6.984975857526185190e-05
9.436718359179589015e+02 7.140346715502465921e-05
9.445722861430714374e+02 7.322254635236604304e-05
9.454727363681840870e+02 7.493859635826641892e-05
9.463731865932966230e+02 7.638450067743686662e-05
9.472736368184091589e+02 7.767964657733877486e-05
9.481740870435216948e+02 7.906510871241094300e-05
9.490745372686342307e+02 8.076206548396086136e-05
9.499749874937468803e+02 8.262129594606457768e-05
9.508754377188594162e+02 8.410477399107180218e-05
9.517758879439719522e+02 8.479822545762500546e-05
9.526763381690844881e+02 8.470532210223165608e-05
9.535767883941970240e+02 8.421755377511479115e-05
9.544772386193095599e+02 8.378232137165424198e-05
9.553776888444222095e+02 8.367784706590075802e-05
9.562781390695347454e+02 8.410360474527927557e-05
9.571785892946472813e+02 8.512112703397931056e-05
9.580790395197598173e+02 8.656897565164252677e-05
9.589794897448723532e+02 8.799991064148827806e-05
9.598799399699850028e+02 8.894834831344566168e-05
9.607803901950975387e+02 8.940055776564042808e-05
9.616808404202100746e+02 8.957731626029259871e-05
9.625812906453226105e+02 8.968222529310709986e-05
9.634817408704351465e+02 9.009226793727173892e-05
9.643821910955476824e+02 9.096229890841558453e-05
9.652826413206603320e+02 9.202790424804726740e-05
9.661830915457728679e+02 9.303394457509823470e-05
9.670835417708854038e+02 9.413532645620387238e-05
9.679839919959979397e+02 9.582910051786798901e-05
9.688844422211104757e+02 9.844967901672397052e-05
9.697848924462230116e+02 1.017477954870687405e-04
9.706853426713356612e+02 1.048902461181093796e-04
9.715857928964481971e+02 1.072336623479584029e-04
9.724862431215607330e+02 1.087602318769287591e-04
9.733866933466732689e+02 1.093087649165948175e-04
9.742871435717858049e+02 1.088663290010549126e-04
9.751875937968984545e+02 1.081878225225019039e-04
9.760880440220109904e+02 1.081079439119204955e-04
9.769884942471235263e+02 1.090288526704866402e-04
9.778889444722360622e+02 1.107059735919839065e-04
9.787893946973485981e+02 1.125504720868505259e-04
9.796898449224611340e+02 1.145488872147726930e-04
9.805902951475737837e+02 1.169907827890177046e-04
9.814907453726863196e+02 1.195697089700156767e-04
9.823911955977988555e+02 1.217210307359661901e-04
9.832916458229113914e+02 1.233337532791884761e-04
9.841920960480239273e+02 1.246894533933522251e-04
9.850925462731365769e+02 1.260269623261647213e-04
9.859929964982491128e+02 1.274181159592593850e-04
9.868934467233616488e+02 1.288555160446526601e-04
9.877938969484741847e+02 1.303402910236016227e-04
9.886943471735867206e+02 1.318074693214752716e-04
9.895947973986992565e+02 1.330012040269105153e-04
9.904952476238119061e+02 1.337654215219881762e-04
9.913956978489244420e+02 1.343521551392933022e-04
9.922961480740369780e+02 1.349478128120050198e-04
9.931965982991495139e+02 1.355423604735633771e-04
9.940970485242620498e+02 1.363412087838654417e-04
9.949974987493745857e+02 1.377322348091073541e-04
9.958979489744872353e+02 1.399241859133237549e-04
9.967983991995997712e+02 1.429673789604854169e-04
9.976988494247123072e+02 1.466841925645519305e-04
9.985992996498248431e+02 1.507576561624056940e-04
9.994997498749373790e+02 1.547234583883019821e-04
1.000400200100050029e+03 1.576672663856484911e-04
1.001300650325162565e+03 1.586649843625709039e-04
1.002201100550275100e+03 1.580158285946459237e-04
1.003101550775387636e+03 1.573398733926584540e-04
1.004002001000500172e+03 1.578835741315023152e-04
1.004902451225612708e+03 1.597866706645530046e-04
1.005802901450725358e+03 1.627808088568782961e-04
1.006703351675837894e+03 1.665718796418896711e-04
1.007603801900950430e+03 1.705386382060706456e-04
1.008504252126062966e+03 1.738770597767607599e-04
1.009404702351175501e+03 1.766032717904972293e-04
1.010305152576288151e+03 1.795323650628189382e-04
1.011205602801400687e+03 1.831604727293952896e-04
1.012106053026513223e+03 1.875940890064019598e-04
1.013006503251625759e+03 1.928881790068739401e-04
1.013906953476738295e+03 1.988242950460546242e-04
1.014807403701850831e+03 2.049057000357347468e-04
1.015707853926963480e+03 2.107756761554926397e-04
1.016608304152076016e+03 2.160740677469587777e-04
1.017508754377188552e+03 2.202826446697024165e-04
1.018409204602301088e+03 2.232592072987596855e-04
1.019309654827413624e+03 2.252261767817902713e-04
1.020210105052526160e+03 2.269497682852550748e-04
1.021110555277638809e+03 2.296338931828277499e-04
1.022011005502751345e+03 2.338438774515173867e-04
1.022911455727863881e+03 2.393122894414343230e-04
1.023811905952976417e+03 2.457700727519375309e-04
1.024712356178089067e+03 2.528029290471090428e-04
1.025612806403201603e+03 2.599330016415841191e-04
1.026513256628314139e+03 2.669408618853762898e-04
1.027413706853426675e+03 2.734264143322518380e-04
1.028314157078539210e+03 2.791618146546576899e-04
1.029214607303651746e+03 2.845229525448968524e-04
1.030115057528764282e+03 2.904487059644858256e-04
1.031015507753876818e+03 2.979733137627995840e-04
1.031915957978989354e+03 3.075357333754169835e-04
1.032816408204101890e+03 3.188479081067337770e-04
1.033716858429214653e+03 3.319097376160413493e-04
1.034617308654327189e+03 3.469721227238855492e-04
1.035517758879439725e+03 3.628073316927485012e-04
1.036418209104552261e+03 3.768466594690871572e-04
1.037318659329664797e+03 3.875978623954858568e-04
1.038219109554777333e+03 3.958022218277733838e-04
1.039119559779889869e+03 4.029102365393206044e-04
1.040020010005002405e+03 4.099749082352257580e-04
1.040920460230114941e+03 4.184248302400369614e-04
1.041820910455227477e+03 4.289000393751760966e-04
1.042721360680340013e+03 4.405861181547039837e-04
1.043621810905452776e+03 4.523970426915629030e-04
1.044522261130565312e+03 4.637022197691598202e-04
1.045422711355677848e+03 4.737513374021933271e-04
1.046323161580790384e+03 4.823502766987382371e-04
1.047223611805902920e+03 4.911651221938164846e-04
1.048124062031015455e+03 5.007349724381668496e-04
1.049024512256127991e+03 5.092267003060206316e-04
1.049924962481240527e+03 5.154703056846714464e-04
1.050825412706353063e+03 5.205755824294433336e-04
1.051725862931465599e+03 5.270325048346987621e-04
1.052626313156578135e+03 5.364800312061779276e-04
1.053526763381690898e+03 5.486337938784078671e-04
1.054427213606803434e+03 5.618992156879932176e-04
1.055327663831915970e+03 5.745494779444579271e-04
1.056228114057028506e+03 5.857812145932833094e-04
1.057128564282141042e+03 5.963878844941529218e-04
1.058029014507253578e+03 6.081246401071823543e-04
1.058929464732366114e+03 6.223812409652687647e-04
1.059829914957478650e+03 6.392351000543029923e-04
1.060730365182591186e+03 6.569663516615920290e-04
1.061630815407703722e+03 6.714623887015502791e-04
1.062531265632816257e+03 6.786668352483336830e-04
1.063431715857929021e+03 6.798321797516573579e-04
1.064332166083041557e+03 6.791637697377431518e-04
1.065232616308154093e+03 6.781659209570222282e-04
1.066133066533266629e+03 6.771927092487937732e-04
1.067033516758379164e+03 6.784653363305746679e-04
1.067933966983491700e+03 6.830180877633992755e-04
1.068834417208604236e+03 6.888099796711191552e-04
1.069734867433716772e+03 6.917139316698362730e-04
1.070635317658829308e+03 6.883034524022096879e-04
1.071535767883941844e+03 6.801332704435375477e-04
1.072436218109054380e+03 6.714726157947467893e-04
1.073336668334167143e+03 6.637278001557423606e-04
1.074237118559279679e+03 6.561249402112183512e-04
1.075137568784392215e+03 6.482767185108081814e-04
1.076038019009504751e+03 6.411343397227057140e-04
1.076938469234617287e+03 6.361557587019814591e-04
1.077838919459729823e+03 6.331824178398484789e-04
1.078739369684842359e+03 6.314552566012573368e-04
1.079639819909954895e+03 6.308533139915672430e-04
1.080540270135067431e+03 6.313623130573862248e-04
1.081440720360179967e+03 6.328702903818563680e-04
1.082341170585292502e+03 6.352247211595580569e-04
1.083241620810405038e+03 6.383161509809552690e-04
1.084142071035517802e+03 6.421465720877234541e-04
1.085042521260630338e+03 6.451016467340022105e-04
1.085942971485742873e+03 6.444514549245030028e-04
1.086843421710855409e+03 6.387723969777409517e-04
1.087743871935967945e+03 6.289008785478452041e-04
1.088644322161080481e+03 6.173998076934797278e-04
1.089544772386193017e+03 6.077838548251072700e-04
1.090445222611305553e+03 6.019155268373050770e-04
1.091345672836418089e+03 5.980450423414630833e-04
1.092246123061530625e+03 5.933585075169423104e-04
1.093146573286643161e+03 5.861297718596163815e-04
1.094047023511755924e+03 5.761463425658996202e-04
1.094947473736868460e+03 5.655056596252151270e-04
1.095847923961980996e+03 5.578011701212770047e-04
1.096748374187093532e+03 5.545115293802028045e-04
1.097648824412206068e+03 5.535602749185030346e-04
1.098549274637318604e+03 5.512320593928200048e-04
1.099449724862431140e+03 5.449537690112659467e-04
1.100350175087543676e+03 5.360458538579411340e-04
1.101250625312656211e+03 5.282278636024426328e-04
1.102151075537768747e+03 5.236852420912638901e-04
1.103051525762881283e+03 5.218320566686131213e-04
1.103951975987994047e+03 5.200439743373489561e-04
1.104852426213106583e+03 5.147523502020452538e-04
1.105752876438219118e+03 5.023732907632460229e-04
1.106653326663331654e+03 4.824277642460933382e-04
1.107553776888444190e+03 4.598525065036107150e-04
1.108454227113556726e+03 4.403841463177418213e-04
1.109354677338669262e+03 4.249823186564113345e-04
1.110255127563781798e+03 4.114652933107983026e-04
1.111155577788894334e+03 3.992776937047250846e-04
1.112056028014006870e+03 3.894376389076272351e-04
1.112956478239119406e+03 3.819515982176872491e-04
1.113856928464232169e+03 3.753781958291833236e-04
1.114757378689344705e+03 3.680687442104219531e-04
1.115657828914457241e+03 3.590462120865930431e-04
1.116558279139569777e+03 3.480021953091455176e-04
1.117458729364682313e+03 3.356208506166084697e-04
1.118359179589794849e+03 3.231435262254483813e-04
1.119259629814907385e+03 3.105052349368447005e-04
1.120160080040019920e+03 2.976671996604310865e-04
1.121060530265132456e+03 2.863245931666637007e-04
1.121960980490244992e+03 2.775675712885105240e-04
1.122861430715357528e+03 2.709417598189063268e-04
1.123761880940470292e+03 2.651001665686306802e-04
1.124662331165582827e+03 2.588270995774767918e-04
1.125562781390695363e+03 2.529089805170444956e-04
1.126463231615807899e+03 2.483615559405217567e-04
1.127363681840920435e+03 2.449712260428946035e-04
1.128264132066032971e+03 2.428093808187963909e-04
1.129164582291145507e+03 2.416424465898484367e-04
1.130065032516258043e+03 2.392418593965130820e-04
1.130965482741370579e+03 2.328633115322945729e-04
1.131865932966483115e+03 2.224314890755344778e-04
1.132766383191595651e+03 2.108664310537305346e-04
1.133666833416708187e+03 2.011524801072268843e-04
1.134567283641820950e+03 1.941483662558937760e-04
1.135467733866933486e+03 1.889975176829798102e-04
1.136368184092046022e+03 1.836299962117992105e-04
1.137268634317158558e+03 1.768720959937067003e-04
1.138169084542271094e+03 1.691851153914657787e-04
1.139069534767383630e+03 1.609008088869987041e-04
1.139969984992496165e+03 1.524062033953929802e-04
1.140870435217608701e+03 1.444800168339836148e-04
1.141770885442721237e+03 1.374317508866741342e-04
1.142671335667833773e+03 1.311513358591708293e-04
1.143571785892946309e+03 1.258425373687524474e-04
1.144472236118059072e+03 1.218860499631486949e-04
1.145372686343171608e+03 1.193328862356926221e-04
1.146273136568284144e+03 1.180513774144401664e-04
1.147173586793396680e+03 1.174774786303864099e-04
1.148074037018509216e+03 1.159249979048366684e-04
1.148974487243621752e+03 1.121013296488567308e-04
1.149874937468734288e+03 1.068610339796017037e-04
1.150775387693846824e+03 1.018361959020705314e-04
1.151675837918959360e+03 9.773046224277254289e-05
1.152576288144071896e+03 9.431181078492113378e-05
1.153476738369184432e+03 9.130817671264694385e-05
1.154377188594297195e+03 8.880087328732372482e-05
1.155277638819409731e+03 8.707857900566250261e-05
1.156178089044522267e+03 8.635829783566027090e-05
1.157078539269634803e+03 8.668109929618803119e-05
1.157978989494747339e+03 8.782629196745294991e-05
1.158879439719859874e+03 8.938477415066159513e-05
1.159779889944972410e+03 9.097947973512149854e-05
1.160680340170084946e+03 9.247994604574793218e-05
1.161580790395197482e+03 9.394064646996973125e-05
1.162481240620310018e+03 9.542591049695918828e-05
1.163381690845422554e+03 9.713966753159715677e-05
1.164282141070535317e+03 9.915558305099944375e-05
1.165182591295647853e+03 1.010695161573777075e-04
1.166083041520760389e+03 1.020513543935454097e-04
1.166983491745872925e+03 1.019123580684850824e-04
1.167883941970985461e+03 1.014913954202841841e-04
1.168784392196097997e+03 1.014389404863389946e-04
1.169684842421210533e+03 1.016551022877269149e-04
1.170585292646323069e+03 1.017906522645963246e-04
1.171485742871435605e+03 1.019246406617067862e-04
1.172386193096548141e+03 1.022777032501268030e-04
1.173286643321660677e+03 1.028618725269735270e-04
1.174187093546773440e+03 1.039333814183304142e-04
1.175087543771885976e+03 1.060667321363423395e-04
1.175987993996998512e+03 1.093423441058743398e-04
1.176888444222111048e+03 1.128510947004805921e-04
1.177788894447223583e+03 1.154325642483192534e-04
1.178689344672336119e+03 1.168196232032448493e-04
1.179589794897448655e+03 1.179597072565909799e-04
1.180490245122561191e+03 1.199613719102660917e-04
1.181390695347673727e+03 1.230418288472559963e-04
1.182291145572786263e+03 1.265585627113370029e-04
1.183191595797898799e+03 1.299980281853563226e-04
1.184092046023011562e+03 1.336741066054892419e-04
1.184992496248124098e+03 1.382182645522548150e-04
1.185892946473236634e+03 1.438155891262228939e-04
1.186793396698349170e+03 1.500030872498842450e-04
1.187693846923461706e+03 1.557925257452418585e-04
1.188594297148574242e+03 1.604833763506964312e-04
1.189494747373686778e+03 1.639307630012526581e-04
1.190395197598799314e+03 1.660912712853527629e-04
1.191295647823911850e+03 1.671577105408063671e-04
1.192196098049024386e+03 1.677656544232054901e-04
1.193096548274136921e+03 1.685332909013214308e-04
1.193996998499249457e+03 1.695654733583287104e-04
1.194897448724362221e+03 1.706189441126894607e-04
1.195797898949474757e+03 1.716869579869170304e-04
1.196698349174587293e+03 1.734501446330866906e-04
1.197598799399699828e+03 1.767161985642384499e-04
1.198499249624812364e+03 1.815253878758523484e-04
1.199399699849924900e+03 1.873679811607794374e-04
1.200300150075037436e+03 1.937480471497158153e-04
1.201200600300149972e+03 2.003458449084212967e-04
1.202101050525262508e+03 2.068540626390917439e-04
1.203001500750375044e+03 2.130231891793887443e-04
1.203901950975487580e+03 2.188391974586760341e-04
1.204802401200600343e+03 2.244721348708555607e-04
1.205702851425712879e+03 2.300989773309599002e-04
1.206603301650825415e+03 2.356236322621220426e-04
1.207503751875937951e+03 2.403708533582591691e-04
1.208404202101050487e+03 2.437707397605216712e-04
1.209304652326163023e+03 2.461161747537523215e-04
1.210205102551275559e+03 2.481011357412207558e-04
1.211105552776388095e+03 2.505761769681364554e-04
1.212006003001500630e+03 2.541716282780672972e-04
1.212906453226613166e+03 2.582938265475734829e-04
1.213806903451725702e+03 2.618929578774846934e-04
1.214707353676838466e+03 2.649829712418580755e-04
1.215607803901951002e+03 2.687145256314286035e-04
1.216508254127063537e+03 2.742776885750481796e-04
1.217408704352176073e+03 2.820149509822103247e-04
1.218309154577288609e+03 2.907965758099944243e-04
1.219209604802401145e+03 2.980776738829058565e-04
1.220110055027513681e+03 3.023541257753631188e-04
1.221010505252626217e+03 3.054877859424208020e-04
1.221910955477738753e+03 3.108446677495316744e-04
1.222811405702851289e+03 3.201640111176197435e-04
1.223711855927963825e+03 3.329159248717158135e-04
1.224612306153076588e+03 3.469900299181136508e-04
1.225512756378189124e+03 3.592494774427843797e-04
1.226413206603301660e+03 3.676551160294000528e-04
1.227313656828414196e+03 3.729087066030329495e-04
1.228214107053526732e+03 3.775563337258248898e-04
1.229114557278639268e+03 3.849015639923571500e-04
1.230015007503751804e+03 3.979660387555571176e-04
1.230915457728864340e+03 4.180325465351541407e-04
1.231815907953976875e+03 4.434893061284540566e-04
1.232716358179089411e+03 4.703718863656033912e-04
1.233616808404201947e+03 4.949026306140844695e-04
1.234517258629314711e+03 5.164377833966853201e-04
1.235417708854427246e+03 5.365712772824225100e-04
1.236318159079539782e+03 5.562704766168060115e-04
1.237218609304652318e+03 5.751297728843430754e-04
1.238119059529764854e+03 5.917244204794174130e-04
1.239019509754877390e+03 6.047450182660568099e-04
1.239919959979989926e+03 6.148388756312708715e-04
1.240820410205102462e+03 6.247511381127863941e-04
1.241720860430214998e+03 6.371857169790682033e-04
1.242621310655327534e+03 6.521287413325056650e-04
1.243521760880440070e+03 6.668557801734466229e-04
1.244422211105552606e+03 6.789216539523545892e-04
1.245322661330665369e+03 6.878048279427300847e-04
1.246223111555777905e+03 6.932563014562483691e-04
1.247123561780890441e+03 6.951704040402868507e-04
1.248024012006002977e+03 6.941975394239855357e-04
1.248924462231115513e+03 6.909478430438301903e-04
1.249824912456228049e+03 6.866860363069524987e-04
1.250725362681340584e+03 6.829002513267134122e-04
1.251625812906453120e+03 6.799044680665748122e-04
1.252526263131565656e+03 6.775196781990823047e-04
1.253426713356678192e+03 6.758915795722641746e-04
1.254327163581790728e+03 6.757806157944307038e-04
1.255227613806903491e+03 6.777587424194843812e-04
1.256128064032016027e+03 6.819988079518437326e-04
1.257028514257128563e+03 6.884726830477848683e-04
1.257928964482241099e+03 6.974035081358106406e-04
1.258829414707353635e+03 7.097977270712003050e-04
1.259729864932466171e+03 7.256626230305318614e-04
1.260630315157578707e+03 7.430046339810301255e-04
1.261530765382691243e+03 7.599727061951619530e-04
1.262431215607803779e+03 7.758727866407909594e-04
1.263331665832916315e+03 7.903420914557374903e-04
1.264232116058028851e+03 8.028837053112249014e-04
1.265132566283141614e+03 8.133773572452893423e-04
1.266033016508254150e+03 8.218961470896624100e-04
1.266933466733366686e+03 8.285461420820108619e-04
1.267833916958479222e+03 8.346475474259469054e-04
1.268734367183591758e+03 8.429243268043608035e-04
1.269634817408704293e+03 8.562522758115869489e-04
1.270535267633816829e+03 8.753576321880339114e-04
1.271435717858929365e+03 8.977320638587330155e-04
1.272336168084041901e+03 9.198672375391817859e-04
1.273236618309154437e+03 9.398925643626141564e-04
1.274137068534266973e+03 9.583313190534793660e-04
1.275037518759379736e+03 9.773653058614845818e-04
1.275937968984492272e+03 9.982862231168176947e-04
1.276838419209604808e+03 1.021183527583108871e-03
1.277738869434717344e+03 1.045530716400649117e-03
1.278639319659829880e+03 1.069690333027606237e-03
1.279539769884942416e+03 1.091035790961847633e-03
1.280440220110054952e+03 1.107661887922702830e-03
1.281340670335167488e+03 1.119829049761435560e-03
1.282241120560280024e+03 1.129973888683246394e-03
1.283141570785392560e+03 1.140718459629900747e-03
1.284042021010505096e+03 1.152460410540342723e-03
1.284942471235617859e+03 1.165279420844504395e-03
1.285842921460730395e+03 1.181468829126512210e-03
1.286743371685842931e+03 1.201968624201917458e-03
1.287643821910955467e+03 1.223367289148060691e-03
1.288544272136068003e+03 1.240506397459392816e-03
1.289444722361180538e+03 1.250861906095333560e-03
1.290345172586293074e+03 1.255928759616380553e-03
1.291245622811405610e+03 1.259189535961344501e-03
1.292146073036518146e+03 1.262653854925024520e-03
1.293046523261630682e+03 1.266426251319366977e-03
1.293946973486743218e+03 1.271807067544346651e-03
1.294847423711855754e+03 1.281249702740747468e-03
1.295747873936968517e+03 1.295965200333710609e-03
1.296648324162081053e+03 1.315132761330446275e-03
1.297548774387193589e+03 1.336674464916459649e-03
1.298449224612306125e+03 1.359015358376123141e-03
1.299349674837418661e+03 1.380700823662075073e-03
1.300250125062531197e+03 1.399357613023630717e-03
1.301150575287643733e+03 1.413591899210642645e-03
1.302051025512756269e+03 1.424780459151437631e-03
1.302951475737868805e+03 1.436589955718987725e-03
1.303851925962981340e+03 1.453871083129346315e-03
1.304752376188093876e+03 1.478807931907751873e-03
1.305652826413206640e+03 1.508463989957167274e-03
1.306553276638319176e+03 1.536496822904748509e-03
1.307453726863431712e+03 1.558452272505874087e-03
1.308354177088544247e+03 1.577421457904453145e-03
1.309254627313656783e+03 1.600663382692368679e-03
1.310155077538769319e+03 1.631527426138867920e-03
1.311055527763881855e+03 1.666697866822259341e-03
1.311955977988994391e+03 1.701165865412311183e-03
1.312856428214106927e+03 1.734535612722418315e-03
1.313756878439219463e+03 1.770598013899750888e-03
1.314657328664331999e+03 1.813923673251159521e-03
1.315557778889444762e+03 1.867313345688325407e-03
1.316458229114557298e+03 1.927588564323951762e-03
1.317358679339669834e+03 1.986367027000289758e-03
1.318259129564782370e+03 2.037651665219732296e-03
1.319159579789894906e+03 2.083487353863284781e-03
1.320060030015007442e+03 2.130742962351135986e-03
1.320960480240119978e+03 2.183424664487407154e-03
1.321860930465232514e+03 2.242874649028207650e-03
1.322761380690345050e+03 2.307819435914188009e-03
1.323661830915457585e+03 2.371139846783741189e-03
1.324562281140570121e+03 2.425393059094610795e-03
1.325462731365682885e+03 2.471051237418864666e-03
1.326363181590795421e+03 2.515762677186171234e-03
1.327263631815907956e+03 2.566293349168534670e-03
1.328164082041020492e+03 2.625473708773436339e-03
1.329064532266133028e+03 2.693875475615691018e-03
1.329964982491245564e+03 2.771522923762023260e-03
1.330865432716358100e+03 2.859204136872799725e-03
1.331765882941470636e+03 2.953225352404578903e-03
1.332666333166583172e+03 3.045761074382528476e-03
1.333566783391695708e+03 3.134280578845849864e-03
1.334467233616808244e+03 3.221598668446852120e-03
1.335367683841921007e+03 3.309120098509560782e-03
1.336268134067033543e+03 3.398882658125070271e-03
1.337168584292146079e+03 3.495607378028852113e-03
1.338069034517258615e+03 3.600067309656541058e-03
1.338969484742371151e+03 3.707984992568183567e-03
1.339869934967483687e+03 3.816339271023196263e-03
1.340770385192596223e+03 3.927361004767606321e-03
1.341670835417708759e+03 4.047069971112491130e-03
1.342571285642821294e+03 4.179621381014869512e-03
1.343471735867933830e+03 4.335040328894709284e-03
1.344372186093046366e+03 4.524893511483979620e-03
1.345272636318158902e+03 4.740261093514220626e-03
1.346173086543271666e+03 4.951344658496416133e-03
1.347073536768384201e+03 5.135607779972256419e-03
1.347973986993496737e+03 5.294705883964612690e-03
1.348874437218609273e+03 5.443313526616593186e-03
1.349774887443721809e+03 5.585196697741108551e-03
1.350675337668834345e+03 5.710699857494865549e-03
1.351575787893946881e+03 5.820263583919710326e-03
1.352476238119059417e+03 5.929650755770355004e-03
1.353376688344171953e+03 6.056132059913480956e-03
1.354277138569284489e+03 6.204660946029391839e-03
1.355177588794397025e+03 6.369265858486326988e-03
1.356078039019509788e+03 6.547873573627092068e-03
1.356978489244622324e+03 6.750850941518256668e-03
1.357878939469734860e+03 6.988807287010733414e-03
1.358779389694847396e+03 7.249882208323147822e-03
1.359679839919959932e+03 7.516184411915199405e-03
1.360580290145072468e+03 7.782768801252275270e-03
1.361480740370185003e+03 8.035866394669351903e-03
1.362381190595297539e+03 8.261401673247566885e-03
1.363281640820410075e+03 8.475600754144500121e-03
1.364182091045522611e+03 8.708783002209825527e-03
1.365082541270635147e+03 8.983237676973824040e-03
1.365982991495747910e+03 9.312606028479478507e-03
1.366883441720860446e+03 9.680310104278846972e-03
1.367783891945972982e+03 1.004495984233592411e-02
1.368684342171085518e+03 1.039048712523954650e-02
1.369584792396198054e+03 1.073628415672636151e-02
1.370485242621310590e+03 1.109716490094436042e-02
1.371385692846423126e+03 1.147171536765087194e-02
1.372286143071535662e+03 1.186193895493318183e-02
1.373186593296648198e+03 1.227175724154334034e-02
1.374087043521760734e+03 1.269474653896751799e-02
1.374987493746873270e+03 1.312201584535506449e-02
1.375887943971986033e+03 1.353885908184905909e-02
1.376788394197098569e+03 1.394540516021817306e-02
1.377688844422211105e+03 1.436577006555623398e-02
1.378589294647323641e+03 1.482905919862943962e-02
1.379489744872436177e+03 1.537591782670678572e-02
1.380390195097548713e+03 1.605027268170422169e-02
1.381290645322661248e+03 1.688976262798983982e-02
1.382191095547773784e+03 1.790798715102259395e-02
1.383091545772886320e+03 1.907132953911674575e-02
1.383991995997998856e+03 2.032853366733328171e-02
1.384892446223111392e+03 2.163933241546291478e-02
1.385792896448224155e+03 2.296949620686112442e-02
1.386693346673336691e+03 2.435963774380622837e-02
1.387593796898449227e+03 2.589918543946052518e-02
1.388494247123561763e+03 2.757481606713350908e-02
1.389394697348674299e+03 2.928626797895776679e-02
1.390295147573786835e+03 3.097103364568810566e-02
1.391195597798899371e+03 3.264493764348712357e-02
1.392096048024011907e+03 3.431107025433181856e-02
1.392996498249124443e+03 3.589630440757139718e-02
1.393896948474236979e+03 3.736496686701538950e-02
1.394797398699349515e+03 3.873339364549032576e-02
1.395697848924462278e+03 3.998845355590323336e-02
1.396598299149574814e+03 4.118094356653082683e-02
1.397498749374687350e+03 4.237940120556202978e-02
1.398399199599799886e+03 4.346917785974101223e-02
1.399299649824912422e+03 4.424725949877179876e-02
1.400200100050024957e+03 4.456328226082291455e-02
1.401100550275137493e+03 4.425136502580450520e-02
1.402001000500250029e+03 4.323463323898927430e-02
1.402901450725362565e+03 4.158521979763722676e-02
1.403801900950475101e+03 3.939775041149475021e-02
1.404702351175587637e+03 3.680213629185630220e-02
1.405602801400700173e+03 3.401766345758169829e-02
1.406503251625812936e+03 3.130632154818960289e-02
1.407403701850925472e+03 2.883894779771321512e-02
1.408304152076038008e+03 2.658722059515752217e-02
1.409204602301150544e+03 2.443335203518607820e-02
1.410105052526263080e+03 2.236474972555551471e-02
1.411005502751375616e+03 2.045964200904045252e-02
1.411905952976488152e+03 1.874333486057751588e-02
1.412806403201600688e+03 1.718656749482864662e-02
1.413706853426713224e+03 1.576044243894169847e-02
1.414607303651825760e+03 1.445870004627534608e-02
1.415507753876938295e+03 1.330038406926014466e-02
1.416408204102051059e+03 1.228239982263392219e-02
1.417308654327163595e+03 1.138376770772526331e-02
1.418209104552276131e+03 1.060744896752068706e-02
1.419109554777388666e+03 9.951474213650722198e-03
1.420010005002501202e+03 9.377399458596577184e-03
1.420910455227613738e+03 8.834521394481155768e-03
1.421810905452726274e+03 8.297159595443501928e-03
1.422711355677838810e+03 7.772272325974197496e-03
1.423611805902951346e+03 7.278079330948401295e-03
1.424512256128063882e+03 6.815916245984373484e-03
1.425412706353176418e+03 6.376791566008897447e-03
1.426313156578289181e+03 5.965617317597941317e-03
1.427213606803401717e+03 5.596113563761205903e-03
1.428114057028514253e+03 5.276119788013827056e-03
1.429014507253626789e+03 5.004709132587393736e-03
1.429914957478739325e+03 4.781329379017028661e-03
1.430815407703851861e+03 4.600242226215694660e-03
1.431715857928964397e+03 4.441704150840190476e-03
1.432616308154076933e+03 4.282005770141157630e-03
1.433516758379189469e+03 4.107549708049125677e-03
1.434417208604302004e+03 3.921953549101351785e-03
1.435317658829414540e+03 3.738506849054436514e-03
1.436218109054527304e+03 3.568349724344731504e-03
1.437118559279639840e+03 3.417400011582687625e-03
1.438019009504752376e+03 3.287041036574098879e-03
1.438919459729864911e+03 3.174140850142906367e-03
1.439819909954977447e+03 3.073255079823606923e-03
1.440720360180089983e+03 2.981056439216419468e-03
1.441620810405202519e+03 2.898052182859153520e-03
1.442521260630315055e+03 2.821886896815908007e-03
1.443421710855427591e+03 2.746291734029942828e-03
1.444322161080540127e+03 2.665850680694796093e-03
1.445222611305652663e+03 2.580655006163532633e-03
1.446123061530765426e+03 2.497271475523699536e-03
1.447023511755877962e+03 2.421921701822519861e-03
1.447923961980990498e+03 2.355130420219296410e-03
1.448824412206103034e+03 2.291438362028668137e-03
1.449724862431215570e+03 2.223913308045087373e-03
1.450625312656328106e+03 2.147073347508530843e-03
1.451525762881440642e+03 2.063115314377411171e-03
1.452426213106553178e+03 1.982073055413847984e-03
1.453326663331665713e+03 1.912922220586550171e-03
1.454227113556778249e+03 1.860602722779975890e-03
1.455127563781890785e+03 1.826241339989343902e-03
1.456028014007003321e+03 1.803849567400388123e-03
1.456928464232116085e+03 1.782775797638305564e-03
1.457828914457228620e+03 1.754873555468677675e-03
1.458729364682341156e+03 1.718135139486232869e-03
1.459629814907453692e+03 1.675603716617479018e-03
1.460530265132566228e+03 1.628595685414637633e-03
1.461430715357678764e+03 1.575424658870128560e-03
1.462331165582791300e+03 1.517948488911657554e-03
1.463231615807903836e+03 1.462974424752590003e-03
1.464132066033016372e+03 1.416823312386477360e-03
1.465032516258128908e+03 1.380957582930386184e-03
1.465932966483241444e+03 1.353762125537755646e-03
1.466833416708354207e+03 1.333860841874795434e-03
1.467733866933466743e+03 1.321185447326411267e-03
1.468634317158579279e+03 1.316234654897568360e-03
1.469534767383691815e+03 1.316361397043900195e-03
1.470435217608804351e+03 1.313654124605359271e-03
1.471335667833916887e+03 1.302364020760601654e-03
1.472236118059029423e+03 1.284378492740808307e-03
1.473136568284141958e+03 1.264861686209638745e-03
1.474037018509254494e+03 1.245519671140168450e-03
1.474937468734367030e+03 1.224639469927531589e-03
1.475837918959479566e+03 1.201781844320130377e-03
1.476738369184592329e+03 1.177410003902282839e-03
1.477638819409704865e+03 1.153047797321365107e-03
1.478539269634817401e+03 1.130040730951838894e-03
1.479439719859929937e+03 1.106047997079492298e-03
1.480340170085042473e+03 1.077629984846856931e-03
1.481240620310155009e+03 1.045701005586878625e-03
1.482141070535267545e+03 1.014894063501329538e-03
1.483041520760380081e+03 9.897000349054156220e-04
1.483941970985492617e+03 9.719101771302656248e-04
1.484842421210605153e+03 9.597474659280525941e-04
1.485742871435717689e+03 9.502489962944598006e-04
1.486643321660830452e+03 9.419623562354233941e-04
1.487543771885942988e+03 9.342863074630944733e-04
1.488444222111055524e+03 9.254032617204560607e-04
1.489344672336168060e+03 9.139538779385027222e-04
1.490245122561280596e+03 9.012961088466341780e-04
1.491145572786393132e+03 8.888258360603808542e-04
1.492046023011505667e+03 8.770515895684948297e-04
1.492946473236618203e+03 8.665433328958479326e-04
1.493846923461730739e+03 8.575197739644946533e-04
1.494747373686843275e+03 8.498058064366508825e-04
1.495647823911955811e+03 8.450148171041741959e-04
1.496548274137068574e+03 8.448844336725892237e-04
1.497448724362181110e+03 8.464429435257705189e-04
1.498349174587293646e+03 8.444513090129961499e-04
1.499249624812406182e+03 8.359318286886343588e-04
1.500150075037518718e+03 8.197174454885837111e-04
1.501050525262631254e+03 7.968910653802374492e-04
1.501950975487743790e+03 7.727507276510650527e-04
1.502851425712856326e+03 7.542444094325150700e-04
1.503751875937968862e+03 7.429960472657529428e-04
1.504652326163081398e+03 7.338072499942394512e-04
1.505552776388193934e+03 7.203425214379298447e-04
1.506453226613306470e+03 7.018480513588808319e-04
1.507353676838419233e+03 6.822933024513402802e-04
1.508254127063531769e+03 6.639196151928984787e-04
1.509154577288644305e+03 6.462375960373385438e-04
1.510055027513756841e+03 6.295974176951648835e-04
1.510955477738869376e+03 6.175033776338932721e-04
1.511855927963981912e+03 6.134447668306527860e-04
1.512756378189094448e+03 6.156884410560349878e-04
1.513656828414206984e+03 6.187382092599219693e-04
1.514557278639319520e+03 6.194657280711179676e-04
1.515457728864432056e+03 6.185145626093913876e-04
1.516358179089544592e+03 6.167239357566225901e-04
1.517258629314657355e+03 6.126433656415388113e-04
1.518159079539769891e+03 6.042130470553456600e-04
1.519059529764882427e+03 5.918562749092861784e-04
1.519959979989994963e+03 5.791079001841814653e-04
1.520860430215107499e+03 5.690107899436942264e-04
1.521760880440220035e+03 5.607880435760965055e-04
1.522661330665332571e+03 5.515920418348941104e-04
1.523561780890445107e+03 5.402191040369822483e-04
1.524462231115557643e+03 5.267935619229066526e-04
1.525362681340670179e+03 5.119215430447638130e-04
1.526263131565782714e+03 4.972809852860237854e-04
1.527163581790895478e+03 4.849148076233283206e-04
1.528064032016008014e+03 4.757311830274554582e-04
1.528964482241120550e+03 4.692377009980701992e-04
1.529864932466233086e+03 4.645127255781810209e-04
1.530765382691345621e+03 4.609566850480728973e-04
1.531665832916458157e+03 4.584812309534629549e-04
1.532566283141570693e+03 4.569300112223575474e-04
1.533466733366683229e+03 4.561009697196137720e-04
1.534367183591795765e+03 4.559974486458991095e-04
1.535267633816908301e+03 4.568625535739401504e-04
1.536168084042020837e+03 4.589362764390454404e-04
1.537068534267133600e+03 4.622224197487759733e-04
1.537968984492246136e+03 4.659734380514493949e-04
1.538869434717358672e+03 4.685002231569200841e-04
1.539769884942471208e+03 4.692310915499100349e-04
1.540670335167583744e+03 4.689973066676920771e-04
1.541570785392696280e+03 4.678507953214960675e-04
1.542471235617808816e+03 4.645510363958881526e-04
1.543371685842921352e+03 4.585115703558502107e-04
1.544272136068033888e+03 4.509982649667873696e-04
1.545172586293146423e+03 4.439506923368690718e-04
1.546073036518258959e+03 4.383759912245370374e-04
1.546973486743371723e+03 4.340230048323099688e-04
1.547873936968484259e+03 4.301013775544555891e-04
1.548774387193596795e+03 4.256606666620642168e-04
1.549674837418709330e+03 4.207926821805155464e-04
1.550575287643821866e+03 4.166015901994618987e-04
1.551475737868934402e+03 4.133656901902163505e-04
1.552376188094046938e+03 4.109483453419198926e-04
1.553276638319159474e+03 4.094772007906572636e-04
1.554177088544272010e+03 4.084482316061682208e-04
1.555077538769384546e+03 4.070974509975706511e-04
1.555977988994497082e+03 4.051354148405666186e-04
1.556878439219609618e+03 4.028975153391041691e-04
1.557778889444722381e+03 4.017111150503637298e-04
1.558679339669834917e+03 4.017641442020584270e-04
1.559579789894947453e+03 4.015753068125206917e-04
1.560480240120059989e+03 4.000492978952971119e-04
1.561380690345172525e+03 3.977777668704850114e-04
1.562281140570285061e+03 3.958553551265975865e-04
1.563181590795397597e+03 3.944202262570301282e-04
1.564082041020510133e+03 3.936816332307334202e-04
1.564982491245622668e+03 3.943168378202995439e-04
1.565882941470735204e+03 3.963780935839593400e-04
1.566783391695847740e+03 3.983290835219655489e-04
1.567683841920960504e+03 3.979829432076225867e-04
1.568584292146073039e+03 3.933487654615343428e-04
1.569484742371185575e+03 3.828319459114592756e-04
1.570385192596298111e+03 3.662781608447590533e-04
1.571285642821410647e+03 3.447487257473630037e-04
1.572186093046523183e+03 3.192691869572322023e-04
1.573086543271635719e+03 2.907260424538490786e-04
1.573986993496748255e+03 2.601901974512234902e-04
1.574887443721860791e+03 2.298909418467929221e-04
1.575787893946973327e+03 2.020668492335725018e-04
1.576688344172085863e+03 1.773599289655293997e-04
1.577588794397198626e+03 1.557722315240444417e-04
1.578489244622311162e+03 1.376644761152206152e-04
1.579389694847423698e+03 1.231830781428152873e-04
1.580290145072536234e+03 1.118869024006373343e-04
1.581190595297648770e+03 1.030724351229791975e-04
1.582091045522761306e+03 9.608776169060791541e-05
1.582991495747873842e+03 9.043663435036546191e-05
1.583891945972986377e+03 8.576762635219600101e-05
1.584792396198098913e+03 8.183571279305208571e-05
1.585692846423211449e+03 7.846857228466369029e-05
1.586593296648323985e+03 7.554285360846305086e-05
1.587493746873436749e+03 7.296846697489142350e-05
1.588394197098549284e+03 7.067829894647647713e-05
1.589294647323661820e+03 6.862141924297344596e-05
1.590195097548774356e+03 6.675852020452007190e-05
1.591095547773886892e+03 6.505879719358687258e-05
1.591995997998999428e+03 6.349777379905291496e-05
1.592896448224111964e+03 6.205575782435424190e-05
1.593796898449224500e+03 6.071672621940623152e-05
1.594697348674337036e+03 5.946750694081320545e-05
1.595597798899449572e+03 5.829716984730385889e-05
1.596498249124562108e+03 5.719656709109140403e-05
1.597398699349674871e+03 5.615798200166454589e-05
1.598299149574787407e+03 5.517485778127187229e-05
1.599199599799899943e+03 5.424158565663629675e-05
1.600100050025012479e+03 5.335333784252498790e-05
1.601000500250125015e+03 5.250593464728650622e-05
1.601900950475237551e+03 5.169573785397288634e-05
1.602801400700350086e+03 5.091956451336304153e-05
1.603701850925462622e+03 5.017461673286883979e-05
1.604602301150575158e+03 4.945842410344480634e-05
1.605502751375687694e+03 4.876879618812582996e-05
1.606403201600800230e+03 4.810378307868805835e-05
1.607303651825912766e+03 4.746164246564547461e-05
1.608204102051025529e+03 4.684081199987841351e-05
1.609104552276138065e+03 4.623988597913998333e-05
1.610005002501250601e+03 4.565759558935286771e-05
1.610905452726363137e+03 4.509279208338224293e-05
1.611805902951475673e+03 4.454443239950580768e-05
1.612706353176588209e+03 4.401156681592219034e-05
1.613606803401700745e+03 4.349332831219073251e-05
1.614507253626813281e+03 4.298892336794300848e-05
1.615407703851925817e+03 4.249762397681146694e-05
1.616308154077038353e+03 4.201876069189599205e-05
1.617208604302150889e+03 4.155171655016639951e-05
1.618109054527263652e+03 4.109592174846207464e-05
1.619009504752376188e+03 4.065084896443629971e-05
1.619909954977488724e+03 4.021600923274128305e-05
1.620810405202601260e+03 3.979094830075223803e-05
1.621710855427713796e+03 3.937524339970994145e-05
1.622611305652826331e+03 3.896850037678024290e-05
1.623511755877938867e+03 3.857035114157062551e-05
1.624412206103051403e+03 3.818045138735418824e-05
1.625312656328163939e+03 3.779847855291023685e-05
1.626213106553276475e+03 3.742412999564503272e-05
1.627113556778389011e+03 3.705712135068179653e-05
1.628014007003501774e+03 3.669718505402665203e-05
1.628914457228614310e+03 3.634406901081802536e-05
1.629814907453726846e+03 3.599753539214576605e-05
1.630715357678839382e+03 3.565735954604654843e-05
1.631615807903951918e+03 3.532332901009856439e-05
1.632516258129064454e+03 3.499524261460942555e-05
1.633416708354176990e+03 3.467290966672244436e-05
1.634317158579289526e+03 3.435614920695379340e-05
1.635217608804402062e+03 3.404478933066295296e-05
1.636118059029514598e+03 3.373866656784673708e-05
1.637018509254627133e+03 3.343762531540316171e-05
1.637918959479739897e+03 3.314151731668195719e-05
1.638819409704852433e+03 3.285020118371166344e-05
1.639719859929964969e+03 3.256354195801127821e-05
1.640620310155077505e+03 3.228141070632847544e-05
1.641520760380190040e+03 3.200368414805477549e-05
1.642421210605302576e+03 3.173024431139541044e-05
1.643321660830415112e+03 3.146097821569009156e-05
1.644222111055527648e+03 3.119577757754057965e-05
1.645122561280640184e+03 3.093453853864807577e-05
1.646023011505752720e+03 3.067716141346556538e-05
1.646923461730865256e+03 3.042355045496339963e-05
1.647823911955978019e+03 3.017361363697169773e-05
1.648724362181090555e+03 2.992726245171360748e-05
1.649624812406203091e+03 2.968441172127000486e-05
1.650525262631315627e+03 2.944497942184225815e-05
1.651425712856428163e+03 2.920888651978259057e-05
1.652326163081540699e+03 2.897605681845171602e-05
1.653226613306653235e+03 2.874641681505863954e-05
1.654127063531765771e+03 2.851989556670459896e-05
1.655027513756878307e+03 2.829642456492531191e-05
1.655927963981990843e+03 2.807593761809119482e-05
1.656828414207103378e+03 2.785837074107495523e-05
1.657728864432216142e+03 2.764366205165007386e-05
1.658629314657328678e+03 2.743175167312926995e-05
1.659529764882441214e+03 2.722258164279202001e-05
1.660430215107553749e+03 2.701609582568731386e-05
1.661330665332666285e+03 2.681223983343532124e-05
1.662231115557778821e+03 2.661096094767463776e-05
1.663131565782891357e+03 2.641220804784155202e-05
1.664032016008003893e+03 2.621593154297972603e-05
1.664932466233116429e+03 2.602208330731345636e-05
1.665832916458228965e+03 2.583061661933077220e-05
1.666733366683341501e+03 2.564148610414764424e-05
1.667633816908454037e+03 2.545464767893726709e-05
1.668534267133566800e+03 2.527005850122895027e-05
1.669434717358679336e+03 2.508767691989197162e-05
1.670335167583791872e+03 2.490746242863629755e-05
1.671235617808904408e+03 2.472937562187385542e-05
1.672136068034016944e+03 2.455337815279057544e-05
1.673036518259129480e+03 2.437943269350136452e-05
1.673936968484242016e+03 2.420750289715616294e-05
1.674837418709354552e+03 2.403755336188145018e-05
1.675737868934467087e+03 2.386954959645179873e-05
1.676638319159579623e+03 2.370345798758759893e-05
1.677538769384692159e+03 2.353924576878410759e-05
1.678439219609804923e+03 2.337688099058591093e-05
1.679339669834917459e+03 2.321633249222512408e-05
1.680240120060029994e+03 2.305756987454326564e-05
1.681140570285142530e+03 2.290056347413011191e-05
1.682041020510255066e+03 2.274528433860830548e-05
1.682941470735367602e+03 2.259170420300438524e-05
1.683841920960480138e+03 2.243979546714606791e-05
1.684742371185592674e+03 2.228953117403050717e-05
1.685642821410705210e+03 2.214088498911350467e-05
1.686543271635817746e+03 2.199383118047136816e-05
1.687443721860930282e+03 2.184834459978785096e-05
1.688344172086043045e+03 2.170440066412673811e-05
1.689244622311155581e+03 2.156197533844826306e-05
1.690145072536268117e+03 2.142104511883280020e-05
1.691045522761380653e+03 2.128158701637516021e-05
1.691945972986493189e+03 2.114357854171832404e-05
1.692846423211605725e+03 2.100699769019297834e-05
1.693746873436718261e+03 2.087182292753557772e-05
1.694647323661830796e+03 2.073803317615577230e-05
1.695547773886943332e+03 2.060560780192703727e-05
1.696448224112055868e+03 2.047452660147641501e-05
1.697348674337168404e+03 2.034476978994966963e-05
1.698249124562281168e+03 2.021631798923011241e-05
1.699149574787393703e+03 2.008915221658925135e-05
1.700050025012506239e+03 1.996325387375093855e-05
1.700950475237618775e+03 1.983860473634931334e-05
1.701850925462731311e+03 1.971518694376327187e-05
1.702751375687843847e+03 1.959298298931193204e-05
1.703651825912956383e+03 1.947197571079177110e-05
1.704552276138068919e+03 1.935214828134506162e-05
1.705452726363181455e+03 1.923348420064203491e-05
1.706353176588293991e+03 1.911596728636407651e-05
1.707253626813406527e+03 1.899958166597689161e-05
1.708154077038519290e+03 1.888431176877788551e-05
1.709054527263631826e+03 1.877014231821017308e-05
1.709954977488744362e+03 1.865705832442924461e-05
1.710855427713856898e+03 1.854504507711404138e-05
1.711755877938969434e+03 1.843408813851083985e-05
1.712656328164081970e+03 1.832417333670103039e-05
1.713556778389194506e+03 1.821528675908496063e-05
1.714457228614307041e+03 1.810741474607074713e-05
1.715357678839419577e+03 1.800054388496319697e-05
1.716258129064532113e+03 1.789466100404266458e-05
1.717158579289644649e+03 1.778975316682614602e-05
1.718059029514757185e+03 1.768580766650592156e-05
1.718959479739869948e+03 1.758281202055726595e-05
1.719859929964982484e+03 1.748075396550941257e-05
1.720760380190095020e+03 1.737962145187174132e-05
1.721660830415207556e+03 1.727940263921395718e-05
1.722561280640320092e+03 1.718008589138929191e-05
1.723461730865432628e+03 1.708165977189822862e-05
1.724362181090545164e+03 1.698411303938877131e-05
1.725262631315657700e+03 1.688743464328438610e-05
1.726163081540770236e+03 1.679161371954001038e-05
1.727063531765882772e+03 1.669663958651633495e-05
1.727963981990995308e+03 1.660250174097312463e-05
1.728864432216108071e+03 1.650918985417349700e-05
1.729764882441220607e+03 1.641669376809830170e-05
1.730665332666333143e+03 1.632500349176338382e-05
1.731565782891445679e+03 1.623410919764048686e-05
1.732466233116558215e+03 1.614400121817405331e-05
1.733366683341670750e+03 1.605467004239408902e-05
1.734267133566783286e+03 1.596610631261846062e-05
1.735167583791895822e+03 1.587830082124602537e-05
1.736068034017008358e+03 1.579124450763258060e-05
1.736968484242120894e+03 1.570492845505115377e-05
1.737868934467233430e+03 1.561934388773139533e-05
1.738769384692346193e+03 1.553448216797561794e-05
1.739669834917458729e+03 1.545033479335150556e-05
1.740570285142571265e+03 1.536689339395510277e-05
1.741470735367683801e+03 1.528414972974468362e-05
1.742371185592796337e+03 1.520209568794277289e-05
1.743271635817908873e+03 1.512072328050361581e-05
1.744172086043021409e+03 1.504002464164389234e-05
1.745072536268133945e+03 1.495999202543606961e-05
1.745972986493246481e+03 1.488061780346010129e-05
1.746873436718359017e+03 1.480189446251462432e-05
1.747773886943471553e+03 1.472381460238336858e-05
1.748674337168584316e+03 1.464637093365607994e-05
1.749574787393696852e+03 1.456955627560301304e-05
1.750475237618809388e+03 1.449336355409938549e-05
1.751375687843921924e+03 1.441778579960136046e-05
1.752276138069034459e+03 1.434281614516828230e-05
1.753176588294146995e+03 1.426844782453361159e-05
1.754077038519259531e+03 1.419467417022012260e-05
1.754977488744372067e+03 1.412148861169972937e-05
1.755877938969484603e+03 1.404888467359651539e-05
1.756778389194597139e+03 1.397685597393052099e-05
1.757678839419709675e+03 1.390539622240321134e-05
1.758579289644822438e+03 1.383449921872134404e-05
1.759479739869934974e+03 1.376415885095963569e-05
1.760380190095047510e+03 1.369436909396013570e-05
1.761280640320160046e+03 1.362512400776813919e-05
1.762181090545272582e+03 1.355641773610314690e-05
1.763081540770385118e+03 1.348824450486380627e-05
1.763981990995497654e+03 1.342059862066628158e-05
1.764882441220610190e+03 1.335347446941489935e-05
1.765782891445722726e+03 1.328686651490430686e-05
1.766683341670835262e+03 1.322076929745206447e-05
1.767583791895947797e+03 1.315517743256116710e-05
1.768484242121060333e+03 1.309008560961180177e-05
1.769384692346173097e+03 1.302548859058064401e-05
1.770285142571285633e+03 1.296138120878860602e-05
1.771185592796398169e+03 1.289775836767443458e-05
1.772086043021510704e+03 1.283461503959521422e-05
1.772986493246623240e+03 1.277194626465130202e-05
1.773886943471735776e+03 1.270974714953718182e-05
1.774787393696848312e+03 1.264801286641543043e-05
1.775687843921960848e+03 1.258673865181471762e-05
1.776588294147073384e+03 1.252591980555057772e-05
1.777488744372185920e+03 1.246555168966824643e-05
1.778389194597298456e+03 1.240562972740793045e-05
1.779289644822411219e+03 1.234614940219033476e-05
1.780190095047523755e+03 1.228710625662406369e-05
1.781090545272636291e+03 1.222849589153206155e-05
1.781990995497748827e+03 1.217031396499817540e-05
1.782891445722861363e+03 1.211255619143352320e-05
1.783791895947973899e+03 1.205521834066031580e-05
1.784692346173086435e+03 1.199829623701520146e-05
1.785592796398198971e+03 1.194178575846996772e-05
1.786493246623311506e+03 1.188568283576909582e-05
1.787393696848424042e+03 1.182998345158535697e-05
1.788294147073536578e+03 1.177468363969115490e-05
1.789194597298649342e+03 1.171977948414647372e-05
1.790095047523761878e+03 1.166526711850254495e-05
1.790995497748874413e+03 1.161114272502103053e-05
1.791895947973986949e+03 1.155740253390765961e-05
1.792796398199099485e+03 1.150404282256206057e-05
1.793696848424212021e+03 1.145105991484011057e-05
1.794597298649324557e+03 1.139845018033205843e-05
1.795497748874437093e+03 1.134621003365265346e-05
1.796398199099549629e+03 1.129433593374696810e-05
1.797298649324662165e+03 1.124282438320652209e-05
1.798199099549774701e+03 1.119167192760098878e-05
1.799099549774887464e+03 1.114087515482013013e-05
1.800000000000000000e+03 1.109043069442950786e-05
