0.000000000000000000e+00 1.066702232733687892e-03
9.004502251125562351e-01 1.396952396983440394e-03
1.800900450225112470e+00 1.847815845314518734e-03
2.701350675337668594e+00 2.402120856404799717e-03
3.601800900450224940e+00 2.915604381212521645e-03
4.502251125562780842e+00 3.137445327197055898e-03
5.402701350675337189e+00 3.019985626199918945e-03
6.303151575787893535e+00 2.821517732245514606e-03
7.203601800900449881e+00 2.772738462962029242e-03
8.104052026013006227e+00 2.902961964255014286e-03
9.004502251125561685e+00 3.039931136647684110e-03
9.904952476238118919e+00 2.916589905233105736e-03
1.080540270135067438e+01 2.479103579433216981e-03
1.170585292646323161e+01 1.937885845827431184e-03
1.260630315157578707e+01 1.470562122442351308e-03
1.350675337668834430e+01 1.120819829828247679e-03
1.440720360180089976e+01 8.701359218301277102e-04
1.530765382691345522e+01 6.904058299601677044e-04
1.620810405202601245e+01 5.593187593818960699e-04
1.710855427713856969e+01 4.616844353219914194e-04
1.800900450225112337e+01 3.875218014549239570e-04
1.890945472736368060e+01 3.302018271282269315e-04
1.980990495247623784e+01 2.852188435580298035e-04
2.071035517758879507e+01 2.493184338894691133e-04
2.161080540270134875e+01 2.199423235512125852e-04
2.251125562781390599e+01 1.951512807648425434e-04
2.341170585292646322e+01 1.738186308926392188e-04
2.431215607803901690e+01 1.554910662261080995e-04
2.521260630315157414e+01 1.398696960567545372e-04
2.611305652826413137e+01 1.265672797642552019e-04
2.701350675337668861e+01 1.151844342450576372e-04
2.791395697848924229e+01 1.053839875563116466e-04
2.881440720360179952e+01 9.689960081822924262e-05
2.971485742871435676e+01 8.951427082044180721e-05
3.061530765382691044e+01 8.302632613415122085e-05
3.151575787893946767e+01 7.723516428794232854e-05
3.241620810405202491e+01 7.199694964314839920e-05
3.331665832916458214e+01 6.727422434401792470e-05
3.421710855427713938e+01 6.307149861692898851e-05
3.511755877938969661e+01 5.934788090358364513e-05
3.601800900450224674e+01 5.598725980778342554e-05
3.691845922961480397e+01 5.285308451656496067e-05
3.781890945472736121e+01 4.992234189685938278e-05
3.871935967983991844e+01 4.727448416124667283e-05
3.961980990495247568e+01 4.496083614787317899e-05
4.052026013006503291e+01 4.295272196277134319e-05
4.142071035517759015e+01 4.111464942833089546e-05
4.232116058029014027e+01 3.923661032132563185e-05
4.322161080540269751e+01 3.724304858239506051e-05
4.412206103051525474e+01 3.526926024200821114e-05
4.502251125562781198e+01 3.345407579328638287e-05
4.592296148074036921e+01 3.183737491404877443e-05
4.682341170585292645e+01 3.040559904615118610e-05
4.772386193096548368e+01 2.913648471408669538e-05
4.862431215607803381e+01 2.801487039383348775e-05
4.952476238119059104e+01 2.703594568363707254e-05
5.042521260630314828e+01 2.620448497678396724e-05
5.132566283141570551e+01 2.552979932823670338e-05
5.222611305652826275e+01 2.500996542897894879e-05
5.312656328164081998e+01 2.460639954586525257e-05
5.402701350675337721e+01 2.423180438282175985e-05
5.492746373186592734e+01 2.375424479175972152e-05
5.582791395697848458e+01 2.304156422360232692e-05
5.672836418209104181e+01 2.212152777353575822e-05
5.762881440720359905e+01 2.120289241302287858e-05
5.852926463231615628e+01 2.045918303326002164e-05
5.942971485742871351e+01 1.995024451259176063e-05
6.033016508254127075e+01 1.966164944869899249e-05
6.123061530765382088e+01 1.949505122955768387e-05
6.213106553276637811e+01 1.923533345948634664e-05
6.303151575787893535e+01 1.866710913752310804e-05
6.393196598299149258e+01 1.781614364867513558e-05
6.483241620810404982e+01 1.690727686042403424e-05
6.573286643321659994e+01 1.610770313864605586e-05
6.663331665832916428e+01 1.545976732432597156e-05
6.753376688344171441e+01 1.495037138980475956e-05
6.843421710855427875e+01 1.456102918354363135e-05
6.933466733366682888e+01 1.428309608868820483e-05
7.023511755877939322e+01 1.411744770254502013e-05
7.113556778389194335e+01 1.406478172678054975e-05
7.203601800900449348e+01 1.411066449673142843e-05
7.293646823411705782e+01 1.422739912594304799e-05
7.383691845922960795e+01 1.437612398745417162e-05
7.473736868434217229e+01 1.443617043853079708e-05
7.563781890945472242e+01 1.422712865316711895e-05
7.653826913456728676e+01 1.375542728805547424e-05
7.743871935967983688e+01 1.324317535842135514e-05
7.833916958479238701e+01 1.287473467933198765e-05
7.923961980990495135e+01 1.269586656089085557e-05
8.014007003501750148e+01 1.266152442316828342e-05
8.104052026013006582e+01 1.267477861135824813e-05
8.194097048524261595e+01 1.261516950268851206e-05
8.284142071035518029e+01 1.239519342579174340e-05
8.374187093546773042e+01 1.201593276329929567e-05
8.464232116058028055e+01 1.158353028702293553e-05
8.554277138569284489e+01 1.123963862123430980e-05
8.644322161080539502e+01 1.107360222224372268e-05
8.734367183591795936e+01 1.112218529765037681e-05
8.824412206103050949e+01 1.139765035540295026e-05
8.914457228614307382e+01 1.187148378622749443e-05
9.004502251125562395e+01 1.240229002636652710e-05
9.094547273636817408e+01 1.269362532721654225e-05
9.184592296148073842e+01 1.253586708662695340e-05
9.274637318659328855e+01 1.207916024815730261e-05
9.364682341170585289e+01 1.159240490246400503e-05
9.454727363681840302e+01 1.118453258162260876e-05
9.544772386193096736e+01 1.078546257708736001e-05
9.634817408704351749e+01 1.030248693250241046e-05
9.724862431215606762e+01 9.792902364927300729e-06
9.814907453726863196e+01 9.383286408576268115e-06
9.904952476238118209e+01 9.137025376235302022e-06
9.994997498749374643e+01 9.059992025727607072e-06
1.008504252126062966e+02 9.131595141868042759e-06
1.017508754377188609e+02 9.310803299288408018e-06
1.026513256628314110e+02 9.544435204790855876e-06
1.035517758879439612e+02 9.758676581023810007e-06
1.044522261130565255e+02 9.887905305083157347e-06
1.053526763381690756e+02 9.974932579891202867e-06
1.062531265632816400e+02 1.011814918820060353e-05
1.071535767883941901e+02 1.033789520245792963e-05
1.080540270135067544e+02 1.057157314400910107e-05
1.089544772386193046e+02 1.075971606004061936e-05
1.098549274637318547e+02 1.086659803672678088e-05
1.107553776888444190e+02 1.082363383869474759e-05
1.116558279139569692e+02 1.061381135010297444e-05
1.125562781390695335e+02 1.037154477170821232e-05
1.134567283641820836e+02 1.027903855546149273e-05
1.143571785892946480e+02 1.038342655367637323e-05
1.152576288144071981e+02 1.050499656164839517e-05
1.161580790395197482e+02 1.035493727645232562e-05
1.170585292646323126e+02 9.853238748505564648e-06
1.179589794897448627e+02 9.219081593669662552e-06
1.188594297148574270e+02 8.701151608191406173e-06
1.197598799399699772e+02 8.399690937224166284e-06
1.206603301650825415e+02 8.320893261208329702e-06
1.215607803901950916e+02 8.438168886633396788e-06
1.224612306153076418e+02 8.680608937650539166e-06
1.233616808404202061e+02 8.931529817579699195e-06
1.242621310655327562e+02 9.102383719002348189e-06
1.251625812906453206e+02 9.183189689016289914e-06
1.260630315157578707e+02 9.197813957007313249e-06
1.269634817408704350e+02 9.165405144507887282e-06
1.278639319659829852e+02 9.104665564723600198e-06
1.287643821910955353e+02 9.047768213521087684e-06
1.296648324162080996e+02 9.010105445412353942e-06
1.305652826413206640e+02 8.999558265194033119e-06
1.314657328664331999e+02 9.058898317830922729e-06
1.323661830915457642e+02 9.224370954219680138e-06
1.332666333166583286e+02 9.466258277338383370e-06
1.341670835417708929e+02 9.719725272795998013e-06
1.350675337668834288e+02 9.911440067086890607e-06
1.359679839919959932e+02 9.954822072863608943e-06
1.368684342171085575e+02 9.811343034179574818e-06
1.377688844422210934e+02 9.526720421907515390e-06
1.386693346673336578e+02 9.223191438288533853e-06
1.395697848924462221e+02 9.011476614168376713e-06
1.404702351175587864e+02 8.915935056491023890e-06
1.413706853426713224e+02 8.947207045902023708e-06
1.422711355677838867e+02 9.152209947311617486e-06
1.431715857928964510e+02 9.541685672721621423e-06
1.440720360180089870e+02 1.000507065124120331e-05
1.449724862431215513e+02 1.031656162379050605e-05
1.458729364682341156e+02 1.032527819152155147e-05
1.467733866933466800e+02 1.014536411190820845e-05
1.476738369184592159e+02 9.990209225836990930e-06
1.485742871435717802e+02 9.917802715946769321e-06
1.494747373686843446e+02 9.868031747973620617e-06
1.503751875937968805e+02 9.815078101586858651e-06
1.512756378189094448e+02 9.788391662734676347e-06
1.521760880440220092e+02 9.783272029599180165e-06
1.530765382691345735e+02 9.783750140827071989e-06
1.539769884942471094e+02 9.826523095925154252e-06
1.548774387193596738e+02 9.917963306411757367e-06
1.557778889444722381e+02 9.946692053861268886e-06
1.566783391695847740e+02 9.799432285943532710e-06
1.575787893946973384e+02 9.527713118154569751e-06
1.584792396198099027e+02 9.309300542684675810e-06
1.593796898449224670e+02 9.266983467613689577e-06
1.602801400700350030e+02 9.385811536323582165e-06
1.611805902951475673e+02 9.572634288696643432e-06
1.620810405202601316e+02 9.732832337965019662e-06
1.629814907453726676e+02 9.798109749672245949e-06
1.638819409704852319e+02 9.746442973358099596e-06
1.647823911955977962e+02 9.627955217924194734e-06
1.656828414207103606e+02 9.521772058738805122e-06
1.665832916458228965e+02 9.504226986685655222e-06
1.674837418709354608e+02 9.613161765046403674e-06
1.683841920960480252e+02 9.806788596854489794e-06
1.692846423211605611e+02 9.998538690225229047e-06
1.701850925462731254e+02 1.010883327002331149e-05
1.710855427713856898e+02 1.010580028511737246e-05
1.719859929964982541e+02 1.006411532454840388e-05
1.728864432216107900e+02 1.010062543346614737e-05
1.737868934467233544e+02 1.023974224215885013e-05
1.746873436718359187e+02 1.046507303025103322e-05
1.755877938969484546e+02 1.080880056610235832e-05
1.764882441220610190e+02 1.129951862479551194e-05
1.773886943471735833e+02 1.193111458277791734e-05
1.782891445722861476e+02 1.268028053738567059e-05
1.791895947973986836e+02 1.342236802899225514e-05
1.800900450225112479e+02 1.393490229737114649e-05
1.809904952476238122e+02 1.410961784646124684e-05
1.818909454727363482e+02 1.399461705656265419e-05
1.827913956978489125e+02 1.364338378596098137e-05
1.836918459229614768e+02 1.310036726822867203e-05
1.845922961480740412e+02 1.245746673389627698e-05
1.854927463731865771e+02 1.184442884980763531e-05
1.863931965982991414e+02 1.139114425279651600e-05
1.872936468234117058e+02 1.117526506035558386e-05
1.881940970485242417e+02 1.116192091248357817e-05
1.890945472736368060e+02 1.123912030041197993e-05
1.899949974987493704e+02 1.130063782251975216e-05
1.908954477238619347e+02 1.126556386654739862e-05
1.917958979489744706e+02 1.114967683948604498e-05
1.926963481740870350e+02 1.108372413340434436e-05
1.935967983991995993e+02 1.117232494553243551e-05
1.944972486243121352e+02 1.139121492807550985e-05
1.953976988494246996e+02 1.159535939046452160e-05
1.962981490745372639e+02 1.168877973670804752e-05
1.971985992996498283e+02 1.172601105828470570e-05
1.980990495247623642e+02 1.177270384546646298e-05
1.989994997498749285e+02 1.181240160300617208e-05
1.998999499749874929e+02 1.180867653377151870e-05
2.008004002001000288e+02 1.177432701183036071e-05
2.017008504252125931e+02 1.173163333307441369e-05
2.026013006503251574e+02 1.164897439476952589e-05
2.035017508754377218e+02 1.150066539643440350e-05
2.044022011005502577e+02 1.136672118423946270e-05
2.053026513256628220e+02 1.137485412863595040e-05
2.062031015507753864e+02 1.158877670150503576e-05
2.071035517758879223e+02 1.196038520950990187e-05
2.080040020010004866e+02 1.235623487626397300e-05
2.089044522261130510e+02 1.266264252742961797e-05
2.098049024512256153e+02 1.285720676894488759e-05
2.107053526763381512e+02 1.300725412943255591e-05
2.116058029014507156e+02 1.319411038835934654e-05
2.125062531265632799e+02 1.344564500221780017e-05
2.134067033516758158e+02 1.368752341293376789e-05
2.143071535767883802e+02 1.381461150874862177e-05
2.152076038019009445e+02 1.379243636806639390e-05
2.161080540270135089e+02 1.367631516342512995e-05
2.170085042521260448e+02 1.353072409013331095e-05
2.179089544772386091e+02 1.339320302034380759e-05
2.188094047023511735e+02 1.329141684990649630e-05
2.197098549274637094e+02 1.322988010315299923e-05
2.206103051525762737e+02 1.318189851305992584e-05
2.215107553776888381e+02 1.311981980422587361e-05
2.224112056028014024e+02 1.308141596932239814e-05
2.233116558279139383e+02 1.315690435203274787e-05
2.242121060530265027e+02 1.336874121589196266e-05
2.251125562781390670e+02 1.362805191024554241e-05
2.260130065032516029e+02 1.380476541912955917e-05
2.269134567283641672e+02 1.379573596949443456e-05
2.278139069534767316e+02 1.360604725686999193e-05
2.287143571785892959e+02 1.337375887194521524e-05
2.296148074037018318e+02 1.321511370445725852e-05
2.305152576288143962e+02 1.313553480613439290e-05
2.314157078539269605e+02 1.311287353616760409e-05
2.323161580790394964e+02 1.308482826602533592e-05
2.332166083041520608e+02 1.299333377517728059e-05
2.341170585292646251e+02 1.290154580703265131e-05
2.350175087543771895e+02 1.292829682927960620e-05
2.359179589794897254e+02 1.314821889173049115e-05
2.368184092046022897e+02 1.355695195107854266e-05
2.377188594297148541e+02 1.401661905382755220e-05
2.386193096548273900e+02 1.436265686826419250e-05
2.395197598799399543e+02 1.456914899463730721e-05
2.404202101050525187e+02 1.471988233918666475e-05
2.413206603301650830e+02 1.492020830042312846e-05
2.422211105552776189e+02 1.519721098414069300e-05
2.431215607803901833e+02 1.546624765252063293e-05
2.440220110055027476e+02 1.561546651688401770e-05
2.449224612306152835e+02 1.562273929782926143e-05
2.458229114557278479e+02 1.557681857632951713e-05
2.467233616808404122e+02 1.561181692619285411e-05
2.476238119059529765e+02 1.580941608130308955e-05
2.485242621310655124e+02 1.616581173589231807e-05
2.494247123561780768e+02 1.654535641601265837e-05
2.503251625812906411e+02 1.674040057165678629e-05
2.512256128064031770e+02 1.667566160733733810e-05
2.521260630315157414e+02 1.638324417756090751e-05
2.530265132566283057e+02 1.592840140119582146e-05
2.539269634817408701e+02 1.543714076136235892e-05
2.548274137068534060e+02 1.507803788929896452e-05
2.557278639319659703e+02 1.492918788400548520e-05
2.566283141570785347e+02 1.488168171934697565e-05
2.575287643821910706e+02 1.480936610546566082e-05
2.584292146073036633e+02 1.471074261105418059e-05
2.593296648324161993e+02 1.465427545755806664e-05
2.602301150575287352e+02 1.464298462017525020e-05
2.611305652826413279e+02 1.453756642506791936e-05
2.620310155077538639e+02 1.424996996357420907e-05
2.629314657328663998e+02 1.391692179257888769e-05
2.638319159579789925e+02 1.370602570222369716e-05
2.647323661830915285e+02 1.364018566603861767e-05
2.656328164082040644e+02 1.366948993859623653e-05
2.665332666333166571e+02 1.370031109175678035e-05
2.674337168584291931e+02 1.365965627607806346e-05
2.683341670835417858e+02 1.355398305210343722e-05
2.692346173086543217e+02 1.337266261056326716e-05
2.701350675337668577e+02 1.312170442900218530e-05
2.710355177588794504e+02 1.287952424320975591e-05
2.719359679839919863e+02 1.272999908914356919e-05
2.728364182091045222e+02 1.270073389725933337e-05
2.737368684342171150e+02 1.278118223657701669e-05
2.746373186593296509e+02 1.290797111831240816e-05
2.755377688844421868e+02 1.296842102653458456e-05
2.764382191095547796e+02 1.287365067683256594e-05
2.773386693346673155e+02 1.259911596054880162e-05
2.782391195597798514e+02 1.226386648057996851e-05
2.791395697848924442e+02 1.208408717132748856e-05
2.800400200100049801e+02 1.213770531930335827e-05
2.809404702351175729e+02 1.228139152312700720e-05
2.818409204602301088e+02 1.231351011544917002e-05
2.827413706853426447e+02 1.217336922347855503e-05
2.836418209104552375e+02 1.194782616148534110e-05
2.845422711355677734e+02 1.172942474386317269e-05
2.854427213606803093e+02 1.153745196215250922e-05
2.863431715857929021e+02 1.133878322408883332e-05
2.872436218109054380e+02 1.111149091478847598e-05
2.881440720360179739e+02 1.086320070611389485e-05
2.890445222611305667e+02 1.062092852038196055e-05
2.899449724862431026e+02 1.045917881015776725e-05
2.908454227113556385e+02 1.043437337115705819e-05
2.917458729364682313e+02 1.051080173042144754e-05
2.926463231615807672e+02 1.062613099682591133e-05
2.935467733866933600e+02 1.076641870895764407e-05
2.944472236118058959e+02 1.092195370356389702e-05
2.953476738369184318e+02 1.108933340608564617e-05
2.962481240620310246e+02 1.129626693758152918e-05
2.971485742871435605e+02 1.154629462126455016e-05
2.980490245122560964e+02 1.178354717070358679e-05
2.989494747373686891e+02 1.193428798453636059e-05
2.998499249624812251e+02 1.198544568664779425e-05
3.007503751875937610e+02 1.194000192900946193e-05
3.016508254127063537e+02 1.179542490342440754e-05
3.025512756378188897e+02 1.157008628469703971e-05
3.034517258629314256e+02 1.125686061121183882e-05
3.043521760880440183e+02 1.086922244736419775e-05
3.052526263131565543e+02 1.050113309454615510e-05
3.061530765382691470e+02 1.026020906445574638e-05
3.070535267633816829e+02 1.020618445648811729e-05
3.079539769884942189e+02 1.033372686461097152e-05
3.088544272136068116e+02 1.058098440023165690e-05
3.097548774387193475e+02 1.087643481560625572e-05
3.106553276638318835e+02 1.117109180980757128e-05
3.115557778889444762e+02 1.142159586734550938e-05
3.124562281140570121e+02 1.162717477388459304e-05
3.133566783391695481e+02 1.186600739554683453e-05
3.142571285642821408e+02 1.217867240942207836e-05
3.151575787893946767e+02 1.250527617199955690e-05
3.160580290145072127e+02 1.279139742980384944e-05
3.169584792396198054e+02 1.304112270063124890e-05
3.178589294647323413e+02 1.323452475361591873e-05
3.187593796898449341e+02 1.330176710203338046e-05
3.196598299149574700e+02 1.322563780097793168e-05
3.205602801400700059e+02 1.310319835122634310e-05
3.214607303651825987e+02 1.301606521673769774e-05
3.223611805902951346e+02 1.296675963468801351e-05
3.232616308154076705e+02 1.293796143574738589e-05
3.241620810405202633e+02 1.291783026552325058e-05
3.250625312656327992e+02 1.287068958398058239e-05
3.259629814907453351e+02 1.275893459677041592e-05
3.268634317158579279e+02 1.260394223439793463e-05
3.277638819409704638e+02 1.246371770728776309e-05
3.286643321660829997e+02 1.237310535417369840e-05
3.295647823911955925e+02 1.229499261026016204e-05
3.304652326163081284e+02 1.220755568197578056e-05
3.313656828414207212e+02 1.215328878752634484e-05
3.322661330665332571e+02 1.215463458073601756e-05
3.331665832916457930e+02 1.215106220649023972e-05
3.340670335167583858e+02 1.207024690851243246e-05
3.349674837418709217e+02 1.192064874194658594e-05
3.358679339669834576e+02 1.174597574922140835e-05
3.367683841920960504e+02 1.161107758308815177e-05
3.376688344172085863e+02 1.159428753427770652e-05
3.385692846423211222e+02 1.168826050714489892e-05
3.394697348674337150e+02 1.179229769696528283e-05
3.403701850925462509e+02 1.186274286809912489e-05
3.412706353176587868e+02 1.194167442966377805e-05
3.421710855427713796e+02 1.206266553426028502e-05
3.430715357678839155e+02 1.224584371003759903e-05
3.439719859929965082e+02 1.250173208008344163e-05
3.448724362181090441e+02 1.280989532245035104e-05
3.457728864432215801e+02 1.311257531717118596e-05
3.466733366683341728e+02 1.333466088799032942e-05
3.475737868934467087e+02 1.339744037802364448e-05
3.484742371185592447e+02 1.326704525342066529e-05
3.493746873436718374e+02 1.300840932306069402e-05
3.502751375687843733e+02 1.276265741741254720e-05
3.511755877938969093e+02 1.261982961612899267e-05
3.520760380190095020e+02 1.257913128963520766e-05
3.529764882441220379e+02 1.266683264132093457e-05
3.538769384692345739e+02 1.293176278933347435e-05
3.547773886943471666e+02 1.334164436260532794e-05
3.556778389194597025e+02 1.377938568532296964e-05
3.565782891445722953e+02 1.414209941055775411e-05
3.574787393696848312e+02 1.433960596167445657e-05
3.583791895947973671e+02 1.432572826418233480e-05
3.592796398199099599e+02 1.421454423541818744e-05
3.601800900450224958e+02 1.416978048764362508e-05
3.610805402701350317e+02 1.425408596595572786e-05
3.619809904952476245e+02 1.444192554788223668e-05
3.628814407203601604e+02 1.464276065088749486e-05
3.637818909454726963e+02 1.475981341189639227e-05
3.646823411705852891e+02 1.479187152240285779e-05
3.655827913956978250e+02 1.482616425221838537e-05
3.664832416208103609e+02 1.491286259158124112e-05
3.673836918459229537e+02 1.499196579305885322e-05
3.682841420710354896e+02 1.497150902332943224e-05
3.691845922961480824e+02 1.486773794067650145e-05
3.700850425212606183e+02 1.481373454518331190e-05
3.709854927463731542e+02 1.490414241420671931e-05
3.718859429714857470e+02 1.512918222061271929e-05
3.727863931965982829e+02 1.541353658955557437e-05
3.736868434217108188e+02 1.565708907354519365e-05
3.745872936468234116e+02 1.582303843148410064e-05
3.754877438719359475e+02 1.597775068437420643e-05
3.763881940970484834e+02 1.620719756661948292e-05
3.772886443221610762e+02 1.649094454992199756e-05
3.781890945472736121e+02 1.672259809574673341e-05
3.790895447723861480e+02 1.684120808663849652e-05
3.799899949974987408e+02 1.689286424989279209e-05
3.808904452226112767e+02 1.696511340775114758e-05
3.817908954477238694e+02 1.706797134953589492e-05
3.826913456728364054e+02 1.708799770605036591e-05
3.835917958979489413e+02 1.695563436368861931e-05
3.844922461230615340e+02 1.678586350878037215e-05
3.853926963481740700e+02 1.673681471362571584e-05
3.862931465732866059e+02 1.684455372680551362e-05
3.871935967983991986e+02 1.704347794324158618e-05
3.880940470235117346e+02 1.730964424259620406e-05
3.889944972486242705e+02 1.762460175524828770e-05
3.898949474737368632e+02 1.781653445489715131e-05
3.907953976988493991e+02 1.766262807352582680e-05
3.916958479239619351e+02 1.720770064296199651e-05
3.925962981490745278e+02 1.677785193450046289e-05
3.934967483741870637e+02 1.660908285844075042e-05
3.943971985992996565e+02 1.670521860766436013e-05
3.952976488244121924e+02 1.694982440051566043e-05
3.961980990495247283e+02 1.722364671473815235e-05
3.970985492746373211e+02 1.748341500686853635e-05
3.979989994997498570e+02 1.772013772779303727e-05
3.988994497248623929e+02 1.786702510761530073e-05
3.997998999499749857e+02 1.786483150572351169e-05
4.007003501750875216e+02 1.777939703453240131e-05
4.016008004002000575e+02 1.780572090196701427e-05
4.025012506253126503e+02 1.808197740511947139e-05
4.034017008504251862e+02 1.852236722983242282e-05
4.043021510755377221e+02 1.890588314316834955e-05
4.052026013006503149e+02 1.913798796345822877e-05
4.061030515257628508e+02 1.936534204351846977e-05
4.070035017508754436e+02 1.975542307421180254e-05
4.079039519759879795e+02 2.030444011999318541e-05
4.088044022011005154e+02 2.087164780145535164e-05
4.097048524262131082e+02 2.132734298321362562e-05
4.106053026513256441e+02 2.167690703271361343e-05
4.115057528764381800e+02 2.193535073641733916e-05
4.124062031015507728e+02 2.204863609844091155e-05
4.133066533266633087e+02 2.205961524456441820e-05
4.142071035517758446e+02 2.203282454589198814e-05
4.151075537768884374e+02 2.194095868348598327e-05
4.160080040020009733e+02 2.177138454304233553e-05
4.169084542271135092e+02 2.155245586172939339e-05
4.178089044522261020e+02 2.132143529142157838e-05
4.187093546773386379e+02 2.111073214460780108e-05
4.196098049024512306e+02 2.095036623936931422e-05
4.205102551275637666e+02 2.087665982180194390e-05
4.214107053526763025e+02 2.091101670627785436e-05
4.223111555777888952e+02 2.110100057209691161e-05
4.232116058029014312e+02 2.141583015798590657e-05
4.241120560280139671e+02 2.173942151497166927e-05
4.250125062531265598e+02 2.206370570760216656e-05
4.259129564782390958e+02 2.247643405951516761e-05
4.268134067033516317e+02 2.298204132904902355e-05
4.277138569284642244e+02 2.346458515836051198e-05
4.286143071535767604e+02 2.384846961563672486e-05
4.295147573786892963e+02 2.417116226804693309e-05
4.304152076038018890e+02 2.445101159720155891e-05
4.313156578289144250e+02 2.461456174023260573e-05
4.322161080540270177e+02 2.464825019054259483e-05
4.331165582791395536e+02 2.466789031447947484e-05
4.340170085042520896e+02 2.474028498599257879e-05
4.349174587293646823e+02 2.483095972069746592e-05
4.358179089544772182e+02 2.489003910861159984e-05
4.367183591795897541e+02 2.486133196640302718e-05
4.376188094047023469e+02 2.467284706606444710e-05
4.385192596298148828e+02 2.432035226917033375e-05
4.394197098549274187e+02 2.392545495419341379e-05
4.403201600800400115e+02 2.360173955801573559e-05
4.412206103051525474e+02 2.336401330668791361e-05
4.421210605302650833e+02 2.320740115638291595e-05
4.430215107553776761e+02 2.316290712557636197e-05
4.439219609804902120e+02 2.329647137925958521e-05
4.448224112056028048e+02 2.365173016778307255e-05
4.457228614307153407e+02 2.418862667735858553e-05
4.466233116558278766e+02 2.475765270214674919e-05
4.475237618809404694e+02 2.514481868733699029e-05
4.484242121060530053e+02 2.524208834191101619e-05
4.493246623311655412e+02 2.514399346728790339e-05
4.502251125562781340e+02 2.499504469986744477e-05
4.511255627813906699e+02 2.489874763850533600e-05
4.520260130065032058e+02 2.492300803414360024e-05
4.529264632316157986e+02 2.508909611603977576e-05
4.538269134567283345e+02 2.534399844294542514e-05
4.547273636818408704e+02 2.559365702044415084e-05
4.556278139069534632e+02 2.581665720964672467e-05
4.565282641320659991e+02 2.606933823594829351e-05
4.574287143571785919e+02 2.634434607720544751e-05
4.583291645822911278e+02 2.654313235041353658e-05
4.592296148074036637e+02 2.660503523384672762e-05
4.601300650325162565e+02 2.655158990519478808e-05
4.610305152576287924e+02 2.647547274987296334e-05
4.619309654827413283e+02 2.652659103254171138e-05
4.628314157078539210e+02 2.674054022148849590e-05
4.637318659329664570e+02 2.698753562474736598e-05
4.646323161580789929e+02 2.711631777638927771e-05
4.655327663831915856e+02 2.707380706598923410e-05
4.664332166083041216e+02 2.693263126594050354e-05
4.673336668334167143e+02 2.684570673952455002e-05
4.682341170585292502e+02 2.691499415291782180e-05
4.691345672836417862e+02 2.715774948089414318e-05
4.700350175087543789e+02 2.758164738735838426e-05
4.709354677338669148e+02 2.816852400695572147e-05
4.718359179589794508e+02 2.883581244838411627e-05
4.727363681840920435e+02 2.945203422487174501e-05
4.736368184092045794e+02 2.989430164925070202e-05
4.745372686343171154e+02 3.006638596278126627e-05
4.754377188594297081e+02 2.991618577097726492e-05
4.763381690845422440e+02 2.952610191201659787e-05
4.772386193096547800e+02 2.905710116651531643e-05
4.781390695347673727e+02 2.867830131091110953e-05
4.790395197598799086e+02 2.852245626027860123e-05
4.799399699849925014e+02 2.855376465897996335e-05
4.808404202101050373e+02 2.864625848547819979e-05
4.817408704352175732e+02 2.877627377246800034e-05
4.826413206603301660e+02 2.899762455675010159e-05
4.835417708854427019e+02 2.931909229389518095e-05
4.844422211105552378e+02 2.967026427902914391e-05
4.853426713356678306e+02 2.990173349210465716e-05
4.862431215607803665e+02 2.991598354104287074e-05
4.871435717858929024e+02 2.981838826014542032e-05
4.880440220110054952e+02 2.981387131996232509e-05
4.889444722361180311e+02 3.006442555820103930e-05
4.898449224612305670e+02 3.055756993965920741e-05
4.907453726863431598e+02 3.114202303562341791e-05
4.916458229114556957e+02 3.172799063162052674e-05
4.925462731365682885e+02 3.229439309499532900e-05
4.934467233616808244e+02 3.269873029894241777e-05
4.943471735867933603e+02 3.282055996066607291e-05
4.952476238119059531e+02 3.276733727424261224e-05
4.961480740370184890e+02 3.270968845953782712e-05
4.970485242621310249e+02 3.271318209504409102e-05
4.979489744872436177e+02 3.270981840342380081e-05
4.988494247123561536e+02 3.255321211624278823e-05
4.997498749374686895e+02 3.214871239213349519e-05
5.006503251625812823e+02 3.154383543270674402e-05
5.015507753876938182e+02 3.091245443240161892e-05
5.024512256128063541e+02 3.043709616406853978e-05
5.033516758379189469e+02 3.024243232222825807e-05
5.042521260630314828e+02 3.035282979001185594e-05
5.051525762881440755e+02 3.070968205439394104e-05
5.060530265132566115e+02 3.125622791481900303e-05
5.069534767383691474e+02 3.192348406349200724e-05
5.078539269634817401e+02 3.260952903439238987e-05
5.087543771885942760e+02 3.318945996269018602e-05
5.096548274137068120e+02 3.358330286144412826e-05
5.105552776388194047e+02 3.387485853482685027e-05
5.114557278639319406e+02 3.418246797773989205e-05
5.123561780890445334e+02 3.457849508627804488e-05
5.132566283141570693e+02 3.511601350154577498e-05
5.141570785392696052e+02 3.576181828093334707e-05
5.150575287643821412e+02 3.640075378704784621e-05
5.159579789894946771e+02 3.688608788021607642e-05
5.168584292146073267e+02 3.708926380681705238e-05
5.177588794397198626e+02 3.695981727674007487e-05
5.186593296648323985e+02 3.659220313490764898e-05
5.195597798899449344e+02 3.620782017764315533e-05
5.204602301150574704e+02 3.601755411551040448e-05
5.213606803401700063e+02 3.607587505961909458e-05
5.222611305652826559e+02 3.627852226911229647e-05
5.231615807903951918e+02 3.649407932985162726e-05
5.240620310155077277e+02 3.665849069009908135e-05
5.249624812406202636e+02 3.678994458744686490e-05
5.258629314657327996e+02 3.690406975704084636e-05
5.267633816908454492e+02 3.700732238836638923e-05
5.276638319159579851e+02 3.710842152115478420e-05
5.285642821410705210e+02 3.724850551347042520e-05
5.294647323661830569e+02 3.751238099251890832e-05
5.303651825912955928e+02 3.789417830836369324e-05
5.312656328164081287e+02 3.829797948172550693e-05
5.321660830415207784e+02 3.865684440063404725e-05
5.330665332666333143e+02 3.898661992530405237e-05
5.339669834917458502e+02 3.936901441010558423e-05
5.348674337168583861e+02 3.988846983952004747e-05
5.357678839419709220e+02 4.063330422985674949e-05
5.366683341670835716e+02 4.167011349699295135e-05
5.375687843921961075e+02 4.296168899022362932e-05
5.384692346173086435e+02 4.431408285871959692e-05
5.393696848424211794e+02 4.551892968710658248e-05
5.402701350675337153e+02 4.653631535718919752e-05
5.411705852926462512e+02 4.743927999987155957e-05
5.420710355177589008e+02 4.825917641468705779e-05
5.429714857428714367e+02 4.901309174166982311e-05
5.438719359679839727e+02 4.979930300037631736e-05
5.447723861930965086e+02 5.067112804213908954e-05
5.456728364182090445e+02 5.153218281176098265e-05
5.465732866433215804e+02 5.228373504607172588e-05
5.474737368684342300e+02 5.294821808916472391e-05
5.483741870935467659e+02 5.357098993668097888e-05
5.492746373186593019e+02 5.415707879431909530e-05
5.501750875437718378e+02 5.477721922181029521e-05
5.510755377688843737e+02 5.553387810988422239e-05
5.519759879939970233e+02 5.632648134735795736e-05
5.528764382191095592e+02 5.697938009604551035e-05
5.537768884442220951e+02 5.755129292727172494e-05
5.546773386693346310e+02 5.809288730261630859e-05
5.555777888944471670e+02 5.840107602057152323e-05
5.564782391195597029e+02 5.828842194241784915e-05
5.573786893446723525e+02 5.781401408319611552e-05
5.582791395697848884e+02 5.726229539951482802e-05
5.591795897948974243e+02 5.697560755716322560e-05
5.600800400200099602e+02 5.714191149886270986e-05
5.609804902451224962e+02 5.766074443300235706e-05
5.618809404702351458e+02 5.834471879641278094e-05
5.627813906953476817e+02 5.910695626367908783e-05
5.636818409204602176e+02 5.979707831530645297e-05
5.645822911455727535e+02 6.026239233583797128e-05
5.654827413706852894e+02 6.051331681951132137e-05
5.663831915957978254e+02 6.069144489708930799e-05
5.672836418209104750e+02 6.099535969119591710e-05
5.681840920460230109e+02 6.150615485169815900e-05
5.690845422711355468e+02 6.213251249359521731e-05
5.699849924962480827e+02 6.274636399152879742e-05
5.708854427213606186e+02 6.318482633714933821e-05
5.717858929464731546e+02 6.333927146251552311e-05
5.726863431715858042e+02 6.334357769782961644e-05
5.735867933966983401e+02 6.349978397465027679e-05
5.744872436218108760e+02 6.391149163979515074e-05
5.753876938469234119e+02 6.432361831086348821e-05
5.762881440720359478e+02 6.453087670705521324e-05
5.771885942971485974e+02 6.463741096541165585e-05
5.780890445222611334e+02 6.488778575813170099e-05
5.789894947473736693e+02 6.532605143664059575e-05
5.798899449724862052e+02 6.574802397837861700e-05
5.807903951975987411e+02 6.604992145559686063e-05
5.816908454227112770e+02 6.641703853009846184e-05
5.825912956478239266e+02 6.710544211384352983e-05
5.834917458729364625e+02 6.811612380186918389e-05
5.843921960980489985e+02 6.916372721066374528e-05
5.852926463231615344e+02 6.981599531237172749e-05
5.861930965482740703e+02 6.977275351317879586e-05
5.870935467733867199e+02 6.917604376879444585e-05
5.879939969984992558e+02 6.845586197417173504e-05
5.888944472236117917e+02 6.782606754489677004e-05
5.897948974487243277e+02 6.712408035183091849e-05
5.906953476738368636e+02 6.635786182367185010e-05
5.915957978989493995e+02 6.586714726523533686e-05
5.924962481240620491e+02 6.586174245948562764e-05
5.933966983491745850e+02 6.637434541443796318e-05
5.942971485742871209e+02 6.736891678789959359e-05
5.951975987993996569e+02 6.863047133565068343e-05
5.960980490245121928e+02 6.972761378320394118e-05
5.969984992496247287e+02 7.015948590495166802e-05
5.978989494747373783e+02 6.976163377213539715e-05
5.987993996998499142e+02 6.893393403618515989e-05
5.996998499249624501e+02 6.825532531605063070e-05
6.006003001500749860e+02 6.800686849761810085e-05
6.015007503751875220e+02 6.802477183261845936e-05
6.024012006003001716e+02 6.798163858607939980e-05
6.033016508254127075e+02 6.762753293746449890e-05
6.042021010505252434e+02 6.677985260588779285e-05
6.051025512756377793e+02 6.554894388533041318e-05
6.060030015007503152e+02 6.444450862026806278e-05
6.069034517258628512e+02 6.391867385821463723e-05
6.078039019509755008e+02 6.395878941046203388e-05
6.087043521760880367e+02 6.430260180011518854e-05
6.096048024012005726e+02 6.474503966593780219e-05
6.105052526263131085e+02 6.501811106365388583e-05
6.114057028514256444e+02 6.490728334306932422e-05
6.123061530765382940e+02 6.464636534439974322e-05
6.132066033016508300e+02 6.464037446689860182e-05
6.141070535267633659e+02 6.501853445148884968e-05
6.150075037518759018e+02 6.570028167179282137e-05
6.159079539769884377e+02 6.655978884508401909e-05
6.168084042021009736e+02 6.750305054881797359e-05
6.177088544272136232e+02 6.846030402888564977e-05
6.186093046523261592e+02 6.943894369687508784e-05
6.195097548774386951e+02 7.056947079174393596e-05
6.204102051025512310e+02 7.194518487048467373e-05
6.213106553276637669e+02 7.344842245048334624e-05
6.222111055527763028e+02 7.471177087820130307e-05
6.231115557778889524e+02 7.521308344333004479e-05
6.240120060030014884e+02 7.472898814232468566e-05
6.249124562281140243e+02 7.350184280617360569e-05
6.258129064532265602e+02 7.192741762944426928e-05
6.267133566783390961e+02 7.049442700474061406e-05
6.276138069034517457e+02 6.961052953204755703e-05
6.285142571285642816e+02 6.934769791726555000e-05
6.294147073536768175e+02 6.947310217798417645e-05
6.303151575787893535e+02 6.975584739183942251e-05
6.312156078039018894e+02 7.020486151099236737e-05
6.321160580290144253e+02 7.087045256729425900e-05
6.330165082541270749e+02 7.162522370259879611e-05
6.339169584792396108e+02 7.226642871437735530e-05
6.348174087043521467e+02 7.256432658682665212e-05
6.357178589294646827e+02 7.228809944076148902e-05
6.366183091545772186e+02 7.133977420392032226e-05
6.375187593796898682e+02 6.984363075003118676e-05
6.384192096048024041e+02 6.814951264946596970e-05
6.393196598299149400e+02 6.658087054736524970e-05
6.402201100550274759e+02 6.524214852073378023e-05
6.411205602801400119e+02 6.413006320855383995e-05
6.420210105052525478e+02 6.325831429292593682e-05
6.429214607303651974e+02 6.257060794804819180e-05
6.438219109554777333e+02 6.191745567156411751e-05
6.447223611805902692e+02 6.126109708560765533e-05
6.456228114057028051e+02 6.082674497470874950e-05
6.465232616308153411e+02 6.099311906658808145e-05
6.474237118559278770e+02 6.192894297555280657e-05
6.483241620810405266e+02 6.327967624471986425e-05
6.492246123061530625e+02 6.442129180180538727e-05
6.501250625312655984e+02 6.496390680168825774e-05
6.510255127563781343e+02 6.495833659017949922e-05
6.519259629814906702e+02 6.464238077491803419e-05
6.528264132066033198e+02 6.402674279253649031e-05
6.537268634317158558e+02 6.306599022267769252e-05
6.546273136568283917e+02 6.205974256266989190e-05
6.555277638819409276e+02 6.127460511636646182e-05
6.564282141070534635e+02 6.060508972193344858e-05
6.573286643321659994e+02 5.997249618231773434e-05
6.582291145572786490e+02 5.957178514323361365e-05
6.591295647823911850e+02 5.961976795044223045e-05
6.600300150075037209e+02 6.002190235375764636e-05
6.609304652326162568e+02 6.043343852293143678e-05
6.618309154577287927e+02 6.059748987583417525e-05
6.627313656828414423e+02 6.053903851724728443e-05
6.636318159079539782e+02 6.046555918271276597e-05
6.645322661330665142e+02 6.049103416567621608e-05
6.654327163581790501e+02 6.054596954939179821e-05
6.663331665832915860e+02 6.045556148383672996e-05
6.672336168084041219e+02 6.011625551393845636e-05
6.681340670335167715e+02 5.966634113053899912e-05
6.690345172586293074e+02 5.916381312356408197e-05
6.699349674837418434e+02 5.846922370037374822e-05
6.708354177088543793e+02 5.752303362042146079e-05
6.717358679339669152e+02 5.648541523079303293e-05
6.726363181590794511e+02 5.553622426084513540e-05
6.735367683841921007e+02 5.474439448437868515e-05
6.744372186093046366e+02 5.415862810027090318e-05
6.753376688344171725e+02 5.384554424560381508e-05
6.762381190595297085e+02 5.386073406253222479e-05
6.771385692846422444e+02 5.421586874809931222e-05
6.780390195097548940e+02 5.479079034955158133e-05
6.789394697348674299e+02 5.528853957209584866e-05
6.798399199599799658e+02 5.538374251782335122e-05
6.807403701850925017e+02 5.499536943921070719e-05
6.816408204102050377e+02 5.438905502240173206e-05
6.825412706353175736e+02 5.381388725720240925e-05
6.834417208604302232e+02 5.318615842616333052e-05
6.843421710855427591e+02 5.235078071653820325e-05
6.852426213106552950e+02 5.135155587567870875e-05
6.861430715357678309e+02 5.036922910203301096e-05
6.870435217608803669e+02 4.957243570615425365e-05
6.879439719859930165e+02 4.895523241127415330e-05
6.888444222111055524e+02 4.830267672794280018e-05
6.897448724362180883e+02 4.741881295391594224e-05
6.906453226613306242e+02 4.627373962287881405e-05
6.915457728864431601e+02 4.506316987298416074e-05
6.924462231115556961e+02 4.414890914736279895e-05
6.933466733366683457e+02 4.367225356432848782e-05
6.942471235617808816e+02 4.343702877016499285e-05
6.951475737868934175e+02 4.322411028983958288e-05
6.960480240120059534e+02 4.295836627095316707e-05
6.969484742371184893e+02 4.261994532098351289e-05
6.978489244622311389e+02 4.226401111215241787e-05
6.987493746873436749e+02 4.197424449433459688e-05
6.996498249124562108e+02 4.175268243031115677e-05
7.005502751375687467e+02 4.152573382996594298e-05
7.014507253626812826e+02 4.129307528548313517e-05
7.023511755877938185e+02 4.114358032032447801e-05
7.032516258129064681e+02 4.105536217039652298e-05
7.041520760380190040e+02 4.089978079033923259e-05
7.050525262631315400e+02 4.072015926972038092e-05
7.059529764882440759e+02 4.070033943280492914e-05
7.068534267133566118e+02 4.087358869661491368e-05
7.077538769384691477e+02 4.108132359818056822e-05
7.086543271635817973e+02 4.126036713233581163e-05
7.095547773886943332e+02 4.157626084271196209e-05
7.104552276138068692e+02 4.212032970045505098e-05
7.113556778389194051e+02 4.268813676287555570e-05
7.122561280640319410e+02 4.294958560750270090e-05
7.131565782891445906e+02 4.279472607931860789e-05
7.140570285142571265e+02 4.241821514751477313e-05
7.149574787393696624e+02 4.201239775119003383e-05
7.158579289644821984e+02 4.154783601132476344e-05
7.167583791895947343e+02 4.092365990128747806e-05
7.176588294147072702e+02 4.013732928125335862e-05
7.185592796398199198e+02 3.934468106320342768e-05
7.194597298649324557e+02 3.874329353368441772e-05
7.203601800900449916e+02 3.843024986097831218e-05
7.212606303151575275e+02 3.842708927722593507e-05
7.221610805402700635e+02 3.863646511413125836e-05
7.230615307653827131e+02 3.888358619475311856e-05
7.239619809904952490e+02 3.911513351310773583e-05
7.248624312156077849e+02 3.933593556889089488e-05
7.257628814407203208e+02 3.946296140952292497e-05
7.266633316658328567e+02 3.945723042891766493e-05
7.275637818909453927e+02 3.933990768194011199e-05
7.284642321160580423e+02 3.912281857571979016e-05
7.293646823411705782e+02 3.883753591596662759e-05
7.302651325662831141e+02 3.854203745006899734e-05
7.311655827913956500e+02 3.831143769371278237e-05
7.320660330165081859e+02 3.807398318043517038e-05
7.329664832416207219e+02 3.761655769019801133e-05
7.338669334667333715e+02 3.690900060515594187e-05
7.347673836918459074e+02 3.617907624135024248e-05
7.356678339169584433e+02 3.572652065749812306e-05
7.365682841420709792e+02 3.568286678358390180e-05
7.374687343671835151e+02 3.589200772245633588e-05
7.383691845922961647e+02 3.617208742152610537e-05
7.392696348174087007e+02 3.649828963916672427e-05
7.401700850425212366e+02 3.685913017629590440e-05
7.410705352676337725e+02 3.710368055746441447e-05
7.419709854927463084e+02 3.701830516069223788e-05
7.428714357178588443e+02 3.654508706395631493e-05
7.437718859429714939e+02 3.580142304635654997e-05
7.446723361680840299e+02 3.487768189773066217e-05
7.455727863931965658e+02 3.379149556503584120e-05
7.464732366183091017e+02 3.264739311460165637e-05
7.473736868434216376e+02 3.162319654736734905e-05
7.482741370685342872e+02 3.084105321130507755e-05
7.491745872936468231e+02 3.036951240390635716e-05
7.500750375187593590e+02 3.022328261548148836e-05
7.509754877438718950e+02 3.033091113710275320e-05
7.518759379689844309e+02 3.056003241822307303e-05
7.527763881940969668e+02 3.075620520539437908e-05
7.536768384192096164e+02 3.081462018510932270e-05
7.545772886443221523e+02 3.076319600344594641e-05
7.554777388694346882e+02 3.067798558768809351e-05
7.563781890945472242e+02 3.059204124166304672e-05
7.572786393196597601e+02 3.049383847631733960e-05
7.581790895447722960e+02 3.038483277763862623e-05
7.590795397698849456e+02 3.029891549697920399e-05
7.599799899949974815e+02 3.022435569396896921e-05
7.608804402201100174e+02 3.014221893860788833e-05
7.617808904452225534e+02 3.009899401703135371e-05
7.626813406703350893e+02 3.009662617787441875e-05
7.635817908954477389e+02 3.008017491181662166e-05
7.644822411205602748e+02 2.998169764496385906e-05
7.653826913456728107e+02 2.978151309592891221e-05
7.662831415707853466e+02 2.951912840452687578e-05
7.671835917958978825e+02 2.923231804424162913e-05
7.680840420210104185e+02 2.899729447501156172e-05
7.689844922461230681e+02 2.884988084612419100e-05
7.698849424712356040e+02 2.871974145901122087e-05
7.707853926963481399e+02 2.858872590360001106e-05
7.716858429214606758e+02 2.847936234981399879e-05
7.725862931465732117e+02 2.835271040845976958e-05
7.734867433716858613e+02 2.821922408426249347e-05
7.743871935967983973e+02 2.817310433585747500e-05
7.752876438219109332e+02 2.823078055122787923e-05
7.761880940470234691e+02 2.829486627813176846e-05
7.770885442721360050e+02 2.824950855501554657e-05
7.779889944972485409e+02 2.808346328724365331e-05
7.788894447223611905e+02 2.787206379082333516e-05
7.797898949474737265e+02 2.768982269448249362e-05
7.806903451725862624e+02 2.759300098509125552e-05
7.815907953976987983e+02 2.757438646242177754e-05
7.824912456228113342e+02 2.751443925839194612e-05
7.833916958479238701e+02 2.731612377137624274e-05
7.842921460730365197e+02 2.701690993069796941e-05
7.851925962981490557e+02 2.672264514965911440e-05
7.860930465232615916e+02 2.654220280955365386e-05
7.869934967483741275e+02 2.650220858661615097e-05
7.878939469734866634e+02 2.652674740078760814e-05
7.887943971985993130e+02 2.653554138954386163e-05
7.896948474237118489e+02 2.652069617447453404e-05
7.905952976488243849e+02 2.657527083746426754e-05
7.914957478739369208e+02 2.677399484693293474e-05
7.923961980990494567e+02 2.706536764736473677e-05
7.932966483241619926e+02 2.734584807442276398e-05
7.941970985492746422e+02 2.751379380773416410e-05
7.950975487743871781e+02 2.753569013202616892e-05
7.959979989994997140e+02 2.744260300096705278e-05
7.968984492246122500e+02 2.722232494913217186e-05
7.977988994497247859e+02 2.690112188205012931e-05
7.986993496748374355e+02 2.658475325835747124e-05
7.995997998999499714e+02 2.637487039782827008e-05
8.005002501250625073e+02 2.634407884002564076e-05
8.014007003501750432e+02 2.647417982163042301e-05
8.023011505752875792e+02 2.669123925130262678e-05
8.032016008004001151e+02 2.695060631662534619e-05
8.041020510255127647e+02 2.715826402633697367e-05
8.050025012506253006e+02 2.718187806151838807e-05
8.059029514757378365e+02 2.705829521850259547e-05
8.068034017008503724e+02 2.698076601305807125e-05
8.077038519259629084e+02 2.703005472836030227e-05
8.086043021510754443e+02 2.706667000128680652e-05
8.095047523761880939e+02 2.694443001198044532e-05
8.104052026013006298e+02 2.665742160244447646e-05
8.113056528264131657e+02 2.628815481691720342e-05
8.122061030515257016e+02 2.598556427375977687e-05
8.131065532766382375e+02 2.586290196990283379e-05
8.140070035017508872e+02 2.589622369125991290e-05
8.149074537268634231e+02 2.593792581946930203e-05
8.158079039519759590e+02 2.584366470306284134e-05
8.167083541770884949e+02 2.559775507776145079e-05
8.176088044022010308e+02 2.532200239585204345e-05
8.185092546273135667e+02 2.511142258517441755e-05
8.194097048524262163e+02 2.493712918480288861e-05
8.203101550775387523e+02 2.475268039058429307e-05
8.212106053026512882e+02 2.458559242470112239e-05
8.221110555277638241e+02 2.454163206170002101e-05
8.230115057528763600e+02 2.469305077460109217e-05
8.239119559779890096e+02 2.496315056402094876e-05
8.248124062031015455e+02 2.520974411485313492e-05
8.257128564282140815e+02 2.539107841049553557e-05
8.266133066533266174e+02 2.556653134658916300e-05
8.275137568784391533e+02 2.575541962114965278e-05
8.284142071035516892e+02 2.590529128404471244e-05
8.293146573286643388e+02 2.599331730138249190e-05
8.302151075537768747e+02 2.601041986062740881e-05
8.311155577788894107e+02 2.590497846922927983e-05
8.320160080040019466e+02 2.567662285740744503e-05
8.329164582291144825e+02 2.541691573714757805e-05
8.338169084542270184e+02 2.527247300634146310e-05
8.347173586793396680e+02 2.536975967270181339e-05
8.356178089044522039e+02 2.568907813066735555e-05
8.365182591295647399e+02 2.607897662685751351e-05
8.374187093546772758e+02 2.638936831512240353e-05
8.383191595797898117e+02 2.659152270280115408e-05
8.392196098049024613e+02 2.679595966108017237e-05
8.401200600300149972e+02 2.710979848907681738e-05
8.410205102551275331e+02 2.749449634497319364e-05
8.419209604802400690e+02 2.785541437724357121e-05
8.428214107053526050e+02 2.819259349384292831e-05
8.437218609304651409e+02 2.858053322882961545e-05
8.446223111555777905e+02 2.905911880071982529e-05
8.455227613806903264e+02 2.955904693400783381e-05
8.464232116058028623e+02 2.995670623828778349e-05
8.473236618309153982e+02 3.018330069524474425e-05
8.482241120560279342e+02 3.027287676204587665e-05
8.491245622811405838e+02 3.031346858540662434e-05
8.500250125062531197e+02 3.031989355602433096e-05
8.509254627313656556e+02 3.020405755665261769e-05
8.518259129564781915e+02 2.990090761404719686e-05
8.527263631815907274e+02 2.948586252828723698e-05
8.536268134067032634e+02 2.905096164362479868e-05
8.545272636318159130e+02 2.857583976946550031e-05
8.554277138569284489e+02 2.807336219627532223e-05
8.563281640820409848e+02 2.763363317380802619e-05
8.572286143071535207e+02 2.731400682246837121e-05
8.581290645322660566e+02 2.717633756620672968e-05
8.590295147573785925e+02 2.727157397099935079e-05
8.599299649824912422e+02 2.749195946421275930e-05
8.608304152076037781e+02 2.761217630068353069e-05
8.617308654327163140e+02 2.752868527405811843e-05
8.626313156578288499e+02 2.735440906661933255e-05
8.635317658829413858e+02 2.726597160721553467e-05
8.644322161080540354e+02 2.736536377492238570e-05
8.653326663331665713e+02 2.766006735810339482e-05
8.662331165582791073e+02 2.810989482438387604e-05
8.671335667833916432e+02 2.868015520665876696e-05
8.680340170085041791e+02 2.933577213123046348e-05
8.689344672336167150e+02 3.002453006296139113e-05
8.698349174587293646e+02 3.065996115369642663e-05
8.707353676838419005e+02 3.106828072073705574e-05
8.716358179089544365e+02 3.115341525341616414e-05
8.725362681340669724e+02 3.097401970715841618e-05
8.734367183591795083e+02 3.062348382327312687e-05
8.743371685842921579e+02 3.028350628136472313e-05
8.752376188094046938e+02 3.016933883251654057e-05
8.761380690345172297e+02 3.036041310128255227e-05
8.770385192596297657e+02 3.078130831032904459e-05
8.779389694847423016e+02 3.127239042076380792e-05
8.788394197098548375e+02 3.164695086269161874e-05
8.797398699349674871e+02 3.180436569220437847e-05
8.806403201600800230e+02 3.184788069087094689e-05
8.815407703851925589e+02 3.197670485746736241e-05
8.824412206103050949e+02 3.220292806720217733e-05
8.833416708354176308e+02 3.238843254712167141e-05
8.842421210605301667e+02 3.252551809872024135e-05
8.851425712856428163e+02 3.269559540030575711e-05
8.860430215107553522e+02 3.289001908607976104e-05
8.869434717358678881e+02 3.306528182618752543e-05
8.878439219609804240e+02 3.314601370343015911e-05
8.887443721860929600e+02 3.310663243507812098e-05
8.896448224112056096e+02 3.308209786959645288e-05
8.905452726363181455e+02 3.325271932596011082e-05
8.914457228614306814e+02 3.364571013378754225e-05
8.923461730865432173e+02 3.410007453288279065e-05
8.932466233116557532e+02 3.441314427421424295e-05
8.941470735367682892e+02 3.452634581230797594e-05
8.950475237618809388e+02 3.453967572922184745e-05
8.959479739869934747e+02 3.462593019047653946e-05
8.968484242121060106e+02 3.490452096242347893e-05
8.977488744372185465e+02 3.533054127995765236e-05
8.986493246623310824e+02 3.577674099341632258e-05
8.995497748874437320e+02 3.621029722907865081e-05
9.004502251125562680e+02 3.672781239406574497e-05
9.013506753376688039e+02 3.744789868618611251e-05
9.022511255627813398e+02 3.834474795507820087e-05
9.031515757878938757e+02 3.925630177526101479e-05
9.040520260130064116e+02 4.002211869616255591e-05
9.049524762381190612e+02 4.061997498726208712e-05
9.058529264632315972e+02 4.115159647227535931e-05
9.067533766883441331e+02 4.176629458366377712e-05
9.076538269134566690e+02 4.253325073869627259e-05
9.085542771385692049e+02 4.335511569680881009e-05
9.094547273636817408e+02 4.413320598038902832e-05
9.103551775887943904e+02 4.481109448407688875e-05
9.112556278139069263e+02 4.533728494533864921e-05
9.121560780390194623e+02 4.573595978520048235e-05
9.130565282641319982e+02 4.610169503860093711e-05
9.139569784892445341e+02 4.649281381545572028e-05
9.148574287143571837e+02 4.689453724077032574e-05
9.157578789394697196e+02 4.738059754194790554e-05
9.166583291645822555e+02 4.799367439431515827e-05
9.175587793896947915e+02 4.865758405200844235e-05
9.184592296148073274e+02 4.949074493901116812e-05
9.193596798399198633e+02 5.068282412502045126e-05
9.202601300650325129e+02 5.212085272998776589e-05
9.211605802901450488e+02 5.345673161672985659e-05
9.220610305152575847e+02 5.452620650471064255e-05
9.229614807403701207e+02 5.547282728490967831e-05
9.238619309654826566e+02 5.638011370131584463e-05
9.247623811905953062e+02 5.719340782131897798e-05
9.256628314157078421e+02 5.809575432473724078e-05
9.265632816408203780e+02 5.941718240021922037e-05
9.274637318659329139e+02 6.117122211216104838e-05
9.283641820910454499e+02 6.298665139819235404e-05
9.292646323161579858e+02 6.448308760430075226e-05
9.301650825412706354e+02 6.560056855134379034e-05
9.310655327663831713e+02 6.648312592919315993e-05
9.319659829914957072e+02 6.718849029051614783e-05
9.328664332166082431e+02 6.771242137949271868e-05
9.337668834417207790e+02 6.809052104369636856e-05
9.346673336668334287e+02 6.849432704505699571e-05
9.355677838919459646e+02 6.923245636567955754e-05
9.364682341170585005e+02 7.042297078846041338e-05
9.373686843421710364e+02 7.179538135240452908e-05
9.382691345672835723e+02 7.297012529048622529e-05
9.391695847923961082e+02 7.372972501046156323e-05
9.400700350175087578e+02 7.419105208532947966e-05
9.409704852426212938e+02 7.471603365524050807e-05
9.418709354677338297e+02 7.563552129607208129e-05
9.427713856928463656e+02 7.714206825954452926e-05
9.436718359179589015e+02 7.906462069648308990e-05
9.445722861430714374e+02 8.098336879031998537e-05
9.454727363681840870e+02 8.259664393092078531e-05
9.463731865932966230e+02 8.382482743060411126e-05
9.472736368184091589e+02 8.493056149614276881e-05
9.481740870435216948e+02 8.619013552665639837e-05
9.490745372686342307e+02 8.737381586844442354e-05
9.499749874937468803e+02 8.791831036262823750e-05
9.508754377188594162e+02 8.750990029675003823e-05
9.517758879439719522e+02 8.637701357314277574e-05
9.526763381690844881e+02 8.500444576836259922e-05
9.535767883941970240e+02 8.374654208588200896e-05
9.544772386193095599e+02 8.284289787036406769e-05
9.553776888444222095e+02 8.243473145514098081e-05
9.562781390695347454e+02 8.231326592958448799e-05
9.571785892946472813e+02 8.224993939701029876e-05
9.580790395197598173e+02 8.254513286036526385e-05
9.589794897448723532e+02 8.367503378495188789e-05
9.598799399699850028e+02 8.581335582812430309e-05
9.607803901950975387e+02 8.883800396297383492e-05
9.616808404202100746e+02 9.238477009256464286e-05
9.625812906453226105e+02 9.593377983417934643e-05
9.634817408704351465e+02 9.919445699366952250e-05
9.643821910955476824e+02 1.022737770272591604e-04
9.652826413206603320e+02 1.049773150353859971e-04
9.661830915457728679e+02 1.065812006862551861e-04
9.670835417708854038e+02 1.066814354498047990e-04
9.679839919959979397e+02 1.056210089209124001e-04
9.688844422211104757e+02 1.042578770203557133e-04
9.697848924462230116e+02 1.035158096432614794e-04
9.706853426713356612e+02 1.038505644547161119e-04
9.715857928964481971e+02 1.053017890444832077e-04
9.724862431215607330e+02 1.075845013660938425e-04
9.733866933466732689e+02 1.102791482335724224e-04
9.742871435717858049e+02 1.131219994371968242e-04
9.751875937968984545e+02 1.159252328261789353e-04
9.760880440220109904e+02 1.184096305741739964e-04
9.769884942471235263e+02 1.203615788753197577e-04
9.778889444722360622e+02 1.220162195763322332e-04
9.787893946973485981e+02 1.237765949023091115e-04
9.796898449224611340e+02 1.255887566395142991e-04
9.805902951475737837e+02 1.270580540901657660e-04
9.814907453726863196e+02 1.280114231374418108e-04
9.823911955977988555e+02 1.289638881635328776e-04
9.832916458229113914e+02 1.306797000917764892e-04
9.841920960480239273e+02 1.332096007976174849e-04
9.850925462731365769e+02 1.358350842206863904e-04
9.859929964982491128e+02 1.377510777110867548e-04
9.868934467233616488e+02 1.388458413837221240e-04
9.877938969484741847e+02 1.397632924545057047e-04
9.886943471735867206e+02 1.412992640186110679e-04
9.895947973986992565e+02 1.436750091886330723e-04
9.904952476238119061e+02 1.464581342526254549e-04
9.913956978489244420e+02 1.492176593597358285e-04
9.922961480740369780e+02 1.524223730466372671e-04
9.931965982991495139e+02 1.569027255379082050e-04
9.940970485242620498e+02 1.626914735822494436e-04
9.949974987493745857e+02 1.689525739244780017e-04
9.958979489744872353e+02 1.745001918361563213e-04
9.967983991995997712e+02 1.786358985260652241e-04
9.976988494247123072e+02 1.815221266202304016e-04
9.985992996498248431e+02 1.836217129614724350e-04
9.994997498749373790e+02 1.855225968157475148e-04
1.000400200100050029e+03 1.874732050405181595e-04
1.001300650325162565e+03 1.893637759609542465e-04
1.002201100550275100e+03 1.914470904894453895e-04
1.003101550775387636e+03 1.942697450547369606e-04
1.004002001000500172e+03 1.978270982343470095e-04
1.004902451225612708e+03 2.014722491752833644e-04
1.005802901450725358e+03 2.046092258581762291e-04
1.006703351675837894e+03 2.072137685398700731e-04
1.007603801900950430e+03 2.096537678892113033e-04
1.008504252126062966e+03 2.126072631916168761e-04
1.009404702351175501e+03 2.168131417105949180e-04
1.010305152576288151e+03 2.221133598197485063e-04
1.011205602801400687e+03 2.277480682591050761e-04
1.012106053026513223e+03 2.330753898303690355e-04
1.013006503251625759e+03 2.377718082751546628e-04
1.013906953476738295e+03 2.422301862837797327e-04
1.014807403701850831e+03 2.471796075604717536e-04
1.015707853926963480e+03 2.522507681943020395e-04
1.016608304152076016e+03 2.563034375180091697e-04
1.017508754377188552e+03 2.595394853429967862e-04
1.018409204602301088e+03 2.635360986059326967e-04
1.019309654827413624e+03 2.693754434882971133e-04
1.020210105052526160e+03 2.768085996795379843e-04
1.021110555277638809e+03 2.846353135582624047e-04
1.022011005502751345e+03 2.911853076416939237e-04
1.022911455727863881e+03 2.951493843517035971e-04
1.023811905952976417e+03 2.965196160127169358e-04
1.024712356178089067e+03 2.964908980489914018e-04
1.025612806403201603e+03 2.971727333307983823e-04
1.026513256628314139e+03 3.007403050291069775e-04
1.027413706853426675e+03 3.075660664722993471e-04
1.028314157078539210e+03 3.162273356387512550e-04
1.029214607303651746e+03 3.255111096691166235e-04
1.030115057528764282e+03 3.345737995557551648e-04
1.031015507753876818e+03 3.429569142271446185e-04
1.031915957978989354e+03 3.511467967858137489e-04
1.032816408204101890e+03 3.599812181469463023e-04
1.033716858429214653e+03 3.701452817355361060e-04
1.034617308654327189e+03 3.816821675532182574e-04
1.035517758879439725e+03 3.940424445286238100e-04
1.036418209104552261e+03 4.066850402685141634e-04
1.037318659329664797e+03 4.191934583993659337e-04
1.038219109554777333e+03 4.312878656765435571e-04
1.039119559779889869e+03 4.424362840204167134e-04
1.040020010005002405e+03 4.520703578103349093e-04
1.040920460230114941e+03 4.592387794429857910e-04
1.041820910455227477e+03 4.635245079318962391e-04
1.042721360680340013e+03 4.675701048133343871e-04
1.043621810905452776e+03 4.750444426975290128e-04
1.044522261130565312e+03 4.865678981813038873e-04
1.045422711355677848e+03 4.997564970432835565e-04
1.046323161580790384e+03 5.122488942483083025e-04
1.047223611805902920e+03 5.219269316749563983e-04
1.048124062031015455e+03 5.279437937666285000e-04
1.049024512256127991e+03 5.328227792028189828e-04
1.049924962481240527e+03 5.388099981646746238e-04
1.050825412706353063e+03 5.452865842135097866e-04
1.051725862931465599e+03 5.508291463114845963e-04
1.052626313156578135e+03 5.545806769990674215e-04
1.053526763381690898e+03 5.566122131057937026e-04
1.054427213606803434e+03 5.586609841515389032e-04
1.055327663831915970e+03 5.632668229145611303e-04
1.056228114057028506e+03 5.705844664732907237e-04
1.057128564282141042e+03 5.776581032250367991e-04
1.058029014507253578e+03 5.815095747199555644e-04
1.058929464732366114e+03 5.819082099915418547e-04
1.059829914957478650e+03 5.811325690917322267e-04
1.060730365182591186e+03 5.818132095274121656e-04
1.061630815407703722e+03 5.842778733558379699e-04
1.062531265632816257e+03 5.864931147869495822e-04
1.063431715857929021e+03 5.872343040801018734e-04
1.064332166083041557e+03 5.881693646170917675e-04
1.065232616308154093e+03 5.927544007560415487e-04
1.066133066533266629e+03 6.030505598653818598e-04
1.067033516758379164e+03 6.171973032429100506e-04
1.067933966983491700e+03 6.296312281445818563e-04
1.068834417208604236e+03 6.357370071010753042e-04
1.069734867433716772e+03 6.350831135276864287e-04
1.070635317658829308e+03 6.300628058122230727e-04
1.071535767883941844e+03 6.236502313957661622e-04
1.072436218109054380e+03 6.185390586011535333e-04
1.073336668334167143e+03 6.156306356395604496e-04
1.074237118559279679e+03 6.142701062842866955e-04
1.075137568784392215e+03 6.137586422651317587e-04
1.076038019009504751e+03 6.135309770770526645e-04
1.076938469234617287e+03 6.124400807407242306e-04
1.077838919459729823e+03 6.089667453110253091e-04
1.078739369684842359e+03 6.033700119829778609e-04
1.079639819909954895e+03 5.983142162938125770e-04
1.080540270135067431e+03 5.951468892019062904e-04
1.081440720360179967e+03 5.928817560491848101e-04
1.082341170585292502e+03 5.905795304617768651e-04
1.083241620810405038e+03 5.887127834756230530e-04
1.084142071035517802e+03 5.871451256554133377e-04
1.085042521260630338e+03 5.835675881213418879e-04
1.085942971485742873e+03 5.775364383536426855e-04
1.086843421710855409e+03 5.723791286158435914e-04
1.087743871935967945e+03 5.711462896847087529e-04
1.088644322161080481e+03 5.732435166899803791e-04
1.089544772386193017e+03 5.771830595797838078e-04
1.090445222611305553e+03 5.822834248259583286e-04
1.091345672836418089e+03 5.870106318750167255e-04
1.092246123061530625e+03 5.890754620168746217e-04
1.093146573286643161e+03 5.873311911446486844e-04
1.094047023511755924e+03 5.817616952458375471e-04
1.094947473736868460e+03 5.733180413281619911e-04
1.095847923961980996e+03 5.643652791003752386e-04
1.096748374187093532e+03 5.568721563449885274e-04
1.097648824412206068e+03 5.494144406182898148e-04
1.098549274637318604e+03 5.391193854228172643e-04
1.099449724862431140e+03 5.257336080445489720e-04
1.100350175087543676e+03 5.108465404890322409e-04
1.101250625312656211e+03 4.945317937075759942e-04
1.102151075537768747e+03 4.769193539119556419e-04
1.103051525762881283e+03 4.606802918885533537e-04
1.103951975987994047e+03 4.483668745418113743e-04
1.104852426213106583e+03 4.410066514758924101e-04
1.105752876438219118e+03 4.389327799138020023e-04
1.106653326663331654e+03 4.397428430382097357e-04
1.107553776888444190e+03 4.388495376839594213e-04
1.108454227113556726e+03 4.336148273941687757e-04
1.109354677338669262e+03 4.251364792758325663e-04
1.110255127563781798e+03 4.152403863999089653e-04
1.111155577788894334e+03 4.040705567668068923e-04
1.112056028014006870e+03 3.912111529129342464e-04
1.112956478239119406e+03 3.769729375537294713e-04
1.113856928464232169e+03 3.628163855047112328e-04
1.114757378689344705e+03 3.487505230783788900e-04
1.115657828914457241e+03 3.338294766087823392e-04
1.116558279139569777e+03 3.183244202239539247e-04
1.117458729364682313e+03 3.025080243825003026e-04
1.118359179589794849e+03 2.874943775094025451e-04
1.119259629814907385e+03 2.744978294547508260e-04
1.120160080040019920e+03 2.631732763335307740e-04
1.121060530265132456e+03 2.532772835489877235e-04
1.121960980490244992e+03 2.450155788520887775e-04
1.122861430715357528e+03 2.379332683678527752e-04
1.123761880940470292e+03 2.311822915003100792e-04
1.124662331165582827e+03 2.245795176804894376e-04
1.125562781390695363e+03 2.184550813842274226e-04
1.126463231615807899e+03 2.131503717344340374e-04
1.127363681840920435e+03 2.082213347492420765e-04
1.128264132066032971e+03 2.022413847538515584e-04
1.129164582291145507e+03 1.944915322711416369e-04
1.130065032516258043e+03 1.854503380129023441e-04
1.130965482741370579e+03 1.762793182900866673e-04
1.131865932966483115e+03 1.681752275957754594e-04
1.132766383191595651e+03 1.619001281257853228e-04
1.133666833416708187e+03 1.577402797424697664e-04
1.134567283641820950e+03 1.552343295351159356e-04
1.135467733866933486e+03 1.526101290614529759e-04
1.136368184092046022e+03 1.480686213660500092e-04
1.137268634317158558e+03 1.420514537303555597e-04
1.138169084542271094e+03 1.355238509048141350e-04
1.139069534767383630e+03 1.284456418489640954e-04
1.139969984992496165e+03 1.212336902330837248e-04
1.140870435217608701e+03 1.147230470503044273e-04
1.141770885442721237e+03 1.092479787256971866e-04
1.142671335667833773e+03 1.047632812493454543e-04
1.143571785892946309e+03 1.011336894335278680e-04
1.144472236118059072e+03 9.818919806931938703e-05
1.145372686343171608e+03 9.578242891024267547e-05
1.146273136568284144e+03 9.363020932556603230e-05
1.147173586793396680e+03 9.149301239928647191e-05
1.148074037018509216e+03 8.943634697319087674e-05
1.148974487243621752e+03 8.757204040352180405e-05
1.149874937468734288e+03 8.570694676636712330e-05
1.150775387693846824e+03 8.363315015527766048e-05
1.151675837918959360e+03 8.164378725391451463e-05
1.152576288144071896e+03 8.011171197113385600e-05
1.153476738369184432e+03 7.915543561298917213e-05
1.154377188594297195e+03 7.889647659135051619e-05
1.155277638819409731e+03 7.933659867898551011e-05
1.156178089044522267e+03 8.036329760127722906e-05
1.157078539269634803e+03 8.198728912965538417e-05
1.157978989494747339e+03 8.404543234507986160e-05
1.158879439719859874e+03 8.623237137969801450e-05
1.159779889944972410e+03 8.854794258519689738e-05
1.160680340170084946e+03 9.099804748738218906e-05
1.161580790395197482e+03 9.354235765822846622e-05
1.162481240620310018e+03 9.619168865714636469e-05
1.163381690845422554e+03 9.840153682047076127e-05
1.164282141070535317e+03 9.933266206298758028e-05
1.165182591295647853e+03 9.941398558029222927e-05
1.166083041520760389e+03 9.987000406612181968e-05
1.166983491745872925e+03 1.010759966706873368e-04
1.167883941970985461e+03 1.025415436983327406e-04
1.168784392196097997e+03 1.038676008696631754e-04
1.169684842421210533e+03 1.051744343329881877e-04
1.170585292646323069e+03 1.065325710375232050e-04
1.171485742871435605e+03 1.075799947956396300e-04
1.172386193096548141e+03 1.084011702956932856e-04
1.173286643321660677e+03 1.098469320320088680e-04
1.174187093546773440e+03 1.124786357952616293e-04
1.175087543771885976e+03 1.163892867396900294e-04
1.175987993996998512e+03 1.213882908890518840e-04
1.176888444222111048e+03 1.267772868028787104e-04
1.177788894447223583e+03 1.315288646092921529e-04
1.178689344672336119e+03 1.348652425176645778e-04
1.179589794897448655e+03 1.367114533204781058e-04
1.180490245122561191e+03 1.379514610911644981e-04
1.181390695347673727e+03 1.399426727108540316e-04
1.182291145572786263e+03 1.431418442803915878e-04
1.183191595797898799e+03 1.466490329827998390e-04
1.184092046023011562e+03 1.497529409313242690e-04
1.184992496248124098e+03 1.529490119251722098e-04
1.185892946473236634e+03 1.567294830976445803e-04
1.186793396698349170e+03 1.606477430545373694e-04
1.187693846923461706e+03 1.639619660634874371e-04
1.188594297148574242e+03 1.665574011506273759e-04
1.189494747373686778e+03 1.687833567052154005e-04
1.190395197598799314e+03 1.707111384826139793e-04
1.191295647823911850e+03 1.725505507893170887e-04
1.192196098049024386e+03 1.749535959822807150e-04
1.193096548274136921e+03 1.783516812751089863e-04
1.193996998499249457e+03 1.826167532151387260e-04
1.194897448724362221e+03 1.875276490256733424e-04
1.195797898949474757e+03 1.927182427788127670e-04
1.196698349174587293e+03 1.976699529903336002e-04
1.197598799399699828e+03 2.021070050444696788e-04
1.198499249624812364e+03 2.060768154404089868e-04
1.199399699849924900e+03 2.096920010407191440e-04
1.200300150075037436e+03 2.129424479449657155e-04
1.201200600300149972e+03 2.164064069508689055e-04
1.202101050525262508e+03 2.211359499055931923e-04
1.203001500750375044e+03 2.278450638911479718e-04
1.203901950975487580e+03 2.365006372198187427e-04
1.204802401200600343e+03 2.456636075542143719e-04
1.205702851425712879e+03 2.524906004180478710e-04
1.206603301650825415e+03 2.552997270065504565e-04
1.207503751875937951e+03 2.547223735615943962e-04
1.208404202101050487e+03 2.520944586449690790e-04
1.209304652326163023e+03 2.488933462930714518e-04
1.210205102551275559e+03 2.465141553757070701e-04
1.211105552776388095e+03 2.453251267626518754e-04
1.212006003001500630e+03 2.451499137150540378e-04
1.212906453226613166e+03 2.456066416647111582e-04
1.213806903451725702e+03 2.456706839577769952e-04
1.214707353676838466e+03 2.451463053384193304e-04
1.215607803901951002e+03 2.452944254774934202e-04
1.216508254127063537e+03 2.471231656747508538e-04
1.217408704352176073e+03 2.507178149215932243e-04
1.218309154577288609e+03 2.555497470455828264e-04
1.219209604802401145e+03 2.610247277161545343e-04
1.220110055027513681e+03 2.671391487244558242e-04
1.221010505252626217e+03 2.742420696722583135e-04
1.221910955477738753e+03 2.823632290105841441e-04
1.222811405702851289e+03 2.917880188582865878e-04
1.223711855927963825e+03 3.039128411851853501e-04
1.224612306153076588e+03 3.198076831030192144e-04
1.225512756378189124e+03 3.381482318351966315e-04
1.226413206603301660e+03 3.555607076548393400e-04
1.227313656828414196e+03 3.692397778113836533e-04
1.228214107053526732e+03 3.788343184141124988e-04
1.229114557278639268e+03 3.864894646002708044e-04
1.230015007503751804e+03 3.958259151345448973e-04
1.230915457728864340e+03 4.094615581690635021e-04
1.231815907953976875e+03 4.278687474334809154e-04
1.232716358179089411e+03 4.499623425725632927e-04
1.233616808404201947e+03 4.745619981616450525e-04
1.234517258629314711e+03 5.001204632468237701e-04
1.235417708854427246e+03 5.243237939318576898e-04
1.236318159079539782e+03 5.457031604051444922e-04
1.237218609304652318e+03 5.646066626599868278e-04
1.238119059529764854e+03 5.825620302316315531e-04
1.239019509754877390e+03 6.011267900884523490e-04
1.239919959979989926e+03 6.209640212232847394e-04
1.240820410205102462e+03 6.410732026652876886e-04
1.241720860430214998e+03 6.594252576554117048e-04
1.242621310655327534e+03 6.754686397692152844e-04
1.243521760880440070e+03 6.900930256315062706e-04
1.244422211105552606e+03 7.041133282187967855e-04
1.245322661330665369e+03 7.177709700778704162e-04
1.246223111555777905e+03 7.296931359207193494e-04
1.247123561780890441e+03 7.384400289418300905e-04
1.248024012006002977e+03 7.437638702372188076e-04
1.248924462231115513e+03 7.448383083442205446e-04
1.249824912456228049e+03 7.400933911610560641e-04
1.250725362681340584e+03 7.291945098027039157e-04
1.251625812906453120e+03 7.145846756062960471e-04
1.252526263131565656e+03 7.006681606618260678e-04
1.253426713356678192e+03 6.898064287994792702e-04
1.254327163581790728e+03 6.811985064810849831e-04
1.255227613806903491e+03 6.752230372670902075e-04
1.256128064032016027e+03 6.739717545706858711e-04
1.257028514257128563e+03 6.783136416488233164e-04
1.257928964482241099e+03 6.867795562488195667e-04
1.258829414707353635e+03 6.964994417069522107e-04
1.259729864932466171e+03 7.054600976362576789e-04
1.260630315157578707e+03 7.137261323795123305e-04
1.261530765382691243e+03 7.219454923914104009e-04
1.262431215607803779e+03 7.303101578232285181e-04
1.263331665832916315e+03 7.396203031834987836e-04
1.264232116058028851e+03 7.505668530186706015e-04
1.265132566283141614e+03 7.631037783983025220e-04
1.266033016508254150e+03 7.774105962089843894e-04
1.266933466733366686e+03 7.936121778274241902e-04
1.267833916958479222e+03 8.118337597870127964e-04
1.268734367183591758e+03 8.321099120587529966e-04
1.269634817408704293e+03 8.538976579105685269e-04
1.270535267633816829e+03 8.762912055403085853e-04
1.271435717858929365e+03 8.987487672541970198e-04
1.272336168084041901e+03 9.201005277425718413e-04
1.273236618309154437e+03 9.385928358392410563e-04
1.274137068534266973e+03 9.535335024334960731e-04
1.275037518759379736e+03 9.651953902725606514e-04
1.275937968984492272e+03 9.750225239982993715e-04
1.276838419209604808e+03 9.861177671193592509e-04
1.277738869434717344e+03 1.002294510811879051e-03
1.278639319659829880e+03 1.025501544079334814e-03
1.279539769884942416e+03 1.054144579554021008e-03
1.280440220110054952e+03 1.084897425179661909e-03
1.281340670335167488e+03 1.114761026244680611e-03
1.282241120560280024e+03 1.142912709283980558e-03
1.283141570785392560e+03 1.170317904994234428e-03
1.284042021010505096e+03 1.197614113022904244e-03
1.284942471235617859e+03 1.223606046234879553e-03
1.285842921460730395e+03 1.245180365450995232e-03
1.286743371685842931e+03 1.260089166777802333e-03
1.287643821910955467e+03 1.270289357008664135e-03
1.288544272136068003e+03 1.280192585757164219e-03
1.289444722361180538e+03 1.290458333846614602e-03
1.290345172586293074e+03 1.297761745854963218e-03
1.291245622811405610e+03 1.301502787899967662e-03
1.292146073036518146e+03 1.304222484790549348e-03
1.293046523261630682e+03 1.306476129525878729e-03
1.293946973486743218e+03 1.307807452430518637e-03
1.294847423711855754e+03 1.309509589811428580e-03
1.295747873936968517e+03 1.312402194308888914e-03
1.296648324162081053e+03 1.316397424384293732e-03
1.297548774387193589e+03 1.320583630777119079e-03
1.298449224612306125e+03 1.323739439080230500e-03
1.299349674837418661e+03 1.328783410844405636e-03
1.300250125062531197e+03 1.340315966649215009e-03
1.301150575287643733e+03 1.358273660536411711e-03
1.302051025512756269e+03 1.379479792886395941e-03
1.302951475737868805e+03 1.400129520276359712e-03
1.303851925962981340e+03 1.416807666966266466e-03
1.304752376188093876e+03 1.430319841705452724e-03
1.305652826413206640e+03 1.444562201607117865e-03
1.306553276638319176e+03 1.461029856752055992e-03
1.307453726863431712e+03 1.479633737423746579e-03
1.308354177088544247e+03 1.502300407124809592e-03
1.309254627313656783e+03 1.530282838679185775e-03
1.310155077538769319e+03 1.560840061010881213e-03
1.311055527763881855e+03 1.591606215707829820e-03
1.311955977988994391e+03 1.624407471655675908e-03
1.312856428214106927e+03 1.660776424558351675e-03
1.313756878439219463e+03 1.698807391252973257e-03
1.314657328664331999e+03 1.738643036866907316e-03
1.315557778889444762e+03 1.784255856653401860e-03
1.316458229114557298e+03 1.837633850280542781e-03
1.317358679339669834e+03 1.895576742226935240e-03
1.318259129564782370e+03 1.953373305685912349e-03
1.319159579789894906e+03 2.010553623954470983e-03
1.320060030015007442e+03 2.069505255840035484e-03
1.320960480240119978e+03 2.129070947943676514e-03
1.321860930465232514e+03 2.183758765116687074e-03
1.322761380690345050e+03 2.228965567233842648e-03
1.323661830915457585e+03 2.264079608568737075e-03
1.324562281140570121e+03 2.294715395788279443e-03
1.325462731365682885e+03 2.332514632965583968e-03
1.326363181590795421e+03 2.386050885326416581e-03
1.327263631815907956e+03 2.454743279816704645e-03
1.328164082041020492e+03 2.533371998778071506e-03
1.329064532266133028e+03 2.615975940617566459e-03
1.329964982491245564e+03 2.698306537472932188e-03
1.330865432716358100e+03 2.781264830421131904e-03
1.331765882941470636e+03 2.866920449481892043e-03
1.332666333166583172e+03 2.955654793797986811e-03
1.333566783391695708e+03 3.046541381121436326e-03
1.334467233616808244e+03 3.136763441385046879e-03
1.335367683841921007e+03 3.226446259610939952e-03
1.336268134067033543e+03 3.320176188423850511e-03
1.337168584292146079e+03 3.421120625300365457e-03
1.338069034517258615e+03 3.527916037153873592e-03
1.338969484742371151e+03 3.642738355339807891e-03
1.339869934967483687e+03 3.771913794852379664e-03
1.340770385192596223e+03 3.914931812223750897e-03
1.341670835417708759e+03 4.065017761083007143e-03
1.342571285642821294e+03 4.216558750624670518e-03
1.343471735867933830e+03 4.364844124040298534e-03
1.344372186093046366e+03 4.507179046414917963e-03
1.345272636318158902e+03 4.646645642357387362e-03
1.346173086543271666e+03 4.788327670841238670e-03
1.347073536768384201e+03 4.936295839475491123e-03
1.347973986993496737e+03 5.093552225543099277e-03
1.348874437218609273e+03 5.262689603296512655e-03
1.349774887443721809e+03 5.442195496466514099e-03
1.350675337668834345e+03 5.621637964484472831e-03
1.351575787893946881e+03 5.788413296372581923e-03
1.352476238119059417e+03 5.950121211288485028e-03
1.353376688344171953e+03 6.131614572842127540e-03
1.354277138569284489e+03 6.343581272577258554e-03
1.355177588794397025e+03 6.580015386174068240e-03
1.356078039019509788e+03 6.832311335653252354e-03
1.356978489244622324e+03 7.083500632930240723e-03
1.357878939469734860e+03 7.323888282772193434e-03
1.358779389694847396e+03 7.559469835795387845e-03
1.359679839919959932e+03 7.789958080582286976e-03
1.360580290145072468e+03 8.011192708602503376e-03
1.361480740370185003e+03 8.228154188256821266e-03
1.362381190595297539e+03 8.457950223356065084e-03
1.363281640820410075e+03 8.709715135920425774e-03
1.364182091045522611e+03 8.969761154149191382e-03
1.365082541270635147e+03 9.217274993122435978e-03
1.365982991495747910e+03 9.438764304824334705e-03
1.366883441720860446e+03 9.641860507976971612e-03
1.367783891945972982e+03 9.861571329631703409e-03
1.368684342171085518e+03 1.013659395961270457e-02
1.369584792396198054e+03 1.048084660942103993e-02
1.370485242621310590e+03 1.087606728532293683e-02
1.371385692846423126e+03 1.128807228435656403e-02
1.372286143071535662e+03 1.169735629670210462e-02
1.373186593296648198e+03 1.209413126060633441e-02
1.374087043521760734e+03 1.248490177782423868e-02
1.374987493746873270e+03 1.292309544689764465e-02
1.375887943971986033e+03 1.345858037680372835e-02
1.376788394197098569e+03 1.407526772937382938e-02
1.377688844422211105e+03 1.471544809363558443e-02
1.378589294647323641e+03 1.534097421455507364e-02
1.379489744872436177e+03 1.595540950070040501e-02
1.380390195097548713e+03 1.659845052277377636e-02
1.381290645322661248e+03 1.733145013882242402e-02
1.382191095547773784e+03 1.820062551154651154e-02
1.383091545772886320e+03 1.922124916753914850e-02
1.383991995997998856e+03 2.040226894943235683e-02
1.384892446223111392e+03 2.177300682593305906e-02
1.385792896448224155e+03 2.335529976902234878e-02
1.386693346673336691e+03 2.509467319655851042e-02
1.387593796898449227e+03 2.682361806732156198e-02
1.388494247123561763e+03 2.834686937408974552e-02
1.389394697348674299e+03 2.962963669616578560e-02
1.390295147573786835e+03 3.082108431159075526e-02
1.391195597798899371e+03 3.203654138450276467e-02
1.392096048024011907e+03 3.329091075044117443e-02
1.392996498249124443e+03 3.460092710625943535e-02
1.393896948474236979e+03 3.600083951210263783e-02
1.394797398699349515e+03 3.753002625598900188e-02
1.395697848924462278e+03 3.917734655629129953e-02
1.396598299149574814e+03 4.072773426235153094e-02
1.397498749374687350e+03 4.184865008158209637e-02
1.398399199599799886e+03 4.240486810007785407e-02
1.399299649824912422e+03 4.242663861706941902e-02
1.400200100050024957e+03 4.199069053490736558e-02
1.401100550275137493e+03 4.121742245063995252e-02
1.402001000500250029e+03 4.025971865258268223e-02
1.402901450725362565e+03 3.926273657749583534e-02
1.403801900950475101e+03 3.820236651489961749e-02
1.404702351175587637e+03 3.679772139544883192e-02
1.405602801400700173e+03 3.485841146267609075e-02
1.406503251625812936e+03 3.252628977179214398e-02
1.407403701850925472e+03 3.008891261959236590e-02
1.408304152076038008e+03 2.777550309010714397e-02
1.409204602301150544e+03 2.565213491927468420e-02
1.410105052526263080e+03 2.367403616096790467e-02
1.411005502751375616e+03 2.182390633736648947e-02
1.411905952976488152e+03 2.011013207335533154e-02
1.412806403201600688e+03 1.851537458746429013e-02
1.413706853426713224e+03 1.699160336844767957e-02
1.414607303651825760e+03 1.552571806607841963e-02
1.415507753876938295e+03 1.416326591848150220e-02
1.416408204102051059e+03 1.293601114268745980e-02
1.417308654327163595e+03 1.183633247827675476e-02
1.418209104552276131e+03 1.084979506380990763e-02
1.419109554777388666e+03 9.967797455737234871e-03
1.420010005002501202e+03 9.189715855181143991e-03
1.420910455227613738e+03 8.512460877382995589e-03
1.421810905452726274e+03 7.925194429571605706e-03
1.422711355677838810e+03 7.413449396717505975e-03
1.423611805902951346e+03 6.963061772527498992e-03
1.424512256128063882e+03 6.563395320142582229e-03
1.425412706353176418e+03 6.213690818201307066e-03
1.426313156578289181e+03 5.919932808252184944e-03
1.427213606803401717e+03 5.674955027228126628e-03
1.428114057028514253e+03 5.453274319508221238e-03
1.429014507253626789e+03 5.228401551104220127e-03
1.429914957478739325e+03 4.998199986680421439e-03
1.430815407703851861e+03 4.779774873081503450e-03
1.431715857928964397e+03 4.587977794421832164e-03
1.432616308154076933e+03 4.418574756555336373e-03
1.433516758379189469e+03 4.254657412944637916e-03
1.434417208604302004e+03 4.085633418792511060e-03
1.435317658829414540e+03 3.907303335588954186e-03
1.436218109054527304e+03 3.721814372687612480e-03
1.437118559279639840e+03 3.541054326668222063e-03
1.438019009504752376e+03 3.371414604407593513e-03
1.438919459729864911e+03 3.208783008293056554e-03
1.439819909954977447e+03 3.053588799752992439e-03
1.440720360180089983e+03 2.918474236679495775e-03
1.441620810405202519e+03 2.817106006049818409e-03
1.442521260630315055e+03 2.748242419511445680e-03
1.443421710855427591e+03 2.693891393212004964e-03
1.444322161080540127e+03 2.635308037186916575e-03
1.445222611305652663e+03 2.570368220659289844e-03
1.446123061530765426e+03 2.505982450144517062e-03
1.447023511755877962e+03 2.440332740299551613e-03
1.447923961980990498e+03 2.365775285431866593e-03
1.448824412206103034e+03 2.281571841976136415e-03
1.449724862431215570e+03 2.194798948498593878e-03
1.450625312656328106e+03 2.114253712885957696e-03
1.451525762881440642e+03 2.045673969034368395e-03
1.452426213106553178e+03 1.992797401296679625e-03
1.453326663331665713e+03 1.956105550127823153e-03
1.454227113556778249e+03 1.931887128443716788e-03
1.455127563781890785e+03 1.914897946719863351e-03
1.456028014007003321e+03 1.900500054343740725e-03
1.456928464232116085e+03 1.883219815770010566e-03
1.457828914457228620e+03 1.858980670610221528e-03
1.458729364682341156e+03 1.833123897689864588e-03
1.459629814907453692e+03 1.814828117664490882e-03
1.460530265132566228e+03 1.805283392052869093e-03
1.461430715357678764e+03 1.792928202693391425e-03
1.462331165582791300e+03 1.761436576386791715e-03
1.463231615807903836e+03 1.708215702280010961e-03
1.464132066033016372e+03 1.646612494634722710e-03
1.465032516258128908e+03 1.593078427782044105e-03
1.465932966483241444e+03 1.556613792655751026e-03
1.466833416708354207e+03 1.535607059556457887e-03
1.467733866933466743e+03 1.521768900594779039e-03
1.468634317158579279e+03 1.504941235170805013e-03
1.469534767383691815e+03 1.477655353572298203e-03
1.470435217608804351e+03 1.440649332903517479e-03
1.471335667833916887e+03 1.400613812290486598e-03
1.472236118059029423e+03 1.362741576494368731e-03
1.473136568284141958e+03 1.328538545109024744e-03
1.474037018509254494e+03 1.296784911184577704e-03
1.474937468734367030e+03 1.265289945718736349e-03
1.475837918959479566e+03 1.232627055382841787e-03
1.476738369184592329e+03 1.198886132090890228e-03
1.477638819409704865e+03 1.163918686737284340e-03
1.478539269634817401e+03 1.127674435679504143e-03
1.479439719859929937e+03 1.093412561767740602e-03
1.480340170085042473e+03 1.064246174379034895e-03
1.481240620310155009e+03 1.039418574244766608e-03
1.482141070535267545e+03 1.017274582435513100e-03
1.483041520760380081e+03 9.969109779347595877e-04
1.483941970985492617e+03 9.763170793470378212e-04
1.484842421210605153e+03 9.536097890870354156e-04
1.485742871435717689e+03 9.298947091244345311e-04
1.486643321660830452e+03 9.084408568301613430e-04
1.487543771885942988e+03 8.914111711520401795e-04
1.488444222111055524e+03 8.798152504361929881e-04
1.489344672336168060e+03 8.755289051272292268e-04
1.490245122561280596e+03 8.799385291884702018e-04
1.491145572786393132e+03 8.893593290450720534e-04
1.492046023011505667e+03 8.940072892966418119e-04
1.492946473236618203e+03 8.867677148027522556e-04
1.493846923461730739e+03 8.716050613530828932e-04
1.494747373686843275e+03 8.575206563742946136e-04
1.495647823911955811e+03 8.479721997635668047e-04
1.496548274137068574e+03 8.409841193467653504e-04
1.497448724362181110e+03 8.351863376677676849e-04
1.498349174587293646e+03 8.306484555684241506e-04
1.499249624812406182e+03 8.266441371556944306e-04
1.500150075037518718e+03 8.203382350951442985e-04
1.501050525262631254e+03 8.093821986867256926e-04
1.501950975487743790e+03 7.956061989268692521e-04
1.502851425712856326e+03 7.831107965587968435e-04
1.503751875937968862e+03 7.734628010961560338e-04
1.504652326163081398e+03 7.642712826279778396e-04
1.505552776388193934e+03 7.510105254845416030e-04
1.506453226613306470e+03 7.326065304062905157e-04
1.507353676838419233e+03 7.132503128501144294e-04
1.508254127063531769e+03 6.966819318766641518e-04
1.509154577288644305e+03 6.828680470460234304e-04
1.510055027513756841e+03 6.718241333135491211e-04
1.510955477738869376e+03 6.643652802697683169e-04
1.511855927963981912e+03 6.582695986720180558e-04
1.512756378189094448e+03 6.500100747102006103e-04
1.513656828414206984e+03 6.395464930277788189e-04
1.514557278639319520e+03 6.291338780070769099e-04
1.515457728864432056e+03 6.193265390160405818e-04
1.516358179089544592e+03 6.088957086952470491e-04
1.517258629314657355e+03 5.981525392936630188e-04
1.518159079539769891e+03 5.884945266371190663e-04
1.519059529764882427e+03 5.801090891684691428e-04
1.519959979989994963e+03 5.725743443160019900e-04
1.520860430215107499e+03 5.657241619112773337e-04
1.521760880440220035e+03 5.593101755715347784e-04
1.522661330665332571e+03 5.524427942508406547e-04
1.523561780890445107e+03 5.440815668444197884e-04
1.524462231115557643e+03 5.334499456705757772e-04
1.525362681340670179e+03 5.211283932681901911e-04
1.526263131565782714e+03 5.101654268881367429e-04
1.527163581790895478e+03 5.032358254080110263e-04
1.528064032016008014e+03 4.997018862995398006e-04
1.528964482241120550e+03 4.970733328718495532e-04
1.529864932466233086e+03 4.935003674793031871e-04
1.530765382691345621e+03 4.880247460803530850e-04
1.531665832916458157e+03 4.801726203807565418e-04
1.532566283141570693e+03 4.706414809410806302e-04
1.533466733366683229e+03 4.620706960267903203e-04
1.534367183591795765e+03 4.572940727747814974e-04
1.535267633816908301e+03 4.560578813039031744e-04
1.536168084042020837e+03 4.555132099096595878e-04
1.537068534267133600e+03 4.538205074338540657e-04
1.537968984492246136e+03 4.514096813950363701e-04
1.538869434717358672e+03 4.498357943569922311e-04
1.539769884942471208e+03 4.497791564200592828e-04
1.540670335167583744e+03 4.495861104600521580e-04
1.541570785392696280e+03 4.466383252496145288e-04
1.542471235617808816e+03 4.399695789079926308e-04
1.543371685842921352e+03 4.310972905640104297e-04
1.544272136068033888e+03 4.230815557694087492e-04
1.545172586293146423e+03 4.178704699108487671e-04
1.546073036518258959e+03 4.152545283383863250e-04
1.546973486743371723e+03 4.138519419689287130e-04
1.547873936968484259e+03 4.114540955712220056e-04
1.548774387193596795e+03 4.066229038141657456e-04
1.549674837418709330e+03 4.000744096140212416e-04
1.550575287643821866e+03 3.937495966954992588e-04
1.551475737868934402e+03 3.893044374181346299e-04
1.552376188094046938e+03 3.872209630651931005e-04
1.553276638319159474e+03 3.865122925854174709e-04
1.554177088544272010e+03 3.857038728735193850e-04
1.555077538769384546e+03 3.845520276534780050e-04
1.555977988994497082e+03 3.850076437933746035e-04
1.556878439219609618e+03 3.889315000680097540e-04
1.557778889444722381e+03 3.953913279817244442e-04
1.558679339669834917e+03 4.020268957933281219e-04
1.559579789894947453e+03 4.067509285721704294e-04
1.560480240120059989e+03 4.083799763378166388e-04
1.561380690345172525e+03 4.072190282642496159e-04
1.562281140570285061e+03 4.046261477480339120e-04
1.563181590795397597e+03 4.020994885382613861e-04
1.564082041020510133e+03 4.004333053886951869e-04
1.564982491245622668e+03 3.985157545358052576e-04
1.565882941470735204e+03 3.944099616615992271e-04
1.566783391695847740e+03 3.868720310932948414e-04
1.567683841920960504e+03 3.751379972791409382e-04
1.568584292146073039e+03 3.599576853122073692e-04
1.569484742371185575e+03 3.430520433430369449e-04
1.570385192596298111e+03 3.252823348275375292e-04
1.571285642821410647e+03 3.064269796040614935e-04
1.572186093046523183e+03 2.856466486868698132e-04
1.573086543271635719e+03 2.631827943616640549e-04
1.573986993496748255e+03 2.408414810249737798e-04
1.574887443721860791e+03 2.193599291151291785e-04
1.575787893946973327e+03 1.980316257521354262e-04
1.576688344172085863e+03 1.771883270207780768e-04
1.577588794397198626e+03 1.579527724221606788e-04
1.578489244622311162e+03 1.407712574784451246e-04
1.579389694847423698e+03 1.259225238681493996e-04
1.580290145072536234e+03 1.137281366191884754e-04
1.581190595297648770e+03 1.040790399731030924e-04
1.582091045522761306e+03 9.650148072208944439e-05
1.582991495747873842e+03 9.047405950932870000e-05
1.583891945972986377e+03 8.557972461912817085e-05
1.584792396198098913e+03 8.151923529310187307e-05
1.585692846423211449e+03 7.808372484362930950e-05
1.586593296648323985e+03 7.512670667226740051e-05
1.587493746873436749e+03 7.254369681575632725e-05
1.588394197098549284e+03 7.025863057255528907e-05
1.589294647323661820e+03 6.821498197995707344e-05
1.590195097548774356e+03 6.636992470861889550e-05
1.591095547773886892e+03 6.469043305834021090e-05
1.591995997998999428e+03 6.315062894087327587e-05
1.592896448224111964e+03 6.172994117907535413e-05
1.593796898449224500e+03 6.041180405222840470e-05
1.594697348674337036e+03 5.918272059663163735e-05
1.595597798899449572e+03 5.803157720734619017e-05
1.596498249124562108e+03 5.694913442798558848e-05
1.597398699349674871e+03 5.592764330670001242e-05
1.598299149574787407e+03 5.496055261541704515e-05
1.599199599799899943e+03 5.404228275593300881e-05
1.600100050025012479e+03 5.316804925360897317e-05
1.601000500250125015e+03 5.233372357309046388e-05
1.601900950475237551e+03 5.153572234133682421e-05
1.602801400700350086e+03 5.077091841885470375e-05
1.603701850925462622e+03 5.003656893781417139e-05
1.604602301150575158e+03 4.933025663550121785e-05
1.605502751375687694e+03 4.864984169390891463e-05
1.606403201600800230e+03 4.799342194683363296e-05
1.607303651825912766e+03 4.735929980030049595e-05
1.608204102051025529e+03 4.674595457642134695e-05
1.609104552276138065e+03 4.615201926706794319e-05
1.610005002501250601e+03 4.557626089512200609e-05
1.610905452726363137e+03 4.501756384400332678e-05
1.611805902951475673e+03 4.447491564276413278e-05
1.612706353176588209e+03 4.394739479305735392e-05
1.613606803401700745e+03 4.343416030224998755e-05
1.614507253626813281e+03 4.293444264876268183e-05
1.615407703851925817e+03 4.244753595495860449e-05
1.616308154077038353e+03 4.197279118242193619e-05
1.617208604302150889e+03 4.150961019628859677e-05
1.618109054527263652e+03 4.105744057110857016e-05
1.619009504752376188e+03 4.061577103170674612e-05
1.619909954977488724e+03 4.018412743971602709e-05
1.620810405202601260e+03 3.976206925055893762e-05
1.621710855427713796e+03 3.934918637732734789e-05
1.622611305652826331e+03 3.894509640765416548e-05
1.623511755877938867e+03 3.854944212771261453e-05
1.624412206103051403e+03 3.816188931418914632e-05
1.625312656328163939e+03 3.778212476069042454e-05
1.626213106553276475e+03 3.740985450978710108e-05
1.627113556778389011e+03 3.704480226587543635e-05
1.628014007003501774e+03 3.668670796742117229e-05
1.628914457228614310e+03 3.633532650001786905e-05
1.629814907453726846e+03 3.599042653413086329e-05
1.630715357678839382e+03 3.565178947349132907e-05
1.631615807903951918e+03 3.531920850188240417e-05
1.632516258129064454e+03 3.499248771760371616e-05
1.633416708354176990e+03 3.467144134620888811e-05
1.634317158579289526e+03 3.435589302326655343e-05
1.635217608804402062e+03 3.404567513986791116e-05
1.636118059029514598e+03 3.374062824446771858e-05
1.637018509254627133e+03 3.344060049538468451e-05
1.637918959479739897e+03 3.314544715893964549e-05
1.638819409704852433e+03 3.285503014876907054e-05
1.639719859929964969e+03 3.256921760235391400e-05
1.640620310155077505e+03 3.228788349122749441e-05
1.641520760380190040e+03 3.201090726172001568e-05
1.642421210605302576e+03 3.173817350341490953e-05
1.643321660830415112e+03 3.146957164280919899e-05
1.644222111055527648e+03 3.120499565990790227e-05
1.645122561280640184e+03 3.094434382573142944e-05
1.646023011505752720e+03 3.068751845890982301e-05
1.646923461730865256e+03 3.043442569972200801e-05
1.647823911955978019e+03 3.018497530009758118e-05
1.648724362181090555e+03 2.993908042824567337e-05
1.649624812406203091e+03 2.969665748670177944e-05
1.650525262631315627e+03 2.945762594269366250e-05
1.651425712856428163e+03 2.922190816983832629e-05
1.652326163081540699e+03 2.898942930026602742e-05
1.653226613306653235e+03 2.876011708635318868e-05
1.654127063531765771e+03 2.853390177131852616e-05
1.655027513756878307e+03 2.831071596800218212e-05
1.655927963981990843e+03 2.809049454521225019e-05
1.656828414207103378e+03 2.787317452106914120e-05
1.657728864432216142e+03 2.765869496283189914e-05
1.658629314657328678e+03 2.744699689273708565e-05
1.659529764882441214e+03 2.723802319940995877e-05
1.660430215107553749e+03 2.703171855445816866e-05
1.661330665332666285e+03 2.682802933387823006e-05
1.662231115557778821e+03 2.662690354394074254e-05
1.663131565782891357e+03 2.642829075124914192e-05
1.664032016008003893e+03 2.623214201668405609e-05
1.664932466233116429e+03 2.603840983297348702e-05
1.665832916458228965e+03 2.584704806565100602e-05
1.666733366683341501e+03 2.565801189717326660e-05
1.667633816908454037e+03 2.547125777399750454e-05
1.668534267133566800e+03 2.528674335642389914e-05
1.669434717358679336e+03 2.510442747103138337e-05
1.670335167583791872e+03 2.492427006553948852e-05
1.671235617808904408e+03 2.474623216595017109e-05
1.672136068034016944e+03 2.457027583582441351e-05
1.673036518259129480e+03 2.439636413756700781e-05
1.673936968484242016e+03 2.422446109559870482e-05
1.674837418709354552e+03 2.405453166130056987e-05
1.675737868934467087e+03 2.388654167962906005e-05
1.676638319159579623e+03 2.372045785730249670e-05
1.677538769384692159e+03 2.355624773246948984e-05
1.678439219609804923e+03 2.339387964577323555e-05
1.679339669834917459e+03 2.323332271273443366e-05
1.680240120060029994e+03 2.307454679737732452e-05
1.681140570285142530e+03 2.291752248703215962e-05
1.682041020510255066e+03 2.276222106824640456e-05
1.682941470735367602e+03 2.260861450374879029e-05
1.683841920960480138e+03 2.245667541040503339e-05
1.684742371185592674e+03 2.230637703811605996e-05
1.685642821410705210e+03 2.215769324960704736e-05
1.686543271635817746e+03 2.201059850106170992e-05
1.687443721860930282e+03 2.186506782355831155e-05
1.688344172086043045e+03 2.172107680526510766e-05
1.689244622311155581e+03 2.157860157435850961e-05
1.690145072536268117e+03 2.143761878262635302e-05
1.691045522761380653e+03 2.129810558972281906e-05
1.691945972986493189e+03 2.116003964804314330e-05
1.692846423211605725e+03 2.102339908818697176e-05
1.693746873436718261e+03 2.088816250498293399e-05
1.694647323661830796e+03 2.075430894404711442e-05
1.695547773886943332e+03 2.062181788885065163e-05
1.696448224112055868e+03 2.049066924827046144e-05
1.697348674337168404e+03 2.036084334460441862e-05
1.698249124562281168e+03 2.023232090202556604e-05
1.699149574787393703e+03 2.010508303545731264e-05
1.700050025012506239e+03 1.997911123985221898e-05
1.700950475237618775e+03 1.985438737985077860e-05
1.701850925462731311e+03 1.973089367981031904e-05
1.702751375687843847e+03 1.960861271418212133e-05
1.703651825912956383e+03 1.948752739822459825e-05
1.704552276138068919e+03 1.936762097903625454e-05
1.705452726363181455e+03 1.924887702689583214e-05
1.706353176588293991e+03 1.913127942689715508e-05
1.707253626813406527e+03 1.901481237086262790e-05
1.708154077038519290e+03 1.889946034952919073e-05
1.709054527263631826e+03 1.878520814499079990e-05
1.709954977488744362e+03 1.867204082338929600e-05
1.710855427713856898e+03 1.855994372784272904e-05
1.711755877938969434e+03 1.844890247160157619e-05
1.712656328164081970e+03 1.833890293142318573e-05
1.713556778389194506e+03 1.822993124115830440e-05
1.714457228614307041e+03 1.812197378553707773e-05
1.715357678839419577e+03 1.801501719415015586e-05
1.716258129064532113e+03 1.790904833561608907e-05
1.717158579289644649e+03 1.780405431192747090e-05
1.718059029514757185e+03 1.770002245297014375e-05
1.718959479739869948e+03 1.759694031120710828e-05
1.719859929964982484e+03 1.749479565652332840e-05
1.720760380190095020e+03 1.739357647122312763e-05
1.721660830415207556e+03 1.729327094517506397e-05
1.722561280640320092e+03 1.719386747110149497e-05
1.723461730865432628e+03 1.709535464000222138e-05
1.724362181090545164e+03 1.699772123671316137e-05
1.725262631315657700e+03 1.690095623559085313e-05
1.726163081540770236e+03 1.680504879632055328e-05
1.727063531765882772e+03 1.670998825984329581e-05
1.727963981990995308e+03 1.661576414439673813e-05
1.728864432216108071e+03 1.652236614166619933e-05
1.729764882441220607e+03 1.642978411304437953e-05
1.730665332666333143e+03 1.633800808599072415e-05
1.731565782891445679e+03 1.624702825049328597e-05
1.732466233116558215e+03 1.615683495562490946e-05
1.733366683341670750e+03 1.606741870619257843e-05
1.734267133566783286e+03 1.597877015947745053e-05
1.735167583791895822e+03 1.589088012205981521e-05
1.736068034017008358e+03 1.580373954672987651e-05
1.736968484242120894e+03 1.571733952947829239e-05
1.737868934467233430e+03 1.563167130656576938e-05
1.738769384692346193e+03 1.554672625166912065e-05
1.739669834917458729e+03 1.546249587309975882e-05
1.740570285142571265e+03 1.537897181109441704e-05
1.741470735367683801e+03 1.529614583517369374e-05
1.742371185592796337e+03 1.521400984156896131e-05
1.743271635817908873e+03 1.513255585071249903e-05
1.744172086043021409e+03 1.505177600479099772e-05
1.745072536268133945e+03 1.497166256535973214e-05
1.745972986493246481e+03 1.489220791101541930e-05
1.746873436718359017e+03 1.481340453512637685e-05
1.747773886943471553e+03 1.473524504361826543e-05
1.748674337168584316e+03 1.465772215281298917e-05
1.749574787393696852e+03 1.458082868732016469e-05
1.750475237618809388e+03 1.450455757797861588e-05
1.751375687843921924e+03 1.442890185984791651e-05
1.752276138069034459e+03 1.435385467024636378e-05
1.753176588294146995e+03 1.427940924683608071e-05
1.754077038519259531e+03 1.420555892575231176e-05
1.754977488744372067e+03 1.413229713977756194e-05
1.755877938969484603e+03 1.405961741655610392e-05
1.756778389194597139e+03 1.398751337685148891e-05
1.757678839419709675e+03 1.391597873284340910e-05
1.758579289644822438e+03 1.384500728646298309e-05
1.759479739869934974e+03 1.377459292776631375e-05
1.760380190095047510e+03 1.370472963334463957e-05
1.761280640320160046e+03 1.363541146477043746e-05
1.762181090545272582e+03 1.356663256707756781e-05
1.763081540770385118e+03 1.349838716727628006e-05
1.763981990995497654e+03 1.343066957289985155e-05
1.764882441220610190e+03 1.336347417058430974e-05
1.765782891445722726e+03 1.329679542467824790e-05
1.766683341670835262e+03 1.323062787588415036e-05
1.767583791895947797e+03 1.316496613992805445e-05
1.768484242121060333e+03 1.309980490625837907e-05
1.769384692346173097e+03 1.303513893677264284e-05
1.770285142571285633e+03 1.297096306457188514e-05
1.771185592796398169e+03 1.290727219274056090e-05
1.772086043021510704e+03 1.284406129315304072e-05
1.772986493246623240e+03 1.278132540530543041e-05
1.773886943471735776e+03 1.271905963517104996e-05
1.774787393696848312e+03 1.265725915408048315e-05
1.775687843921960848e+03 1.259591919762477493e-05
1.776588294147073384e+03 1.253503506458111413e-05
1.777488744372185920e+03 1.247460211586105908e-05
1.778389194597298456e+03 1.241461577347932244e-05
1.779289644822411219e+03 1.235507151954553094e-05
1.780190095047523755e+03 1.229596489527429120e-05
1.781090545272636291e+03 1.223729150001645510e-05
1.781990995497748827e+03 1.217904699031024972e-05
1.782891445722861363e+03 1.212122707895012899e-05
1.783791895947973899e+03 1.206382753407573718e-05
1.784692346173086435e+03 1.200684417827751671e-05
1.785592796398198971e+03 1.195027288772141645e-05
1.786493246623311506e+03 1.189410959128989357e-05
1.787393696848424042e+03 1.183835026973999502e-05
1.788294147073536578e+03 1.178299095487847449e-05
1.789194597298649342e+03 1.172802772875170022e-05
1.790095047523761878e+03 1.167345672285294402e-05
1.790995497748874413e+03 1.161927411734360558e-05
1.791895947973986949e+03 1.156547614028997147e-05
1.792796398199099485e+03 1.151205906691462091e-05
1.793696848424212021e+03 1.145901921886227186e-05
1.794597298649324557e+03 1.140635296347891530e-05
1.795497748874437093e+03 1.135405671310538302e-05
1.796398199099549629e+03 1.130212692438404432e-05
1.797298649324662165e+03 1.125056009757769839e-05
1.798199099549774701e+03 1.119935277590281704e-05
1.799099549774887464e+03 1.114850154487354652e-05
1.800000000000000000e+03 1.109800303165923639e-05
