0.000000000000000000e+00 1.451255563196372170e-03
9.004502251125562351e-01 1.925788365301779386e-03
1.800900450225112470e+00 2.569752397068325502e-03
2.701350675337668594e+00 3.343403375189744724e-03
3.601800900450224940e+00 4.036303376888505413e-03
4.502251125562780842e+00 4.348201467354184321e-03
5.402701350675337189e+00 4.215455473336986690e-03
6.303151575787893535e+00 3.771613054101480289e-03
7.203601800900449881e+00 3.123793273628993304e-03
8.104052026013006227e+00 2.436170851858839633e-03
9.004502251125561685e+00 1.857631176286334050e-03
9.904952476238118919e+00 1.422500999481378240e-03
1.080540270135067438e+01 1.103300862799828528e-03
1.170585292646323161e+01 8.688099201908486583e-04
1.260630315157578707e+01 6.961072865818811184e-04
1.350675337668834430e+01 5.677977778147813180e-04
1.440720360180089976e+01 4.709842246192123111e-04
1.530765382691345522e+01 3.965981999470099173e-04
1.620810405202601245e+01 3.384166899697949146e-04
1.710855427713856969e+01 2.921713463287867532e-04
1.800900450225112337e+01 2.548955829420367558e-04
1.890945472736368060e+01 2.244933668117943249e-04
1.980990495247623784e+01 1.994255493451289928e-04
2.071035517758879507e+01 1.784391978266582025e-04
2.161080540270134875e+01 1.604579210324767117e-04
2.251125562781390599e+01 1.447757829023734735e-04
2.341170585292646322e+01 1.311039484922199138e-04
2.431215607803901690e+01 1.192520613888901085e-04
2.521260630315157414e+01 1.089788308744817780e-04
2.611305652826413137e+01 1.000367624131197136e-04
2.701350675337668861e+01 9.221325237845321180e-05
2.791395697848924229e+01 8.533800225527985416e-05
2.881440720360179952e+01 7.927553188946148655e-05
2.971485742871435676e+01 7.391027692936048105e-05
3.061530765382691044e+01 6.912563394336095394e-05
3.151575787893946767e+01 6.479975657328774380e-05
3.241620810405202491e+01 6.085241316979314401e-05
3.331665832916458214e+01 5.727826678495490250e-05
3.421710855427713938e+01 5.408743521590025737e-05
3.511755877938969661e+01 5.123752146639784462e-05
3.601800900450224674e+01 4.861678329045341702e-05
3.691845922961480397e+01 4.611301627108735948e-05
3.781890945472736121e+01 4.373108914864355748e-05
3.871935967983991844e+01 4.155982411062236103e-05
3.961980990495247568e+01 3.965212079945683532e-05
4.052026013006503291e+01 3.798451007511184868e-05
4.142071035517759015e+01 3.644806596174524218e-05
4.232116058029014027e+01 3.488884832014281268e-05
4.322161080540269751e+01 3.326226874855809702e-05
4.412206103051525474e+01 3.167920260448615921e-05
4.502251125562781198e+01 3.024834680280299304e-05
4.592296148074036921e+01 2.900468586914446039e-05
4.682341170585292645e+01 2.794344826060783860e-05
4.772386193096548368e+01 2.703784814813405682e-05
4.862431215607803381e+01 2.622202802322255404e-05
4.952476238119059104e+01 2.540821021198562361e-05
5.042521260630314828e+01 2.459315772593651195e-05
5.132566283141570551e+01 2.387309298969310763e-05
5.222611305652826275e+01 2.332618163233053749e-05
5.312656328164081998e+01 2.295381129101684825e-05
5.402701350675337721e+01 2.267311873783783450e-05
5.492746373186592734e+01 2.232742887623230304e-05
5.582791395697848458e+01 2.173814942417583642e-05
5.672836418209104181e+01 2.088225364466552727e-05
5.762881440720359905e+01 1.996526047739852029e-05
5.852926463231615628e+01 1.918621705209111260e-05
5.942971485742871351e+01 1.860910167877487739e-05
6.033016508254127075e+01 1.821995151498054241e-05
6.123061530765382088e+01 1.795938874126322827e-05
6.213106553276637811e+01 1.767553045160109019e-05
6.303151575787893535e+01 1.718525315629084097e-05
6.393196598299149258e+01 1.649166049400844667e-05
6.483241620810404982e+01 1.576962890973291338e-05
6.573286643321659994e+01 1.514731932429171732e-05
6.663331665832916428e+01 1.463307687306772790e-05
6.753376688344171441e+01 1.417074035965632950e-05
6.843421710855427875e+01 1.372926372050560635e-05
6.933466733366682888e+01 1.333507330024513784e-05
7.023511755877939322e+01 1.301941820575124040e-05
7.113556778389194335e+01 1.278845618997715313e-05
7.203601800900449348e+01 1.262253202620464886e-05
7.293646823411705782e+01 1.248356618816623356e-05
7.383691845922960795e+01 1.234815298688638114e-05
7.473736868434217229e+01 1.221272145879143338e-05
7.563781890945472242e+01 1.205256303552226048e-05
7.653826913456728676e+01 1.185336846132159525e-05
7.743871935967983688e+01 1.166973082631118049e-05
7.833916958479238701e+01 1.157914824239535443e-05
7.923961980990495135e+01 1.162988795736688265e-05
8.014007003501750148e+01 1.182896919586659593e-05
8.104052026013006582e+01 1.212180401000601443e-05
8.194097048524261595e+01 1.238050121758202933e-05
8.284142071035518029e+01 1.243292280880559244e-05
8.374187093546773042e+01 1.216788589542946876e-05
8.464232116058028055e+01 1.165782564520823391e-05
8.554277138569284489e+01 1.109693753263713458e-05
8.644322161080539502e+01 1.062761618379193308e-05
8.734367183591795936e+01 1.031307773267777173e-05
8.824412206103050949e+01 1.017271769566909118e-05
8.914457228614307382e+01 1.018772016800569734e-05
9.004502251125562395e+01 1.030534564301774101e-05
9.094547273636817408e+01 1.044349573178697314e-05
9.184592296148073842e+01 1.049887866001556048e-05
9.274637318659328855e+01 1.041933176685499057e-05
9.364682341170585289e+01 1.026921050720902483e-05
9.454727363681840302e+01 1.015135872228226091e-05
9.544772386193096736e+01 1.006183801970514383e-05
9.634817408704351749e+01 9.883454542788042146e-06
9.724862431215606762e+01 9.546207179076862383e-06
9.814907453726863196e+01 9.110513858745018347e-06
9.904952476238118209e+01 8.692449611364053553e-06
9.994997498749374643e+01 8.380689296416393984e-06
1.008504252126062966e+02 8.207704110338957256e-06
1.017508754377188609e+02 8.175645312404937823e-06
1.026513256628314110e+02 8.273839461269264344e-06
1.035517758879439612e+02 8.461728780354646365e-06
1.044522261130565255e+02 8.657374884413285434e-06
1.053526763381690756e+02 8.815842783188649720e-06
1.062531265632816400e+02 8.996041888511976617e-06
1.071535767883941901e+02 9.263575988422546889e-06
1.080540270135067544e+02 9.601349516889629734e-06
1.089544772386193046e+02 9.900219112110369632e-06
1.098549274637318547e+02 1.000774069883716242e-05
1.107553776888444190e+02 9.820896976169920213e-06
1.116558279139569692e+02 9.381104485136948205e-06
1.125562781390695335e+02 8.859182882476726424e-06
1.134567283641820836e+02 8.411147294522517326e-06
1.143571785892946480e+02 8.109771540379648154e-06
1.152576288144071981e+02 7.931543379553816523e-06
1.161580790395197482e+02 7.772956977271104807e-06
1.170585292646323126e+02 7.554827640337199967e-06
1.179589794897448627e+02 7.316431353157455451e-06
1.188594297148574270e+02 7.147431248971792661e-06
1.197598799399699772e+02 7.103863810207782776e-06
1.206603301650825415e+02 7.203524181311115293e-06
1.215607803901950916e+02 7.428103309710723444e-06
1.224612306153076418e+02 7.704355558314281645e-06
1.233616808404202061e+02 7.933600686105951854e-06
1.242621310655327562e+02 8.092373745465106387e-06
1.251625812906453206e+02 8.238281349380233479e-06
1.260630315157578707e+02 8.413983155367299132e-06
1.269634817408704350e+02 8.624231315602234218e-06
1.278639319659829852e+02 8.900534848671097372e-06
1.287643821910955353e+02 9.275325571160749551e-06
1.296648324162080996e+02 9.645103619908318204e-06
1.305652826413206640e+02 9.760477359183641517e-06
1.314657328664331999e+02 9.508090120656669301e-06
1.323661830915457642e+02 9.102769535959325412e-06
1.332666333166583286e+02 8.808484797129801278e-06
1.341670835417708929e+02 8.720855509096081575e-06
1.350675337668834288e+02 8.798599227165953846e-06
1.359679839919959932e+02 8.899954984963164226e-06
1.368684342171085575e+02 8.873049152465292141e-06
1.377688844422210934e+02 8.699323419367004356e-06
1.386693346673336578e+02 8.506791018857021844e-06
1.395697848924462221e+02 8.443346920267702290e-06
1.404702351175587864e+02 8.581825199995298626e-06
1.413706853426713224e+02 8.901347100717315759e-06
1.422711355677838867e+02 9.304986904141294190e-06
1.431715857928964510e+02 9.693494389788258496e-06
1.440720360180089870e+02 1.001044036146945794e-05
1.449724862431215513e+02 1.019234047584503754e-05
1.458729364682341156e+02 1.016696017804177523e-05
1.467733866933466800e+02 9.935341592195614296e-06
1.476738369184592159e+02 9.628907764843115463e-06
1.485742871435717802e+02 9.402671407482203922e-06
1.494747373686843446e+02 9.258362262933464038e-06
1.503751875937968805e+02 9.062851616401801843e-06
1.512756378189094448e+02 8.731416021679706189e-06
1.521760880440220092e+02 8.341708444485685975e-06
1.530765382691345735e+02 8.046817165153847534e-06
1.539769884942471094e+02 7.921827618806067184e-06
1.548774387193596738e+02 7.943330270648139174e-06
1.557778889444722381e+02 8.024795547630233871e-06
1.566783391695847740e+02 8.078481090698926315e-06
1.575787893946973384e+02 8.099529544356997852e-06
1.584792396198099027e+02 8.139606317603564239e-06
1.593796898449224670e+02 8.242720994260159824e-06
1.602801400700350030e+02 8.428895750838630307e-06
1.611805902951475673e+02 8.659340885895120082e-06
1.620810405202601316e+02 8.867579000429337785e-06
1.629814907453726676e+02 9.013001361044731917e-06
1.638819409704852319e+02 9.037033440590752338e-06
1.647823911955977962e+02 8.900084865333132312e-06
1.656828414207103606e+02 8.672243112465122161e-06
1.665832916458228965e+02 8.483128404542171656e-06
1.674837418709354608e+02 8.411771109047345537e-06
1.683841920960480252e+02 8.446470891217054640e-06
1.692846423211605611e+02 8.500037976779434260e-06
1.701850925462731254e+02 8.500382295133788649e-06
1.710855427713856898e+02 8.468745918151417975e-06
1.719859929964982541e+02 8.479006136363731902e-06
1.728864432216107900e+02 8.580621121857198526e-06
1.737868934467233544e+02 8.797407258577450001e-06
1.746873436718359187e+02 9.127229003802780460e-06
1.755877938969484546e+02 9.504027061142488508e-06
1.764882441220610190e+02 9.822533396668939182e-06
1.773886943471735833e+02 1.000364644848426500e-05
1.782891445722861476e+02 1.003369004910577406e-05
1.791895947973986836e+02 9.976955155854512670e-06
1.800900450225112479e+02 9.908220909085284142e-06
1.809904952476238122e+02 9.902740279117224455e-06
1.818909454727363482e+02 1.004465854736415156e-05
1.827913956978489125e+02 1.032673061184002029e-05
1.836918459229614768e+02 1.061901449070582508e-05
1.845922961480740412e+02 1.077598384899482294e-05
1.854927463731865771e+02 1.075941115426929154e-05
1.863931965982991414e+02 1.067808293553843843e-05
1.872936468234117058e+02 1.068095187771235780e-05
1.881940970485242417e+02 1.079692903018587839e-05
1.890945472736368060e+02 1.094774680007467163e-05
1.899949974987493704e+02 1.110842088008977507e-05
1.908954477238619347e+02 1.135542365398849495e-05
1.917958979489744706e+02 1.172134397422773621e-05
1.926963481740870350e+02 1.209540401522517536e-05
1.935967983991995993e+02 1.239579165594216479e-05
1.944972486243121352e+02 1.262838568092559675e-05
1.953976988494246996e+02 1.276975273953182815e-05
1.962981490745372639e+02 1.280862095992109832e-05
1.971985992996498283e+02 1.278142990556004430e-05
1.980990495247623642e+02 1.268487522720861353e-05
1.989994997498749285e+02 1.248288291474615811e-05
1.998999499749874929e+02 1.222635103278482831e-05
2.008004002001000288e+02 1.203772940608123820e-05
2.017008504252125931e+02 1.198218997696048992e-05
2.026013006503251574e+02 1.204320062755414081e-05
2.035017508754377218e+02 1.215353372468719499e-05
2.044022011005502577e+02 1.224367255119099602e-05
2.053026513256628220e+02 1.232599465611510109e-05
2.062031015507753864e+02 1.247076352111819944e-05
2.071035517758879223e+02 1.261602784210587656e-05
2.080040020010004866e+02 1.262638059517467170e-05
2.089044522261130510e+02 1.252567094631026102e-05
2.098049024512256153e+02 1.248653721464486175e-05
2.107053526763381512e+02 1.263446591366664736e-05
2.116058029014507156e+02 1.293808493769795488e-05
2.125062531265632799e+02 1.332752279184835354e-05
2.134067033516758158e+02 1.377291680926554756e-05
2.143071535767883802e+02 1.419349160037208691e-05
2.152076038019009445e+02 1.439385909735660904e-05
2.161080540270135089e+02 1.417932255121139156e-05
2.170085042521260448e+02 1.356290987470377703e-05
2.179089544772386091e+02 1.281881920648001906e-05
2.188094047023511735e+02 1.223846920483559409e-05
2.197098549274637094e+02 1.190500509836225737e-05
2.206103051525762737e+02 1.172962431219764285e-05
2.215107553776888381e+02 1.159791566025951820e-05
2.224112056028014024e+02 1.148038209933937538e-05
2.233116558279139383e+02 1.141578656129313342e-05
2.242121060530265027e+02 1.140831775224998962e-05
2.251125562781390670e+02 1.141213625393463699e-05
2.260130065032516029e+02 1.142711989780213841e-05
2.269134567283641672e+02 1.147202453231701910e-05
2.278139069534767316e+02 1.156687448750374282e-05
2.287143571785892959e+02 1.176764016152740431e-05
2.296148074037018318e+02 1.210154889074945495e-05
2.305152576288143962e+02 1.250440946902899523e-05
2.314157078539269605e+02 1.288328842616674448e-05
2.323161580790394964e+02 1.321848095456250007e-05
2.332166083041520608e+02 1.350975276256921649e-05
2.341170585292646251e+02 1.370647593136723877e-05
2.350175087543771895e+02 1.379352247359720126e-05
2.359179589794897254e+02 1.382467188268192699e-05
2.368184092046022897e+02 1.388136433748856554e-05
2.377188594297148541e+02 1.406493224739391308e-05
2.386193096548273900e+02 1.440483887420192070e-05
2.395197598799399543e+02 1.482907063278993892e-05
2.404202101050525187e+02 1.523718709232166136e-05
2.413206603301650830e+02 1.555775483118050493e-05
2.422211105552776189e+02 1.580621747884615081e-05
2.431215607803901833e+02 1.604728215267118226e-05
2.440220110055027476e+02 1.624007298374166680e-05
2.449224612306152835e+02 1.629364032799011927e-05
2.458229114557278479e+02 1.620495233013366301e-05
2.467233616808404122e+02 1.602350508607984896e-05
2.476238119059529765e+02 1.578272507536095050e-05
2.485242621310655124e+02 1.551282282693955557e-05
2.494247123561780768e+02 1.532434211784369243e-05
2.503251625812906411e+02 1.528928365633972151e-05
2.512256128064031770e+02 1.525906914449997817e-05
2.521260630315157414e+02 1.503563837981456541e-05
2.530265132566283057e+02 1.461713463560120848e-05
2.539269634817408701e+02 1.414022976316232817e-05
2.548274137068534060e+02 1.371131728743270090e-05
2.557278639319659703e+02 1.336460519685972798e-05
2.566283141570785347e+02 1.309041301399302134e-05
2.575287643821910706e+02 1.287646043666245381e-05
2.584292146073036633e+02 1.272095871613063493e-05
2.593296648324161993e+02 1.260698984048427769e-05
2.602301150575287352e+02 1.252186311001003367e-05
2.611305652826413279e+02 1.243753368336480886e-05
2.620310155077538639e+02 1.232518493664796893e-05
2.629314657328663998e+02 1.224871545073998838e-05
2.638319159579789925e+02 1.230598381205453086e-05
2.647323661830915285e+02 1.250610323705514882e-05
2.656328164082040644e+02 1.273490632035466105e-05
2.665332666333166571e+02 1.288606408526973618e-05
2.674337168584291931e+02 1.298763608385724529e-05
2.683341670835417858e+02 1.309102750348366093e-05
2.692346173086543217e+02 1.319759551601139080e-05
2.701350675337668577e+02 1.329017788684337109e-05
2.710355177588794504e+02 1.328500835972143258e-05
2.719359679839919863e+02 1.309552634388701944e-05
2.728364182091045222e+02 1.280559020018994955e-05
2.737368684342171150e+02 1.259637757457409730e-05
2.746373186593296509e+02 1.251266327163637154e-05
2.755377688844421868e+02 1.245160736439391814e-05
2.764382191095547796e+02 1.237352272430745437e-05
2.773386693346673155e+02 1.231551787980778168e-05
2.782391195597798514e+02 1.224743108374211271e-05
2.791395697848924442e+02 1.214582462456279685e-05
2.800400200100049801e+02 1.211402300586598181e-05
2.809404702351175729e+02 1.227447101863530740e-05
2.818409204602301088e+02 1.260291354655803449e-05
2.827413706853426447e+02 1.291536624007543631e-05
2.836418209104552375e+02 1.303784167497700264e-05
2.845422711355677734e+02 1.297728937498797587e-05
2.854427213606803093e+02 1.283177326872535214e-05
2.863431715857929021e+02 1.265745601708277582e-05
2.872436218109054380e+02 1.250219262083102343e-05
2.881440720360179739e+02 1.245556586967984599e-05
2.890445222611305667e+02 1.255495674260929797e-05
2.899449724862431026e+02 1.269785086828724590e-05
2.908454227113556385e+02 1.275185437522969673e-05
2.917458729364682313e+02 1.270154620186502864e-05
2.926463231615807672e+02 1.260574493977662326e-05
2.935467733866933600e+02 1.251101960558100956e-05
2.944472236118058959e+02 1.245726189546393147e-05
2.953476738369184318e+02 1.247629858514040305e-05
2.962481240620310246e+02 1.255800097664717640e-05
2.971485742871435605e+02 1.264755189353996542e-05
2.980490245122560964e+02 1.270607467131212774e-05
2.989494747373686891e+02 1.273944227969526000e-05
2.998499249624812251e+02 1.278333754381406938e-05
3.007503751875937610e+02 1.291800502617862998e-05
3.016508254127063537e+02 1.315014315363593777e-05
3.025512756378188897e+02 1.332713736690119739e-05
3.034517258629314256e+02 1.331603094614236113e-05
3.043521760880440183e+02 1.315292407224532019e-05
3.052526263131565543e+02 1.295910564140541090e-05
3.061530765382691470e+02 1.283341601781456342e-05
3.070535267633816829e+02 1.280000499187444320e-05
3.079539769884942189e+02 1.280891664887842793e-05
3.088544272136068116e+02 1.275654540072521617e-05
3.097548774387193475e+02 1.260103860009541019e-05
3.106553276638318835e+02 1.241957040609961454e-05
3.115557778889444762e+02 1.233156901365017736e-05
3.124562281140570121e+02 1.240334186222551906e-05
3.133566783391695481e+02 1.258692347386766376e-05
3.142571285642821408e+02 1.278668990331689474e-05
3.151575787893946767e+02 1.295228973423353872e-05
3.160580290145072127e+02 1.306640692576127719e-05
3.169584792396198054e+02 1.314876360269352273e-05
3.178589294647323413e+02 1.323731445325234731e-05
3.187593796898449341e+02 1.327712965047280203e-05
3.196598299149574700e+02 1.314657318516045014e-05
3.205602801400700059e+02 1.283098959365924775e-05
3.214607303651825987e+02 1.245916751450325253e-05
3.223611805902951346e+02 1.212222878923798904e-05
3.232616308154076705e+02 1.179795054982404408e-05
3.241620810405202633e+02 1.145288041103593310e-05
3.250625312656327992e+02 1.110935746035952498e-05
3.259629814907453351e+02 1.082194662667824219e-05
3.268634317158579279e+02 1.065515998564585761e-05
3.277638819409704638e+02 1.064809353739936536e-05
3.286643321660829997e+02 1.079822099566621539e-05
3.295647823911955925e+02 1.107075899623558260e-05
3.304652326163081284e+02 1.137937191387691873e-05
3.313656828414207212e+02 1.162201348334363085e-05
3.322661330665332571e+02 1.179028730633315745e-05
3.331665832916457930e+02 1.193811807463428984e-05
3.340670335167583858e+02 1.206685273801403016e-05
3.349674837418709217e+02 1.213244482268623671e-05
3.358679339669834576e+02 1.212705825572390505e-05
3.367683841920960504e+02 1.209785067653813702e-05
3.376688344172085863e+02 1.211277106511086460e-05
3.385692846423211222e+02 1.221294065018358874e-05
3.394697348674337150e+02 1.238927418181507900e-05
3.403701850925462509e+02 1.259435496020711835e-05
3.412706353176587868e+02 1.275566564605679421e-05
3.421710855427713796e+02 1.283472573034015326e-05
3.430715357678839155e+02 1.285665088171375241e-05
3.439719859929965082e+02 1.287507302493630023e-05
3.448724362181090441e+02 1.293777229468984704e-05
3.457728864432215801e+02 1.303478955279980612e-05
3.466733366683341728e+02 1.311215479442790720e-05
3.475737868934467087e+02 1.311717810178396672e-05
3.484742371185592447e+02 1.305448070388292268e-05
3.493746873436718374e+02 1.299633127073053173e-05
3.502751375687843733e+02 1.298642637223393550e-05
3.511755877938969093e+02 1.300250195724733344e-05
3.520760380190095020e+02 1.301975721023571132e-05
3.529764882441220379e+02 1.303541515730738274e-05
3.538769384692345739e+02 1.304929652351083872e-05
3.547773886943471666e+02 1.305499431520604179e-05
3.556778389194597025e+02 1.306933987565393006e-05
3.565782891445722953e+02 1.312275613570390447e-05
3.574787393696848312e+02 1.323069100420295269e-05
3.583791895947973671e+02 1.337064013505787516e-05
3.592796398199099599e+02 1.352745491902502995e-05
3.601800900450224958e+02 1.373162490348300717e-05
3.610805402701350317e+02 1.396543976301886139e-05
3.619809904952476245e+02 1.415221349001316482e-05
3.628814407203601604e+02 1.425865394604642077e-05
3.637818909454726963e+02 1.431857505888807207e-05
3.646823411705852891e+02 1.437412211309100120e-05
3.655827913956978250e+02 1.442196735058456844e-05
3.664832416208103609e+02 1.443701304126604732e-05
3.673836918459229537e+02 1.440513699024245479e-05
3.682841420710354896e+02 1.430112571140713227e-05
3.691845922961480824e+02 1.410487915817043683e-05
3.700850425212606183e+02 1.385176794670494705e-05
3.709854927463731542e+02 1.363975004236895493e-05
3.718859429714857470e+02 1.356539070691286914e-05
3.727863931965982829e+02 1.365099593503328205e-05
3.736868434217108188e+02 1.386837186597609363e-05
3.745872936468234116e+02 1.418606905416363849e-05
3.754877438719359475e+02 1.455045076625893393e-05
3.763881940970484834e+02 1.487547287271071060e-05
3.772886443221610762e+02 1.510646108804014047e-05
3.781890945472736121e+02 1.523754518273004585e-05
3.790895447723861480e+02 1.526596955848599440e-05
3.799899949974987408e+02 1.519931812597229122e-05
3.808904452226112767e+02 1.510092586612448350e-05
3.817908954477238694e+02 1.506774020415453132e-05
3.826913456728364054e+02 1.519818927131495243e-05
3.835917958979489413e+02 1.554896287237965511e-05
3.844922461230615340e+02 1.601791148597780937e-05
3.853926963481740700e+02 1.636141506925606323e-05
3.862931465732866059e+02 1.645262957321350593e-05
3.871935967983991986e+02 1.642173783585929541e-05
3.880940470235117346e+02 1.645448833850166078e-05
3.889944972486242705e+02 1.658318223059557684e-05
3.898949474737368632e+02 1.678406778675925216e-05
3.907953976988493991e+02 1.708126418422589854e-05
3.916958479239619351e+02 1.744658730293389772e-05
3.925962981490745278e+02 1.775365825663752966e-05
3.934967483741870637e+02 1.785593700784673447e-05
3.943971985992996565e+02 1.768716633037178000e-05
3.952976488244121924e+02 1.733645924810169004e-05
3.961980990495247283e+02 1.697599003067855832e-05
3.970985492746373211e+02 1.669002893897082599e-05
3.979989994997498570e+02 1.645398040164727620e-05
3.988994497248623929e+02 1.625425162947111225e-05
3.997998999499749857e+02 1.611051665017700638e-05
4.007003501750875216e+02 1.603671678775838686e-05
4.016008004002000575e+02 1.600788212838181963e-05
4.025012506253126503e+02 1.598387576984862119e-05
4.034017008504251862e+02 1.598348728609841357e-05
4.043021510755377221e+02 1.606573379061869758e-05
4.052026013006503149e+02 1.624076273176007910e-05
4.061030515257628508e+02 1.645306800420693401e-05
4.070035017508754436e+02 1.663969677719476397e-05
4.079039519759879795e+02 1.676709141135038981e-05
4.088044022011005154e+02 1.682075426297278034e-05
4.097048524262131082e+02 1.685296107971043130e-05
4.106053026513256441e+02 1.695646289501815188e-05
4.115057528764381800e+02 1.714129181297405745e-05
4.124062031015507728e+02 1.736910437419684225e-05
4.133066533266633087e+02 1.761152180261356691e-05
4.142071035517758446e+02 1.783561124938795253e-05
4.151075537768884374e+02 1.801979882798072769e-05
4.160080040020009733e+02 1.817896521147997042e-05
4.169084542271135092e+02 1.833680168294589047e-05
4.178089044522261020e+02 1.846964903688590387e-05
4.187093546773386379e+02 1.852093341918436539e-05
4.196098049024512306e+02 1.852971313170699818e-05
4.205102551275637666e+02 1.858961629042063093e-05
4.214107053526763025e+02 1.870982879569439036e-05
4.223111555777888952e+02 1.891419708679656494e-05
4.232116058029014312e+02 1.924297622952028013e-05
4.241120560280139671e+02 1.962193282222827873e-05
4.250125062531265598e+02 1.997638699950691346e-05
4.259129564782390958e+02 2.033559285997511300e-05
4.268134067033516317e+02 2.071279744410821838e-05
4.277138569284642244e+02 2.098960504988563961e-05
4.286143071535767604e+02 2.104251610951912829e-05
4.295147573786892963e+02 2.090487883734781010e-05
4.304152076038018890e+02 2.065204116364432964e-05
4.313156578289144250e+02 2.029580972157309459e-05
4.322161080540270177e+02 1.993835941734782056e-05
4.331165582791395536e+02 1.977500127602553249e-05
4.340170085042520896e+02 1.988775972671710170e-05
4.349174587293646823e+02 2.022886033288516053e-05
4.358179089544772182e+02 2.068234602834997861e-05
4.367183591795897541e+02 2.113018463761864301e-05
4.376188094047023469e+02 2.151813058145065090e-05
4.385192596298148828e+02 2.186592925824648424e-05
4.394197098549274187e+02 2.222177004663961869e-05
4.403201600800400115e+02 2.259362026904674576e-05
4.412206103051525474e+02 2.290085493708280244e-05
4.421210605302650833e+02 2.309688383873045148e-05
4.430215107553776761e+02 2.324139960093822894e-05
4.439219609804902120e+02 2.332314196566592123e-05
4.448224112056028048e+02 2.323383101921321363e-05
4.457228614307153407e+02 2.296210165001139406e-05
4.466233116558278766e+02 2.265235845601428375e-05
4.475237618809404694e+02 2.246372636667613208e-05
4.484242121060530053e+02 2.246341611092492031e-05
4.493246623311655412e+02 2.267783642175265297e-05
4.502251125562781340e+02 2.311986993885401285e-05
4.511255627813906699e+02 2.371487383102499191e-05
4.520260130065032058e+02 2.434146302404109161e-05
4.529264632316157986e+02 2.492299970272403788e-05
4.538269134567283345e+02 2.540019935959582186e-05
4.547273636818408704e+02 2.572955684179841382e-05
4.556278139069534632e+02 2.590462462877875881e-05
4.565282641320659991e+02 2.585802340597150920e-05
4.574287143571785919e+02 2.556717698265110355e-05
4.583291645822911278e+02 2.519394404254499771e-05
4.592296148074036637e+02 2.491752167470140462e-05
4.601300650325162565e+02 2.481486434253756589e-05
4.610305152576287924e+02 2.488569833803875613e-05
4.619309654827413283e+02 2.507358742396537845e-05
4.628314157078539210e+02 2.522939872901794794e-05
4.637318659329664570e+02 2.518772911893991796e-05
4.646323161580789929e+02 2.494964953345469910e-05
4.655327663831915856e+02 2.466966665834618942e-05
4.664332166083041216e+02 2.450003668005016396e-05
4.673336668334167143e+02 2.448473008368985194e-05
4.682341170585292502e+02 2.456123248915845276e-05
4.691345672836417862e+02 2.464580786311231216e-05
4.700350175087543789e+02 2.476216671773445732e-05
4.709354677338669148e+02 2.506499833366945877e-05
4.718359179589794508e+02 2.563597586152971435e-05
4.727363681840920435e+02 2.631011091836274175e-05
4.736368184092045794e+02 2.678150558785243044e-05
4.745372686343171154e+02 2.691750555905818580e-05
4.754377188594297081e+02 2.687882454621269923e-05
4.763381690845422440e+02 2.690390666825793431e-05
4.772386193096547800e+02 2.706763219023104934e-05
4.781390695347673727e+02 2.729152187368619957e-05
4.790395197598799086e+02 2.749485491003388649e-05
4.799399699849925014e+02 2.759037119237014730e-05
4.808404202101050373e+02 2.751683571907363447e-05
4.817408704352175732e+02 2.738378965361244202e-05
4.826413206603301660e+02 2.743260336466265639e-05
4.835417708854427019e+02 2.776856342034169845e-05
4.844422211105552378e+02 2.824624617560257434e-05
4.853426713356678306e+02 2.866938835350151031e-05
4.862431215607803665e+02 2.895378709611615392e-05
4.871435717858929024e+02 2.909182217180156330e-05
4.880440220110054952e+02 2.908688968734057299e-05
4.889444722361180311e+02 2.896845380299870992e-05
4.898449224612305670e+02 2.878005667554752424e-05
4.907453726863431598e+02 2.855249453631562257e-05
4.916458229114556957e+02 2.835054307579156283e-05
4.925462731365682885e+02 2.826578167602510403e-05
4.934467233616808244e+02 2.833189271891845541e-05
4.943471735867933603e+02 2.849122980647508720e-05
4.952476238119059531e+02 2.870629709602465752e-05
4.961480740370184890e+02 2.897090892066157684e-05
4.970485242621310249e+02 2.915810278792000190e-05
4.979489744872436177e+02 2.906345927536113275e-05
4.988494247123561536e+02 2.871035461099804781e-05
4.997498749374686895e+02 2.840753164588579046e-05
5.006503251625812823e+02 2.837412464751343420e-05
5.015507753876938182e+02 2.848755535376502993e-05
5.024512256128063541e+02 2.847696662879555443e-05
5.033516758379189469e+02 2.827547300862259555e-05
5.042521260630314828e+02 2.803768354925576797e-05
5.051525762881440755e+02 2.794615599328565097e-05
5.060530265132566115e+02 2.811588511936113710e-05
5.069534767383691474e+02 2.854380709118190264e-05
5.078539269634817401e+02 2.909652209478295819e-05
5.087543771885942760e+02 2.962889130809337988e-05
5.096548274137068120e+02 3.011524459303630761e-05
5.105552776388194047e+02 3.055085765892178481e-05
5.114557278639319406e+02 3.085765770521137154e-05
5.123561780890445334e+02 3.108149290852580646e-05
5.132566283141570693e+02 3.136448387660227907e-05
5.141570785392696052e+02 3.172986054035839369e-05
5.150575287643821412e+02 3.206948930748861141e-05
5.159579789894946771e+02 3.226239057736445421e-05
5.168584292146073267e+02 3.226768196526838995e-05
5.177588794397198626e+02 3.217735317144164306e-05
5.186593296648323985e+02 3.214233503965174810e-05
5.195597798899449344e+02 3.225340551934517230e-05
5.204602301150574704e+02 3.249143154607850574e-05
5.213606803401700063e+02 3.280108851218699345e-05
5.222611305652826559e+02 3.313992621395337563e-05
5.231615807903951918e+02 3.345041352712990393e-05
5.240620310155077277e+02 3.372124242582014560e-05
5.249624812406202636e+02 3.398171525142857220e-05
5.258629314657327996e+02 3.425666080130019924e-05
5.267633816908454492e+02 3.458551376195429330e-05
5.276638319159579851e+02 3.501691900616843824e-05
5.285642821410705210e+02 3.557081418004202320e-05
5.294647323661830569e+02 3.625206489076129380e-05
5.303651825912955928e+02 3.705542468454421477e-05
5.312656328164081287e+02 3.788802725364212647e-05
5.321660830415207784e+02 3.860274585552179489e-05
5.330665332666333143e+02 3.910129069279607124e-05
5.339669834917458502e+02 3.935395287332566140e-05
5.348674337168583861e+02 3.938735346403616469e-05
5.357678839419709220e+02 3.925365682696672274e-05
5.366683341670835716e+02 3.912109520238369649e-05
5.375687843921961075e+02 3.918509087555248349e-05
5.384692346173086435e+02 3.944302603941406875e-05
5.393696848424211794e+02 3.975592529976300002e-05
5.402701350675337153e+02 4.010513681748713202e-05
5.411705852926462512e+02 4.057719593899223253e-05
5.420710355177589008e+02 4.122744424612832462e-05
5.429714857428714367e+02 4.206438241862374780e-05
5.438719359679839727e+02 4.308679135429082654e-05
5.447723861930965086e+02 4.432905899191799448e-05
5.456728364182090445e+02 4.578168701551605817e-05
5.465732866433215804e+02 4.728695862176496338e-05
5.474737368684342300e+02 4.862209953804822382e-05
5.483741870935467659e+02 4.978523238145991884e-05
5.492746373186593019e+02 5.091947412158833526e-05
5.501750875437718378e+02 5.191228374238470442e-05
5.510755377688843737e+02 5.246531495256097279e-05
5.519759879939970233e+02 5.249792264077866730e-05
5.528764382191095592e+02 5.226312554278776516e-05
5.537768884442220951e+02 5.207719792330198444e-05
5.546773386693346310e+02 5.209035637587728561e-05
5.555777888944471670e+02 5.242841383913764125e-05
5.564782391195597029e+02 5.316092568244317964e-05
5.573786893446723525e+02 5.408464716051816697e-05
5.582791395697848884e+02 5.492029419938266558e-05
5.591795897948974243e+02 5.552807290675158684e-05
5.600800400200099602e+02 5.580989295438796351e-05
5.609804902451224962e+02 5.578380945324220457e-05
5.618809404702351458e+02 5.563125057963989276e-05
5.627813906953476817e+02 5.557147407207205854e-05
5.636818409204602176e+02 5.581822793875320607e-05
5.645822911455727535e+02 5.635488332306574368e-05
5.654827413706852894e+02 5.693089835935671812e-05
5.663831915957978254e+02 5.738819445282322148e-05
5.672836418209104750e+02 5.772640290793034263e-05
5.681840920460230109e+02 5.795865348314445164e-05
5.690845422711355468e+02 5.811637996791648927e-05
5.699849924962480827e+02 5.833631486105993224e-05
5.708854427213606186e+02 5.873318320207164480e-05
5.717858929464731546e+02 5.926093077182742870e-05
5.726863431715858042e+02 5.995478203530997931e-05
5.735867933966983401e+02 6.096001553305213178e-05
5.744872436218108760e+02 6.226937729983313694e-05
5.753876938469234119e+02 6.367110824587589334e-05
5.762881440720359478e+02 6.486845278695603035e-05
5.771885942971485974e+02 6.561889524610460545e-05
5.780890445222611334e+02 6.580870140339024747e-05
5.789894947473736693e+02 6.557817338756942655e-05
5.798899449724862052e+02 6.526907259876055494e-05
5.807903951975987411e+02 6.497776418032512335e-05
5.816908454227112770e+02 6.460752206296515080e-05
5.825912956478239266e+02 6.432315188050330543e-05
5.834917458729364625e+02 6.440145732081031251e-05
5.843921960980489985e+02 6.476876669383703966e-05
5.852926463231615344e+02 6.505755174130005176e-05
5.861930965482740703e+02 6.514407576933767469e-05
5.870935467733867199e+02 6.519314357291141021e-05
5.879939969984992558e+02 6.523788931861085783e-05
5.888944472236117917e+02 6.503749149217652795e-05
5.897948974487243277e+02 6.444209040104353437e-05
5.906953476738368636e+02 6.366835684372884260e-05
5.915957978989493995e+02 6.300491828509300739e-05
5.924962481240620491e+02 6.259896597637741849e-05
5.933966983491745850e+02 6.255884750621680990e-05
5.942971485742871209e+02 6.284630220763469117e-05
5.951975987993996569e+02 6.327397484756594091e-05
5.960980490245121928e+02 6.375399512361203721e-05
5.969984992496247287e+02 6.430886443916131959e-05
5.978989494747373783e+02 6.495206062912003519e-05
5.987993996998499142e+02 6.553177879285706023e-05
5.996998499249624501e+02 6.584906492663920527e-05
6.006003001500749860e+02 6.591562747299274899e-05
6.015007503751875220e+02 6.589922511986606767e-05
6.024012006003001716e+02 6.589630612851241239e-05
6.033016508254127075e+02 6.586681076354051491e-05
6.042021010505252434e+02 6.562728141013803105e-05
6.051025512756377793e+02 6.497483672063271269e-05
6.060030015007503152e+02 6.388336171142043021e-05
6.069034517258628512e+02 6.259196510066981564e-05
6.078039019509755008e+02 6.149513223632531716e-05
6.087043521760880367e+02 6.089305274376875863e-05
6.096048024012005726e+02 6.087521115740442357e-05
6.105052526263131085e+02 6.133087666029192367e-05
6.114057028514256444e+02 6.203796168302720042e-05
6.123061530765382940e+02 6.278205654776738715e-05
6.132066033016508300e+02 6.349106589014687370e-05
6.141070535267633659e+02 6.425371762843357527e-05
6.150075037518759018e+02 6.526585248035862198e-05
6.159079539769884377e+02 6.662070351169976478e-05
6.168084042021009736e+02 6.814302786463760056e-05
6.177088544272136232e+02 6.956234082005068476e-05
6.186093046523261592e+02 7.073701988437399747e-05
6.195097548774386951e+02 7.168542130774749398e-05
6.204102051025512310e+02 7.245068542979870663e-05
6.213106553276637669e+02 7.312378170670972275e-05
6.222111055527763028e+02 7.383406588859666017e-05
6.231115557778889524e+02 7.440762762722090038e-05
6.240120060030014884e+02 7.462238091801588465e-05
6.249124562281140243e+02 7.460616756560724705e-05
6.258129064532265602e+02 7.449878760703157259e-05
6.267133566783390961e+02 7.424654321416972506e-05
6.276138069034517457e+02 7.388785521821688814e-05
6.285142571285642816e+02 7.343049858620847258e-05
6.294147073536768175e+02 7.264360799083449238e-05
6.303151575787893535e+02 7.144354346257951786e-05
6.312156078039018894e+02 7.008499793167632876e-05
6.321160580290144253e+02 6.891145725553500848e-05
6.330165082541270749e+02 6.828010806136926389e-05
6.339169584792396108e+02 6.838140121956101452e-05
6.348174087043521467e+02 6.891817734397772581e-05
6.357178589294646827e+02 6.944370141860016900e-05
6.366183091545772186e+02 6.976779464091089136e-05
6.375187593796898682e+02 6.981451263988446021e-05
6.384192096048024041e+02 6.956848882971177091e-05
6.393196598299149400e+02 6.917577174653333845e-05
6.402201100550274759e+02 6.892619086381564827e-05
6.411205602801400119e+02 6.901984027248963399e-05
6.420210105052525478e+02 6.927479045512485874e-05
6.429214607303651974e+02 6.940493037949057307e-05
6.438219109554777333e+02 6.947475049958124274e-05
6.447223611805902692e+02 6.971464563049309567e-05
6.456228114057028051e+02 7.018143300313216747e-05
6.465232616308153411e+02 7.072261762137735885e-05
6.474237118559278770e+02 7.108506864889416058e-05
6.483241620810405266e+02 7.101901342373315932e-05
6.492246123061530625e+02 7.052709564449115807e-05
6.501250625312655984e+02 6.988270893167060317e-05
6.510255127563781343e+02 6.916987563825405889e-05
6.519259629814906702e+02 6.820051485753764349e-05
6.528264132066033198e+02 6.692682088707309492e-05
6.537268634317158558e+02 6.546805119615012011e-05
6.546273136568283917e+02 6.393177400989660309e-05
6.555277638819409276e+02 6.246741438053584933e-05
6.564282141070534635e+02 6.125870409121629480e-05
6.573286643321659994e+02 6.039449736879183415e-05
6.582291145572786490e+02 5.988619162889184086e-05
6.591295647823911850e+02 5.970468311580912074e-05
6.600300150075037209e+02 5.971707206511689918e-05
6.609304652326162568e+02 5.974817905834687611e-05
6.618309154577287927e+02 5.975350991388955697e-05
6.627313656828414423e+02 5.966835651107468862e-05
6.636318159079539782e+02 5.926620927944625556e-05
6.645322661330665142e+02 5.850210547885723961e-05
6.654327163581790501e+02 5.769009965240084494e-05
6.663331665832915860e+02 5.711382767182745753e-05
6.672336168084041219e+02 5.686721254781658955e-05
6.681340670335167715e+02 5.697370259153222667e-05
6.690345172586293074e+02 5.729045790142038949e-05
6.699349674837418434e+02 5.745094370902462919e-05
6.708354177088543793e+02 5.712518024205702390e-05
6.717358679339669152e+02 5.635271164241888121e-05
6.726363181590794511e+02 5.549037051611552940e-05
6.735367683841921007e+02 5.478055152551938758e-05
6.744372186093046366e+02 5.423688225109419599e-05
6.753376688344171725e+02 5.382656392322392956e-05
6.762381190595297085e+02 5.354897545338903195e-05
6.771385692846422444e+02 5.345131694444849019e-05
6.780390195097548940e+02 5.364998921354218261e-05
6.789394697348674299e+02 5.416644913982409694e-05
6.798399199599799658e+02 5.477396611815709277e-05
6.807403701850925017e+02 5.515077295005800235e-05
6.816408204102050377e+02 5.497156085804375003e-05
6.825412706353175736e+02 5.417828986138370392e-05
6.834417208604302232e+02 5.327748120626068205e-05
6.843421710855427591e+02 5.283766282245703848e-05
6.852426213106552950e+02 5.292218621758167774e-05
6.861430715357678309e+02 5.325727730009276135e-05
6.870435217608803669e+02 5.357326811535456087e-05
6.879439719859930165e+02 5.369065005127856215e-05
6.888444222111055524e+02 5.356358639252933006e-05
6.897448724362180883e+02 5.323422487017398730e-05
6.906453226613306242e+02 5.272446254530499429e-05
6.915457728864431601e+02 5.210011089956034715e-05
6.924462231115556961e+02 5.148184297808417099e-05
6.933466733366683457e+02 5.101101645302870793e-05
6.942471235617808816e+02 5.079326193659090664e-05
6.951475737868934175e+02 5.082015550948970313e-05
6.960480240120059534e+02 5.086174890354022878e-05
6.969484742371184893e+02 5.055684637327290782e-05
6.978489244622311389e+02 4.989763560200027864e-05
6.987493746873436749e+02 4.931165118639718622e-05
6.996498249124562108e+02 4.916164526820990309e-05
7.005502751375687467e+02 4.939397672734060130e-05
7.014507253626812826e+02 4.968534335276059393e-05
7.023511755877938185e+02 4.979355758929667055e-05
7.032516258129064681e+02 4.962979112341042270e-05
7.041520760380190040e+02 4.915040455262108688e-05
7.050525262631315400e+02 4.834952275394754527e-05
7.059529764882440759e+02 4.725248238445201824e-05
7.068534267133566118e+02 4.598895856920717199e-05
7.077538769384691477e+02 4.477238991829728674e-05
7.086543271635817973e+02 4.379796482117828769e-05
7.095547773886943332e+02 4.313508333572928769e-05
7.104552276138068692e+02 4.273539893920203647e-05
7.113556778389194051e+02 4.250463162282201599e-05
7.122561280640319410e+02 4.229910432243657670e-05
7.131565782891445906e+02 4.202329913864489246e-05
7.140570285142571265e+02 4.166267199712128075e-05
7.149574787393696624e+02 4.125674943032849040e-05
7.158579289644821984e+02 4.093159422875417296e-05
7.167583791895947343e+02 4.079311405844233832e-05
7.176588294147072702e+02 4.081518978802194911e-05
7.185592796398199198e+02 4.088869208127264034e-05
7.194597298649324557e+02 4.094272244018543527e-05
7.203601800900449916e+02 4.094418823803904736e-05
7.212606303151575275e+02 4.092154616077364689e-05
7.221610805402700635e+02 4.093614173384265526e-05
7.230615307653827131e+02 4.090649634806677786e-05
7.239619809904952490e+02 4.067384759230581188e-05
7.248624312156077849e+02 4.028491329966059885e-05
7.257628814407203208e+02 3.999217369151007403e-05
7.266633316658328567e+02 3.991741323825253354e-05
7.275637818909453927e+02 3.990221869646637783e-05
7.284642321160580423e+02 3.970029078364952874e-05
7.293646823411705782e+02 3.919187737614264293e-05
7.302651325662831141e+02 3.848078197597143375e-05
7.311655827913956500e+02 3.781604398011494491e-05
7.320660330165081859e+02 3.744555126091621950e-05
7.329664832416207219e+02 3.748540982876070836e-05
7.338669334667333715e+02 3.781114045907038070e-05
7.347673836918459074e+02 3.810776756216641348e-05
7.356678339169584433e+02 3.812882593195992132e-05
7.365682841420709792e+02 3.783565789372047157e-05
7.374687343671835151e+02 3.731575357829915190e-05
7.383691845922961647e+02 3.663302471387607341e-05
7.392696348174087007e+02 3.582459126352556127e-05
7.401700850425212366e+02 3.501565305411426070e-05
7.410705352676337725e+02 3.438667280050295821e-05
7.419709854927463084e+02 3.403158143868029726e-05
7.428714357178588443e+02 3.390147639088684166e-05
7.437718859429714939e+02 3.379699673406809081e-05
7.446723361680840299e+02 3.349733211275862123e-05
7.455727863931965658e+02 3.297492452010404785e-05
7.464732366183091017e+02 3.236401777829599013e-05
7.473736868434216376e+02 3.178997260087547828e-05
7.482741370685342872e+02 3.129374649668903506e-05
7.491745872936468231e+02 3.093319205512988002e-05
7.500750375187593590e+02 3.082047771508352813e-05
7.509754877438718950e+02 3.095783513766749178e-05
7.518759379689844309e+02 3.122137559068112667e-05
7.527763881940969668e+02 3.146522085247624483e-05
7.536768384192096164e+02 3.154779957905125227e-05
7.545772886443221523e+02 3.141856703944510539e-05
7.554777388694346882e+02 3.124691624473049630e-05
7.563781890945472242e+02 3.127828667090459916e-05
7.572786393196597601e+02 3.160322634167135982e-05
7.581790895447722960e+02 3.215154145090180527e-05
7.590795397698849456e+02 3.274636413153956508e-05
7.599799899949974815e+02 3.319850748173391869e-05
7.608804402201100174e+02 3.342114260015329477e-05
7.617808904452225534e+02 3.342555602373654684e-05
7.626813406703350893e+02 3.327581576501446083e-05
7.635817908954477389e+02 3.303879194203586606e-05
7.644822411205602748e+02 3.270972101670342232e-05
7.653826913456728107e+02 3.222069555433708805e-05
7.662831415707853466e+02 3.160044440247431537e-05
7.671835917958978825e+02 3.097849240010152824e-05
7.680840420210104185e+02 3.036495291319451815e-05
7.689844922461230681e+02 2.969619217981457471e-05
7.698849424712356040e+02 2.900738671713984628e-05
7.707853926963481399e+02 2.835701673912603552e-05
7.716858429214606758e+02 2.776667854360198064e-05
7.725862931465732117e+02 2.726590771883441762e-05
7.734867433716858613e+02 2.690079306451608981e-05
7.743871935967983973e+02 2.669968963234842617e-05
7.752876438219109332e+02 2.660470658786641122e-05
7.761880940470234691e+02 2.654792607657433122e-05
7.770885442721360050e+02 2.657001305299216702e-05
7.779889944972485409e+02 2.670115237796558938e-05
7.788894447223611905e+02 2.683603081379612720e-05
7.797898949474737265e+02 2.687538098323945913e-05
7.806903451725862624e+02 2.687314220030201131e-05
7.815907953976987983e+02 2.692685330175956278e-05
7.824912456228113342e+02 2.701380053275030882e-05
7.833916958479238701e+02 2.704119964450147606e-05
7.842921460730365197e+02 2.699198913465592606e-05
7.851925962981490557e+02 2.692057498301495924e-05
7.860930465232615916e+02 2.687170256825925025e-05
7.869934967483741275e+02 2.687268880983769247e-05
7.878939469734866634e+02 2.692807571528846707e-05
7.887943971985993130e+02 2.698974414126526536e-05
7.896948474237118489e+02 2.699166798062945788e-05
7.905952976488243849e+02 2.693899725849493567e-05
7.914957478739369208e+02 2.688911448726810828e-05
7.923961980990494567e+02 2.677817829943350623e-05
7.932966483241619926e+02 2.649799085560862260e-05
7.941970985492746422e+02 2.604674531810492988e-05
7.950975487743871781e+02 2.554853564335364988e-05
7.959979989994997140e+02 2.515467503312138011e-05
7.968984492246122500e+02 2.496501454310331999e-05
7.977988994497247859e+02 2.505338680265686209e-05
7.986993496748374355e+02 2.546245601993709411e-05
7.995997998999499714e+02 2.611961870297815116e-05
8.005002501250625073e+02 2.677484328053857335e-05
8.014007003501750432e+02 2.710743783634037119e-05
8.023011505752875792e+02 2.698289716030250374e-05
8.032016008004001151e+02 2.653017167027865145e-05
8.041020510255127647e+02 2.593086773052927682e-05
8.050025012506253006e+02 2.537690214032542054e-05
8.059029514757378365e+02 2.503464497402980611e-05
8.068034017008503724e+02 2.489510288853905958e-05
8.077038519259629084e+02 2.482657308544167021e-05
8.086043021510754443e+02 2.473512857364933962e-05
8.095047523761880939e+02 2.464799054291555024e-05
8.104052026013006298e+02 2.463906427811969119e-05
8.113056528264131657e+02 2.472058464877835500e-05
8.122061030515257016e+02 2.488918630512244057e-05
8.131065532766382375e+02 2.521313878510088462e-05
8.140070035017508872e+02 2.570857029761841362e-05
8.149074537268634231e+02 2.625708184566088034e-05
8.158079039519759590e+02 2.673698693307354778e-05
8.167083541770884949e+02 2.710559008348175408e-05
8.176088044022010308e+02 2.734091016331199946e-05
8.185092546273135667e+02 2.737122634761442134e-05
8.194097048524262163e+02 2.715697995444668971e-05
8.203101550775387523e+02 2.677708979859726016e-05
8.212106053026512882e+02 2.635388066300958847e-05
8.221110555277638241e+02 2.592244514716787575e-05
8.230115057528763600e+02 2.548216816162789342e-05
8.239119559779890096e+02 2.506763037434712150e-05
8.248124062031015455e+02 2.473340677469783362e-05
8.257128564282140815e+02 2.451652806244896237e-05
8.266133066533266174e+02 2.439519055831813760e-05
8.275137568784391533e+02 2.429963474731079267e-05
8.284142071035516892e+02 2.421190109713000036e-05
8.293146573286643388e+02 2.420680808024846921e-05
8.302151075537768747e+02 2.434475822087159595e-05
8.311155577788894107e+02 2.458795352081753741e-05
8.320160080040019466e+02 2.488767847721768358e-05
8.329164582291144825e+02 2.519400652221459521e-05
8.338169084542270184e+02 2.534386466536646179e-05
8.347173586793396680e+02 2.519290704618376990e-05
8.356178089044522039e+02 2.487660184635438683e-05
8.365182591295647399e+02 2.467788817427423386e-05
8.374187093546772758e+02 2.471132709162673764e-05
8.383191595797898117e+02 2.489817703648708802e-05
8.392196098049024613e+02 2.513929780581024927e-05
8.401200600300149972e+02 2.539483425836196165e-05
8.410205102551275331e+02 2.564887990644265257e-05
8.419209604802400690e+02 2.589392148082896272e-05
8.428214107053526050e+02 2.615902474558628153e-05
8.437218609304651409e+02 2.646445916347425358e-05
8.446223111555777905e+02 2.675426926040511182e-05
8.455227613806903264e+02 2.696628765771208542e-05
8.464232116058028623e+02 2.709880163508854772e-05
8.473236618309153982e+02 2.715926793173515343e-05
8.482241120560279342e+02 2.721312272901264381e-05
8.491245622811405838e+02 2.731597104127649628e-05
8.500250125062531197e+02 2.738287071139185880e-05
8.509254627313656556e+02 2.729804780557958216e-05
8.518259129564781915e+02 2.700832773849041584e-05
8.527263631815907274e+02 2.657259732300375156e-05
8.536268134067032634e+02 2.614703462705121167e-05
8.545272636318159130e+02 2.586619924921040205e-05
8.554277138569284489e+02 2.575601799785353174e-05
8.563281640820409848e+02 2.574179560454404112e-05
8.572286143071535207e+02 2.572417557159445336e-05
8.581290645322660566e+02 2.566937305610535980e-05
8.590295147573785925e+02 2.566476401681261823e-05
8.599299649824912422e+02 2.589128040019267186e-05
8.608304152076037781e+02 2.643733709646808736e-05
8.617308654327163140e+02 2.713591485431731927e-05
8.626313156578288499e+02 2.768564424916562585e-05
8.635317658829413858e+02 2.798000274245120066e-05
8.644322161080540354e+02 2.815004908473416455e-05
8.653326663331665713e+02 2.832376435916206427e-05
8.662331165582791073e+02 2.853145716033643042e-05
8.671335667833916432e+02 2.875825282013123586e-05
8.680340170085041791e+02 2.894120235116359228e-05
8.689344672336167150e+02 2.904326356356818663e-05
8.698349174587293646e+02 2.913438130696813648e-05
8.707353676838419005e+02 2.924976755716373976e-05
8.716358179089544365e+02 2.928105800655476956e-05
8.725362681340669724e+02 2.913743426433712896e-05
8.734367183591795083e+02 2.889648879595947014e-05
8.743371685842921579e+02 2.868033972845207227e-05
8.752376188094046938e+02 2.852628616407378181e-05
8.761380690345172297e+02 2.845413810269321046e-05
8.770385192596297657e+02 2.849026297824259950e-05
8.779389694847423016e+02 2.858449059180589080e-05
8.788394197098548375e+02 2.870945968090077169e-05
8.797398699349674871e+02 2.890792362500621242e-05
8.806403201600800230e+02 2.918503405025386398e-05
8.815407703851925589e+02 2.949169497369232950e-05
8.824412206103050949e+02 2.976232276367710727e-05
8.833416708354176308e+02 2.987278815140839990e-05
8.842421210605301667e+02 2.972515210105322947e-05
8.851425712856428163e+02 2.940951710771210455e-05
8.860430215107553522e+02 2.915000183770314343e-05
8.869434717358678881e+02 2.915058478211133243e-05
8.878439219609804240e+02 2.947853899480378398e-05
8.887443721860929600e+02 3.008005468017556889e-05
8.896448224112056096e+02 3.088180949731624962e-05
8.905452726363181455e+02 3.179703888641193378e-05
8.914457228614306814e+02 3.263414736642061359e-05
8.923461730865432173e+02 3.318625277727588066e-05
8.932466233116557532e+02 3.344545277103946082e-05
8.941470735367682892e+02 3.356963254153025257e-05
8.950475237618809388e+02 3.362677103151164021e-05
8.959479739869934747e+02 3.362788420585310927e-05
8.968484242121060106e+02 3.360855391012227203e-05
8.977488744372185465e+02 3.358571556311857611e-05
8.986493246623310824e+02 3.366237018566446806e-05
8.995497748874437320e+02 3.403516039621186471e-05
9.004502251125562680e+02 3.473251104970667501e-05
9.013506753376688039e+02 3.551105554355889410e-05
9.022511255627813398e+02 3.612009912164534643e-05
9.031515757878938757e+02 3.650922399643770301e-05
9.040520260130064116e+02 3.680367461098751474e-05
9.049524762381190612e+02 3.709530758062073237e-05
9.058529264632315972e+02 3.729604209190649501e-05
9.067533766883441331e+02 3.729022238794971368e-05
9.076538269134566690e+02 3.712911994011857688e-05
9.085542771385692049e+02 3.693563920849871773e-05
9.094547273636817408e+02 3.683113723778495211e-05
9.103551775887943904e+02 3.696737467436964829e-05
9.112556278139069263e+02 3.741891188379256974e-05
9.121560780390194623e+02 3.808686388169884294e-05
9.130565282641319982e+02 3.882316453853082823e-05
9.139569784892445341e+02 3.956732984901760214e-05
9.148574287143571837e+02 4.035021318577479736e-05
9.157578789394697196e+02 4.130705904592908505e-05
9.166583291645822555e+02 4.251683504516320889e-05
9.175587793896947915e+02 4.383962237158379235e-05
9.184592296148073274e+02 4.514441301317183313e-05
9.193596798399198633e+02 4.641149907918946092e-05
9.202601300650325129e+02 4.759553348024188270e-05
9.211605802901450488e+02 4.862485853758694379e-05
9.220610305152575847e+02 4.953762272897894829e-05
9.229614807403701207e+02 5.050443037062259241e-05
9.238619309654826566e+02 5.161557957962115281e-05
9.247623811905953062e+02 5.281496481396046776e-05
9.256628314157078421e+02 5.412232891308406667e-05
9.265632816408203780e+02 5.558909616498020041e-05
9.274637318659329139e+02 5.700400007037947128e-05
9.283641820910454499e+02 5.810155811480937114e-05
9.292646323161579858e+02 5.896223399607564456e-05
9.301650825412706354e+02 5.978575711967886580e-05
9.310655327663831713e+02 6.050681498003055705e-05
9.319659829914957072e+02 6.107649684648967336e-05
9.328664332166082431e+02 6.164833151787331011e-05
9.337668834417207790e+02 6.225627245636867254e-05
9.346673336668334287e+02 6.274661650623302583e-05
9.355677838919459646e+02 6.303949388603863758e-05
9.364682341170585005e+02 6.315914643215369802e-05
9.373686843421710364e+02 6.315697334214912472e-05
9.382691345672835723e+02 6.312488374507430001e-05
9.391695847923961082e+02 6.324396953826265291e-05
9.400700350175087578e+02 6.367204711317022705e-05
9.409704852426212938e+02 6.436338223749419978e-05
9.418709354677338297e+02 6.516105129686873879e-05
9.427713856928463656e+02 6.594463407987030614e-05
9.436718359179589015e+02 6.674920079599580493e-05
9.445722861430714374e+02 6.781526761574282601e-05
9.454727363681840870e+02 6.924494738099008025e-05
9.463731865932966230e+02 7.081683478129054165e-05
9.472736368184091589e+02 7.218758535592237585e-05
9.481740870435216948e+02 7.313337266883632106e-05
9.490745372686342307e+02 7.395378551204931502e-05
9.499749874937468803e+02 7.511041703078375723e-05
9.508754377188594162e+02 7.653641405298319789e-05
9.517758879439719522e+02 7.783222812386803133e-05
9.526763381690844881e+02 7.881474264513928089e-05
9.535767883941970240e+02 7.976512584183855642e-05
9.544772386193095599e+02 8.119101622071424090e-05
9.553776888444222095e+02 8.320776615549942666e-05
9.562781390695347454e+02 8.539909799600018997e-05
9.571785892946472813e+02 8.714572538076380346e-05
9.580790395197598173e+02 8.807396648015317347e-05
9.589794897448723532e+02 8.860965086763754165e-05
9.598799399699850028e+02 8.957113622783416200e-05
9.607803901950975387e+02 9.114085896817902669e-05
9.616808404202100746e+02 9.308024731096385933e-05
9.625812906453226105e+02 9.521893252198708772e-05
9.634817408704351465e+02 9.717446008436398687e-05
9.643821910955476824e+02 9.879734133101606005e-05
9.652826413206603320e+02 1.004736363961513919e-04
9.661830915457728679e+02 1.024749028921984067e-04
9.670835417708854038e+02 1.045539865558925484e-04
9.679839919959979397e+02 1.062161427936648327e-04
9.688844422211104757e+02 1.070246327749363143e-04
9.697848924462230116e+02 1.066817073785732151e-04
9.706853426713356612e+02 1.054489422955215427e-04
9.715857928964481971e+02 1.041445222035784182e-04
9.724862431215607330e+02 1.034078531448165330e-04
9.733866933466732689e+02 1.036303452187415823e-04
9.742871435717858049e+02 1.048934083931171349e-04
9.751875937968984545e+02 1.067950787953468714e-04
9.760880440220109904e+02 1.088655800999794953e-04
9.769884942471235263e+02 1.107027615724226499e-04
9.778889444722360622e+02 1.121127578454345189e-04
9.787893946973485981e+02 1.134563370725142478e-04
9.796898449224611340e+02 1.154395053525603934e-04
9.805902951475737837e+02 1.184565878340645116e-04
9.814907453726863196e+02 1.220864998612938867e-04
9.823911955977988555e+02 1.253263487571808080e-04
9.832916458229113914e+02 1.275520103360101929e-04
9.841920960480239273e+02 1.285957231373021661e-04
9.850925462731365769e+02 1.287037127514364346e-04
9.859929964982491128e+02 1.287198140672852467e-04
9.868934467233616488e+02 1.292927906207339288e-04
9.877938969484741847e+02 1.302181198097429973e-04
9.886943471735867206e+02 1.309949607077645617e-04
9.895947973986992565e+02 1.320491007290322072e-04
9.904952476238119061e+02 1.341951874971179413e-04
9.913956978489244420e+02 1.371144985689318283e-04
9.922961480740369780e+02 1.398542781829321133e-04
9.931965982991495139e+02 1.420253834429841748e-04
9.940970485242620498e+02 1.435981994706949695e-04
9.949974987493745857e+02 1.447879934638675759e-04
9.958979489744872353e+02 1.461967252708284146e-04
9.967983991995997712e+02 1.482051946166208008e-04
9.976988494247123072e+02 1.508923781947376166e-04
9.985992996498248431e+02 1.541607009716301345e-04
9.994997498749373790e+02 1.576944220633667306e-04
1.000400200100050029e+03 1.612656123601600110e-04
1.001300650325162565e+03 1.648563941728355478e-04
1.002201100550275100e+03 1.682543838068268748e-04
1.003101550775387636e+03 1.711207852505521921e-04
1.004002001000500172e+03 1.734335345911692291e-04
1.004902451225612708e+03 1.752887110718775467e-04
1.005802901450725358e+03 1.770320780662336347e-04
1.006703351675837894e+03 1.791710101562933371e-04
1.007603801900950430e+03 1.819590078955747483e-04
1.008504252126062966e+03 1.853259716335024343e-04
1.009404702351175501e+03 1.886953153221905674e-04
1.010305152576288151e+03 1.914301121141750962e-04
1.011205602801400687e+03 1.933199395900619608e-04
1.012106053026513223e+03 1.945454429760388950e-04
1.013006503251625759e+03 1.954286457245837071e-04
1.013906953476738295e+03 1.964677630482924943e-04
1.014807403701850831e+03 1.982268697088015812e-04
1.015707853926963480e+03 2.007742867364611255e-04
1.016608304152076016e+03 2.040304666437361405e-04
1.017508754377188552e+03 2.080385559189896236e-04
1.018409204602301088e+03 2.123873402337711676e-04
1.019309654827413624e+03 2.163814514887646965e-04
1.020210105052526160e+03 2.199305903980669323e-04
1.021110555277638809e+03 2.238228048655814225e-04
1.022011005502751345e+03 2.287210237650328098e-04
1.022911455727863881e+03 2.344000324868003105e-04
1.023811905952976417e+03 2.403390910298624443e-04
1.024712356178089067e+03 2.465831598029774173e-04
1.025612806403201603e+03 2.538360002133832529e-04
1.026513256628314139e+03 2.625931957551682987e-04
1.027413706853426675e+03 2.726539595135259045e-04
1.028314157078539210e+03 2.835088140349117675e-04
1.029214607303651746e+03 2.945081701841149218e-04
1.030115057528764282e+03 3.050464126108049586e-04
1.031015507753876818e+03 3.149656595991799125e-04
1.031915957978989354e+03 3.246795238160614079e-04
1.032816408204101890e+03 3.345299820501868525e-04
1.033716858429214653e+03 3.449397651221605058e-04
1.034617308654327189e+03 3.558575206948516069e-04
1.035517758879439725e+03 3.661417783069059067e-04
1.036418209104552261e+03 3.750685618878133983e-04
1.037318659329664797e+03 3.835218304038489853e-04
1.038219109554777333e+03 3.929695667569351770e-04
1.039119559779889869e+03 4.044355523225927991e-04
1.040020010005002405e+03 4.181884330515113729e-04
1.040920460230114941e+03 4.329339976853801490e-04
1.041820910455227477e+03 4.457832268163330739e-04
1.042721360680340013e+03 4.548555903635302460e-04
1.043621810905452776e+03 4.601267277435654884e-04
1.044522261130565312e+03 4.631692341910748274e-04
1.045422711355677848e+03 4.665814001843195851e-04
1.046323161580790384e+03 4.715839306211808937e-04
1.047223611805902920e+03 4.769056562132131241e-04
1.048124062031015455e+03 4.806802119621272516e-04
1.049024512256127991e+03 4.826915605285475586e-04
1.049924962481240527e+03 4.843305541692455871e-04
1.050825412706353063e+03 4.872471841636592631e-04
1.051725862931465599e+03 4.927970343909002888e-04
1.052626313156578135e+03 5.015768413628111239e-04
1.053526763381690898e+03 5.132278501992658046e-04
1.054427213606803434e+03 5.268590404176541056e-04
1.055327663831915970e+03 5.411778565847333734e-04
1.056228114057028506e+03 5.548402915472245341e-04
1.057128564282141042e+03 5.665949549218605693e-04
1.058029014507253578e+03 5.769718034035360970e-04
1.058929464732366114e+03 5.890913514407696353e-04
1.059829914957478650e+03 6.040025076376697149e-04
1.060730365182591186e+03 6.185460358229511423e-04
1.061630815407703722e+03 6.293112441473580577e-04
1.062531265632816257e+03 6.343559496230653707e-04
1.063431715857929021e+03 6.335205942829334573e-04
1.064332166083041557e+03 6.284545806471893712e-04
1.065232616308154093e+03 6.204709194045335448e-04
1.066133066533266629e+03 6.102780111476672218e-04
1.067033516758379164e+03 5.994662561700870923e-04
1.067933966983491700e+03 5.901014786991311094e-04
1.068834417208604236e+03 5.835939723728416229e-04
1.069734867433716772e+03 5.803415795296507822e-04
1.070635317658829308e+03 5.798910517086926881e-04
1.071535767883941844e+03 5.822726107770332228e-04
1.072436218109054380e+03 5.872504888081793613e-04
1.073336668334167143e+03 5.939119181874617445e-04
1.074237118559279679e+03 6.026124238828256324e-04
1.075137568784392215e+03 6.139263898208383594e-04
1.076038019009504751e+03 6.259347927812734368e-04
1.076938469234617287e+03 6.346943081569876577e-04
1.077838919459729823e+03 6.372996824560994700e-04
1.078739369684842359e+03 6.339658987098399515e-04
1.079639819909954895e+03 6.274441468298181659e-04
1.080540270135067431e+03 6.213535560761889462e-04
1.081440720360179967e+03 6.183414753050595330e-04
1.082341170585292502e+03 6.177663169369758574e-04
1.083241620810405038e+03 6.166015384616973637e-04
1.084142071035517802e+03 6.130224522526562907e-04
1.085042521260630338e+03 6.071926317112788778e-04
1.085942971485742873e+03 6.005902688436049516e-04
1.086843421710855409e+03 5.943121016838340395e-04
1.087743871935967945e+03 5.890184028527318226e-04
1.088644322161080481e+03 5.856991977930921982e-04
1.089544772386193017e+03 5.840244263431804226e-04
1.090445222611305553e+03 5.822696013543682703e-04
1.091345672836418089e+03 5.792920895295363684e-04
1.092246123061530625e+03 5.750734875669576748e-04
1.093146573286643161e+03 5.702900852238199612e-04
1.094047023511755924e+03 5.664403721419735728e-04
1.094947473736868460e+03 5.652406894035274859e-04
1.095847923961980996e+03 5.672804182246396834e-04
1.096748374187093532e+03 5.715016555173457833e-04
1.097648824412206068e+03 5.745956465966203320e-04
1.098549274637318604e+03 5.720347888334929029e-04
1.099449724862431140e+03 5.622079000035880465e-04
1.100350175087543676e+03 5.475796134294215944e-04
1.101250625312656211e+03 5.312994757939814129e-04
1.102151075537768747e+03 5.156591214157196183e-04
1.103051525762881283e+03 5.016137473243103282e-04
1.103951975987994047e+03 4.885299567885252776e-04
1.104852426213106583e+03 4.766537952669285959e-04
1.105752876438219118e+03 4.678223828522338102e-04
1.106653326663331654e+03 4.631935258388433156e-04
1.107553776888444190e+03 4.618685728825022772e-04
1.108454227113556726e+03 4.614194508498078670e-04
1.109354677338669262e+03 4.601397830023103760e-04
1.110255127563781798e+03 4.573178780051647741e-04
1.111155577788894334e+03 4.516490441595509466e-04
1.112056028014006870e+03 4.421096719345580075e-04
1.112956478239119406e+03 4.302048939741021593e-04
1.113856928464232169e+03 4.185963740053199613e-04
1.114757378689344705e+03 4.081042989068333206e-04
1.115657828914457241e+03 3.985779553543747681e-04
1.116558279139569777e+03 3.903878745445489898e-04
1.117458729364682313e+03 3.833170296941906178e-04
1.118359179589794849e+03 3.768176582180056476e-04
1.119259629814907385e+03 3.706486232841785613e-04
1.120160080040019920e+03 3.640740514157688162e-04
1.121060530265132456e+03 3.558819730385114218e-04
1.121960980490244992e+03 3.456246382802977525e-04
1.122861430715357528e+03 3.343502325655411749e-04
1.123761880940470292e+03 3.228589799513926877e-04
1.124662331165582827e+03 3.108271154927994711e-04
1.125562781390695363e+03 2.993359062061769584e-04
1.126463231615807899e+03 2.900371441555570540e-04
1.127363681840920435e+03 2.825289794944074468e-04
1.128264132066032971e+03 2.755988287094818961e-04
1.129164582291145507e+03 2.683238048791223890e-04
1.130065032516258043e+03 2.591397180626013228e-04
1.130965482741370579e+03 2.466308182554243704e-04
1.131865932966483115e+03 2.312917929353394100e-04
1.132766383191595651e+03 2.149478659404994822e-04
1.133666833416708187e+03 1.993906124492809062e-04
1.134567283641820950e+03 1.855638926926381248e-04
1.135467733866933486e+03 1.737860296286788161e-04
1.136368184092046022e+03 1.642918817540545671e-04
1.137268634317158558e+03 1.570019453164240534e-04
1.138169084542271094e+03 1.515554372189070428e-04
1.139069534767383630e+03 1.474337766808838962e-04
1.139969984992496165e+03 1.436851422765608711e-04
1.140870435217608701e+03 1.388828730450969667e-04
1.141770885442721237e+03 1.322643050725476744e-04
1.142671335667833773e+03 1.246008519587123381e-04
1.143571785892946309e+03 1.172614328306374211e-04
1.144472236118059072e+03 1.111099890603885312e-04
1.145372686343171608e+03 1.064395721272261714e-04
1.146273136568284144e+03 1.031844923940971416e-04
1.147173586793396680e+03 1.010279700424007281e-04
1.148074037018509216e+03 9.950412784966375921e-05
1.148974487243621752e+03 9.811592563572168156e-05
1.149874937468734288e+03 9.660517332243181998e-05
1.150775387693846824e+03 9.486763551237172932e-05
1.151675837918959360e+03 9.277238261135434120e-05
1.152576288144071896e+03 9.053658548140600744e-05
1.153476738369184432e+03 8.860901506730739204e-05
1.154377188594297195e+03 8.727206483578084199e-05
1.155277638819409731e+03 8.683215186571871546e-05
1.156178089044522267e+03 8.766499045919916061e-05
1.157078539269634803e+03 8.985200706966110643e-05
1.157978989494747339e+03 9.292174582502505753e-05
1.158879439719859874e+03 9.568106584356014474e-05
1.159779889944972410e+03 9.678626477202750909e-05
1.160680340170084946e+03 9.615482828017727528e-05
1.161580790395197482e+03 9.478691111160565967e-05
1.162481240620310018e+03 9.325049723482716846e-05
1.163381690845422554e+03 9.153700575197242667e-05
1.164282141070535317e+03 8.967277713288406373e-05
1.165182591295647853e+03 8.796808999879431458e-05
1.166083041520760389e+03 8.693093970482579000e-05
1.166983491745872925e+03 8.679239801168783547e-05
1.167883941970985461e+03 8.737596882545024021e-05
1.168784392196097997e+03 8.833277553611612826e-05
1.169684842421210533e+03 8.921260755516161544e-05
1.170585292646323069e+03 8.955524387323897807e-05
1.171485742871435605e+03 8.943331237640255891e-05
1.172386193096548141e+03 8.949450021946394804e-05
1.173286643321660677e+03 9.012420211430876215e-05
1.174187093546773440e+03 9.127539966650239018e-05
1.175087543771885976e+03 9.296396259785859773e-05
1.175987993996998512e+03 9.527826778497802121e-05
1.176888444222111048e+03 9.816587627789018081e-05
1.177788894447223583e+03 1.015242355030983583e-04
1.178689344672336119e+03 1.051929784709141203e-04
1.179589794897448655e+03 1.089171834227330171e-04
1.180490245122561191e+03 1.126892807276305588e-04
1.181390695347673727e+03 1.166259695148813162e-04
1.182291145572786263e+03 1.206560104338412416e-04
1.183191595797898799e+03 1.246796450530200217e-04
1.184092046023011562e+03 1.287840028679460935e-04
1.184992496248124098e+03 1.331045981649391758e-04
1.185892946473236634e+03 1.375530582569192022e-04
1.186793396698349170e+03 1.420060420807294399e-04
1.187693846923461706e+03 1.466029709846764688e-04
1.188594297148574242e+03 1.512609298332452971e-04
1.189494747373686778e+03 1.555222784528124361e-04
1.190395197598799314e+03 1.592657271214870042e-04
1.191295647823911850e+03 1.628928868595099140e-04
1.192196098049024386e+03 1.665211113162950356e-04
1.193096548274136921e+03 1.696471022557706747e-04
1.193996998499249457e+03 1.718275102176355224e-04
1.194897448724362221e+03 1.731273708931799086e-04
1.195797898949474757e+03 1.737129500049121322e-04
1.196698349174587293e+03 1.742941424854296459e-04
1.197598799399699828e+03 1.759804716836125031e-04
1.198499249624812364e+03 1.790068242672971039e-04
1.199399699849924900e+03 1.827398514620009627e-04
1.200300150075037436e+03 1.868446471293434136e-04
1.201200600300149972e+03 1.915243879908402663e-04
1.202101050525262508e+03 1.968945590330811409e-04
1.203001500750375044e+03 2.028574350885746242e-04
1.203901950975487580e+03 2.089485532373467009e-04
1.204802401200600343e+03 2.145235203005548300e-04
1.205702851425712879e+03 2.188616238392030507e-04
1.206603301650825415e+03 2.214564274571912002e-04
1.207503751875937951e+03 2.223682562214900928e-04
1.208404202101050487e+03 2.216297028181912743e-04
1.209304652326163023e+03 2.192543082074962797e-04
1.210205102551275559e+03 2.163230466583486347e-04
1.211105552776388095e+03 2.148317599570167126e-04
1.212006003001500630e+03 2.158059162903870826e-04
1.212906453226613166e+03 2.185736769593693758e-04
1.213806903451725702e+03 2.221764332622874923e-04
1.214707353676838466e+03 2.266103499161260771e-04
1.215607803901951002e+03 2.321419187900385702e-04
1.216508254127063537e+03 2.389703237560870139e-04
1.217408704352176073e+03 2.479347299355838747e-04
1.218309154577288609e+03 2.598052465741813172e-04
1.219209604802401145e+03 2.738634084480176534e-04
1.220110055027513681e+03 2.878930743375218183e-04
1.221010505252626217e+03 2.999030904362198378e-04
1.221910955477738753e+03 3.093423277675472010e-04
1.222811405702851289e+03 3.167706254438260342e-04
1.223711855927963825e+03 3.233787359582810045e-04
1.224612306153076588e+03 3.296945684469591051e-04
1.225512756378189124e+03 3.359844559447950491e-04
1.226413206603301660e+03 3.433545224175839437e-04
1.227313656828414196e+03 3.528184280305178447e-04
1.228214107053526732e+03 3.641570485913463769e-04
1.229114557278639268e+03 3.758130433757731490e-04
1.230015007503751804e+03 3.864112987581351717e-04
1.230915457728864340e+03 3.968336202736634597e-04
1.231815907953976875e+03 4.088977422356326278e-04
1.232716358179089411e+03 4.237904862874673859e-04
1.233616808404201947e+03 4.426642574932092115e-04
1.234517258629314711e+03 4.654686602330325483e-04
1.235417708854427246e+03 4.898490784904630359e-04
1.236318159079539782e+03 5.140965165448915146e-04
1.237218609304652318e+03 5.383313224271599152e-04
1.238119059529764854e+03 5.622777730988630547e-04
1.239019509754877390e+03 5.845732155861965880e-04
1.239919959979989926e+03 6.038879799351535302e-04
1.240820410205102462e+03 6.197773881680265426e-04
1.241720860430214998e+03 6.326386779531387606e-04
1.242621310655327534e+03 6.435879420000343350e-04
1.243521760880440070e+03 6.539992395819118698e-04
1.244422211105552606e+03 6.643877664043020079e-04
1.245322661330665369e+03 6.744656157963682848e-04
1.246223111555777905e+03 6.845103900717726701e-04
1.247123561780890441e+03 6.956139918895907354e-04
1.248024012006002977e+03 7.075387771809641844e-04
1.248924462231115513e+03 7.182238428401648868e-04
1.249824912456228049e+03 7.259931279751967101e-04
1.250725362681340584e+03 7.303414348970832092e-04
1.251625812906453120e+03 7.318798231905507224e-04
1.252526263131565656e+03 7.325416593072060171e-04
1.253426713356678192e+03 7.342112001993523433e-04
1.254327163581790728e+03 7.370758285700725922e-04
1.255227613806903491e+03 7.400109188437215251e-04
1.256128064032016027e+03 7.431320726068753454e-04
1.257028514257128563e+03 7.474477798030867287e-04
1.257928964482241099e+03 7.533397553251127907e-04
1.258829414707353635e+03 7.609170077001938415e-04
1.259729864932466171e+03 7.690710901869016441e-04
1.260630315157578707e+03 7.758645015089434471e-04
1.261530765382691243e+03 7.815533459167462458e-04
1.262431215607803779e+03 7.879081805941129391e-04
1.263331665832916315e+03 7.959200594355742833e-04
1.264232116058028851e+03 8.056653794792833969e-04
1.265132566283141614e+03 8.163388377153638770e-04
1.266033016508254150e+03 8.261874307696328917e-04
1.266933466733366686e+03 8.350448360446758277e-04
1.267833916958479222e+03 8.452151821082823022e-04
1.268734367183591758e+03 8.575483648258778102e-04
1.269634817408704293e+03 8.703776056243951210e-04
1.270535267633816829e+03 8.826199743580576303e-04
1.271435717858929365e+03 8.942524797617314300e-04
1.272336168084041901e+03 9.049442243034260674e-04
1.273236618309154437e+03 9.151115948267034370e-04
1.274137068534266973e+03 9.264892043833228329e-04
1.275037518759379736e+03 9.412620667729226960e-04
1.275937968984492272e+03 9.603652023516638788e-04
1.276838419209604808e+03 9.825725601359590160e-04
1.277738869434717344e+03 1.005525638376884292e-03
1.278639319659829880e+03 1.026974665465824966e-03
1.279539769884942416e+03 1.046154616699239079e-03
1.280440220110054952e+03 1.065055995618390547e-03
1.281340670335167488e+03 1.087019156290249238e-03
1.282241120560280024e+03 1.113423438348995227e-03
1.283141570785392560e+03 1.143280326160423096e-03
1.284042021010505096e+03 1.174948648996142729e-03
1.284942471235617859e+03 1.206229963096062171e-03
1.285842921460730395e+03 1.234086855595154094e-03
1.286743371685842931e+03 1.256042713091354377e-03
1.287643821910955467e+03 1.272808923980613431e-03
1.288544272136068003e+03 1.287267307346603605e-03
1.289444722361180538e+03 1.301329272549012163e-03
1.290345172586293074e+03 1.315113478046144252e-03
1.291245622811405610e+03 1.327772347874079002e-03
1.292146073036518146e+03 1.339111509701740484e-03
1.293046523261630682e+03 1.349168613519589714e-03
1.293946973486743218e+03 1.356450155206357895e-03
1.294847423711855754e+03 1.358854331957693807e-03
1.295747873936968517e+03 1.356826336174394090e-03
1.296648324162081053e+03 1.354938006256081566e-03
1.297548774387193589e+03 1.357753665170739624e-03
1.298449224612306125e+03 1.365927468943739379e-03
1.299349674837418661e+03 1.378079258323716303e-03
1.300250125062531197e+03 1.391750680182519658e-03
1.301150575287643733e+03 1.404954927028141893e-03
1.302051025512756269e+03 1.417595959006127341e-03
1.302951475737868805e+03 1.429974310144647249e-03
1.303851925962981340e+03 1.442472894762953598e-03
1.304752376188093876e+03 1.457104308254507504e-03
1.305652826413206640e+03 1.478908015845937758e-03
1.306553276638319176e+03 1.511130306157894027e-03
1.307453726863431712e+03 1.550611873833197991e-03
1.308354177088544247e+03 1.592120481257905526e-03
1.309254627313656783e+03 1.633207878260335352e-03
1.310155077538769319e+03 1.674616657297529204e-03
1.311055527763881855e+03 1.718024552688350451e-03
1.311955977988994391e+03 1.763077914308910314e-03
1.312856428214106927e+03 1.807798842726965035e-03
1.313756878439219463e+03 1.852483885983816515e-03
1.314657328664331999e+03 1.899008709810244859e-03
1.315557778889444762e+03 1.947568790718328269e-03
1.316458229114557298e+03 1.997232344251663461e-03
1.317358679339669834e+03 2.047494670360337950e-03
1.318259129564782370e+03 2.097710142262919353e-03
1.319159579789894906e+03 2.145825919316340143e-03
1.320060030015007442e+03 2.190529140686107816e-03
1.320960480240119978e+03 2.234126761291156758e-03
1.321860930465232514e+03 2.279041630750681165e-03
1.322761380690345050e+03 2.324575083371075400e-03
1.323661830915457585e+03 2.367923621677416220e-03
1.324562281140570121e+03 2.407860160299539649e-03
1.325462731365682885e+03 2.446680232283360637e-03
1.326363181590795421e+03 2.487547784482659497e-03
1.327263631815907956e+03 2.532208247955732971e-03
1.328164082041020492e+03 2.578405551094654913e-03
1.329064532266133028e+03 2.622727122561079819e-03
1.329964982491245564e+03 2.668437560230647095e-03
1.330865432716358100e+03 2.720955362359199232e-03
1.331765882941470636e+03 2.778251198152279552e-03
1.332666333166583172e+03 2.836808336502265847e-03
1.333566783391695708e+03 2.901276268274194468e-03
1.334467233616808244e+03 2.977978239531622450e-03
1.335367683841921007e+03 3.065038282479393573e-03
1.336268134067033543e+03 3.157470605054810402e-03
1.337168584292146079e+03 3.256427422742735021e-03
1.338069034517258615e+03 3.364084257955517014e-03
1.338969484742371151e+03 3.479789293726442967e-03
1.339869934967483687e+03 3.608974528422524957e-03
1.340770385192596223e+03 3.757137566589342521e-03
1.341670835417708759e+03 3.913328289352840939e-03
1.342571285642821294e+03 4.063255398571649635e-03
1.343471735867933830e+03 4.206180576980041337e-03
1.344372186093046366e+03 4.345352261020044363e-03
1.345272636318158902e+03 4.483918695798197636e-03
1.346173086543271666e+03 4.629527700325089187e-03
1.347073536768384201e+03 4.792836073000872679e-03
1.347973986993496737e+03 4.980153364329575373e-03
1.348874437218609273e+03 5.182630034688355189e-03
1.349774887443721809e+03 5.385087675590741543e-03
1.350675337668834345e+03 5.587720655644865669e-03
1.351575787893946881e+03 5.802819992150897756e-03
1.352476238119059417e+03 6.038805092426258875e-03
1.353376688344171953e+03 6.307218274606606404e-03
1.354277138569284489e+03 6.615558812474314938e-03
1.355177588794397025e+03 6.940583518792090185e-03
1.356078039019509788e+03 7.243063378101208434e-03
1.356978489244622324e+03 7.511495437628395305e-03
1.357878939469734860e+03 7.767957709405967810e-03
1.358779389694847396e+03 8.038031151246245731e-03
1.359679839919959932e+03 8.326055793191693491e-03
1.360580290145072468e+03 8.614377585703599655e-03
1.361480740370185003e+03 8.883911037626862975e-03
1.362381190595297539e+03 9.132838161237643790e-03
1.363281640820410075e+03 9.382758184632862541e-03
1.364182091045522611e+03 9.653843919150995392e-03
1.365082541270635147e+03 9.944650159583387494e-03
1.365982991495747910e+03 1.025550169085451616e-02
1.366883441720860446e+03 1.061245893778461555e-02
1.367783891945972982e+03 1.102328805366423366e-02
1.368684342171085518e+03 1.144333483369143478e-02
1.369584792396198054e+03 1.182537775451664164e-02
1.370485242621310590e+03 1.216177370663987928e-02
1.371385692846423126e+03 1.248740843385004115e-02
1.372286143071535662e+03 1.287896859091198012e-02
1.373186593296648198e+03 1.340019685638567382e-02
1.374087043521760734e+03 1.404221672895437402e-02
1.374987493746873270e+03 1.474981116997296782e-02
1.375887943971986033e+03 1.549013195457565710e-02
1.376788394197098569e+03 1.624354601233871792e-02
1.377688844422211105e+03 1.695633262781626530e-02
1.378589294647323641e+03 1.756464098569649607e-02
1.379489744872436177e+03 1.805844104479958911e-02
1.380390195097548713e+03 1.852012848300566006e-02
1.381290645322661248e+03 1.904421692748982028e-02
1.382191095547773784e+03 1.967707677139926212e-02
1.383091545772886320e+03 2.041687983370425036e-02
1.383991995997998856e+03 2.124217967998974152e-02
1.384892446223111392e+03 2.215489766760419046e-02
1.385792896448224155e+03 2.316301159284718872e-02
1.386693346673336691e+03 2.427743842646509081e-02
1.387593796898449227e+03 2.551584880206157410e-02
1.388494247123561763e+03 2.681802684423508984e-02
1.389394697348674299e+03 2.808435108356696977e-02
1.390295147573786835e+03 2.930348675664817479e-02
1.391195597798899371e+03 3.051229346808393209e-02
1.392096048024011907e+03 3.175342191849244572e-02
1.392996498249124443e+03 3.307207065048251016e-02
1.393896948474236979e+03 3.448655478416650516e-02
1.394797398699349515e+03 3.597714595417697558e-02
1.395697848924462278e+03 3.749950680067390407e-02
1.396598299149574814e+03 3.901925660119485995e-02
1.397498749374687350e+03 4.047771167397790776e-02
1.398399199599799886e+03 4.173687616030036934e-02
1.399299649824912422e+03 4.257641286200620351e-02
1.400200100050024957e+03 4.276242896681278771e-02
1.401100550275137493e+03 4.224228303011964836e-02
1.402001000500250029e+03 4.124363858774579561e-02
1.402901450725362565e+03 4.004698045367732079e-02
1.403801900950475101e+03 3.865531621578447569e-02
1.404702351175587637e+03 3.681785710185300764e-02
1.405602801400700173e+03 3.447704492025344819e-02
1.406503251625812936e+03 3.185023472401830869e-02
1.407403701850925472e+03 2.919881004390669638e-02
1.408304152076038008e+03 2.672958738045587423e-02
1.409204602301150544e+03 2.452468848450022054e-02
1.410105052526263080e+03 2.254185373091524211e-02
1.411005502751375616e+03 2.070107694260494777e-02
1.411905952976488152e+03 1.893811875965586283e-02
1.412806403201600688e+03 1.726080934357313371e-02
1.413706853426713224e+03 1.574978573977726948e-02
1.414607303651825760e+03 1.447447113175363669e-02
1.415507753876938295e+03 1.340794234055429565e-02
1.416408204102051059e+03 1.245046934516554418e-02
1.417308654327163595e+03 1.151249302909336872e-02
1.418209104552276131e+03 1.057356414592413967e-02
1.419109554777388666e+03 9.683101704639708943e-03
1.420010005002501202e+03 8.903463662348889626e-03
1.420910455227613738e+03 8.253491459358310023e-03
1.421810905452726274e+03 7.699038673789862508e-03
1.422711355677838810e+03 7.198261975203368648e-03
1.423611805902951346e+03 6.739185388524150319e-03
1.424512256128063882e+03 6.327927897969701752e-03
1.425412706353176418e+03 5.967479325133776165e-03
1.426313156578289181e+03 5.649159866042496349e-03
1.427213606803401717e+03 5.356907109550585779e-03
1.428114057028514253e+03 5.074974968693283899e-03
1.429014507253626789e+03 4.795994279045227501e-03
1.429914957478739325e+03 4.523236913361488795e-03
1.430815407703851861e+03 4.262339487255460344e-03
1.431715857928964397e+03 4.013674511687802433e-03
1.432616308154076933e+03 3.780660162663420417e-03
1.433516758379189469e+03 3.576151632584197767e-03
1.434417208604302004e+03 3.414192804339136883e-03
1.435317658829414540e+03 3.303738930178070493e-03
1.436218109054527304e+03 3.243099776747430853e-03
1.437118559279639840e+03 3.213999419962725122e-03
1.438019009504752376e+03 3.185546486439404419e-03
1.438919459729864911e+03 3.134391018099910720e-03
1.439819909954977447e+03 3.063800127705299230e-03
1.440720360180089983e+03 2.986893793223684233e-03
1.441620810405202519e+03 2.904776668498495248e-03
1.442521260630315055e+03 2.813697971410573928e-03
1.443421710855427591e+03 2.718910931560917978e-03
1.444322161080540127e+03 2.630276254567563612e-03
1.445222611305652663e+03 2.551152538558791854e-03
1.446123061530765426e+03 2.478478977295012382e-03
1.447023511755877962e+03 2.404913083160068518e-03
1.447923961980990498e+03 2.328179252656771472e-03
1.448824412206103034e+03 2.255628940915985724e-03
1.449724862431215570e+03 2.195684736554163411e-03
1.450625312656328106e+03 2.152312785517865139e-03
1.451525762881440642e+03 2.123143841109481188e-03
1.452426213106553178e+03 2.102294825730321136e-03
1.453326663331665713e+03 2.078372113763287191e-03
1.454227113556778249e+03 2.038804522037204661e-03
1.455127563781890785e+03 1.983891565773358932e-03
1.456028014007003321e+03 1.924697642828530376e-03
1.456928464232116085e+03 1.871542033338894923e-03
1.457828914457228620e+03 1.827358457492920130e-03
1.458729364682341156e+03 1.789001270914055211e-03
1.459629814907453692e+03 1.751516797447265177e-03
1.460530265132566228e+03 1.712787683355500561e-03
1.461430715357678764e+03 1.673491604367517227e-03
1.462331165582791300e+03 1.634859051601329338e-03
1.463231615807903836e+03 1.597497432187352552e-03
1.464132066033016372e+03 1.560103136900372516e-03
1.465032516258128908e+03 1.519797789678408633e-03
1.465932966483241444e+03 1.478351150892204258e-03
1.466833416708354207e+03 1.442139769671715085e-03
1.467733866933466743e+03 1.413993120778341646e-03
1.468634317158579279e+03 1.393456645282370454e-03
1.469534767383691815e+03 1.381873728664503344e-03
1.470435217608804351e+03 1.376730698658483335e-03
1.471335667833916887e+03 1.370042269398547875e-03
1.472236118059029423e+03 1.356378410108801183e-03
1.473136568284141958e+03 1.336636001126067542e-03
1.474037018509254494e+03 1.314870233194966693e-03
1.474937468734367030e+03 1.291471733004081026e-03
1.475837918959479566e+03 1.261784418377586217e-03
1.476738369184592329e+03 1.223933278496080763e-03
1.477638819409704865e+03 1.183454922207007824e-03
1.478539269634817401e+03 1.148022653974414180e-03
1.479439719859929937e+03 1.119984710965397532e-03
1.480340170085042473e+03 1.097029697883332520e-03
1.481240620310155009e+03 1.078988503619885070e-03
1.482141070535267545e+03 1.068688083498107013e-03
1.483041520760380081e+03 1.065059895639418677e-03
1.483941970985492617e+03 1.060884916099410526e-03
1.484842421210605153e+03 1.049252158866348546e-03
1.485742871435717689e+03 1.030202584212919171e-03
1.486643321660830452e+03 1.008926371700207773e-03
1.487543771885942988e+03 9.901428439917548015e-04
1.488444222111055524e+03 9.739532404693548818e-04
1.489344672336168060e+03 9.574879367715855710e-04
1.490245122561280596e+03 9.385011869208830741e-04
1.491145572786393132e+03 9.166743117698911798e-04
1.492046023011505667e+03 8.943534681183040692e-04
1.492946473236618203e+03 8.753586360815501875e-04
1.493846923461730739e+03 8.610887291748930798e-04
1.494747373686843275e+03 8.490205127388609444e-04
1.495647823911955811e+03 8.376406182254386799e-04
1.496548274137068574e+03 8.275547564490967059e-04
1.497448724362181110e+03 8.176525416767950905e-04
1.498349174587293646e+03 8.056189467287790552e-04
1.499249624812406182e+03 7.900645193244225937e-04
1.500150075037518718e+03 7.711715083628035332e-04
1.501050525262631254e+03 7.511190496949055962e-04
1.501950975487743790e+03 7.315758875799797164e-04
1.502851425712856326e+03 7.129846127349818421e-04
1.503751875937968862e+03 6.967349116782772106e-04
1.504652326163081398e+03 6.842780662197413570e-04
1.505552776388193934e+03 6.755062406862287396e-04
1.506453226613306470e+03 6.689316650652496130e-04
1.507353676838419233e+03 6.620476056955373716e-04
1.508254127063531769e+03 6.531718888512168296e-04
1.509154577288644305e+03 6.422783121707235487e-04
1.510055027513756841e+03 6.305398318203459494e-04
1.510955477738869376e+03 6.199209248191495797e-04
1.511855927963981912e+03 6.116292773972008398e-04
1.512756378189094448e+03 6.060842665001406468e-04
1.513656828414206984e+03 6.025332330745786658e-04
1.514557278639319520e+03 5.985106910004495823e-04
1.515457728864432056e+03 5.918214255600056078e-04
1.516358179089544592e+03 5.817983354874007879e-04
1.517258629314657355e+03 5.695429545100267124e-04
1.518159079539769891e+03 5.570566865399202922e-04
1.519059529764882427e+03 5.456235964498949709e-04
1.519959979989994963e+03 5.363436897627730463e-04
1.520860430215107499e+03 5.302813488121010162e-04
1.521760880440220035e+03 5.268993046825501837e-04
1.522661330665332571e+03 5.237978240062425789e-04
1.523561780890445107e+03 5.195613725710096151e-04
1.524462231115557643e+03 5.156390050507120466e-04
1.525362681340670179e+03 5.143237371700893094e-04
1.526263131565782714e+03 5.163706373254303228e-04
1.527163581790895478e+03 5.211305476168793258e-04
1.528064032016008014e+03 5.276080669305391758e-04
1.528964482241120550e+03 5.334103596140522992e-04
1.529864932466233086e+03 5.358190544824879527e-04
1.530765382691345621e+03 5.347613297627316865e-04
1.531665832916458157e+03 5.318358911429354107e-04
1.532566283141570693e+03 5.282139762141392896e-04
1.533466733366683229e+03 5.238746719374625044e-04
1.534367183591795765e+03 5.174651694901549227e-04
1.535267633816908301e+03 5.077832641992615758e-04
1.536168084042020837e+03 4.954105035272834013e-04
1.537068534267133600e+03 4.814538164526346257e-04
1.537968984492246136e+03 4.663424598786931928e-04
1.538869434717358672e+03 4.518319903739786048e-04
1.539769884942471208e+03 4.399702744154434164e-04
1.540670335167583744e+03 4.313458690843260685e-04
1.541570785392696280e+03 4.255772282264227947e-04
1.542471235617808816e+03 4.223515480606448904e-04
1.543371685842921352e+03 4.212799643378761978e-04
1.544272136068033888e+03 4.202074701504741861e-04
1.545172586293146423e+03 4.166609035969454349e-04
1.546073036518258959e+03 4.100862361289679312e-04
1.546973486743371723e+03 4.019208723208743351e-04
1.547873936968484259e+03 3.938412824205075251e-04
1.548774387193596795e+03 3.864501737768697267e-04
1.549674837418709330e+03 3.798406276695729419e-04
1.550575287643821866e+03 3.748353565888256451e-04
1.551475737868934402e+03 3.726772107903036381e-04
1.552376188094046938e+03 3.728190887902927005e-04
1.553276638319159474e+03 3.734216245691065312e-04
1.554177088544272010e+03 3.734932446453094056e-04
1.555077538769384546e+03 3.733069054717318884e-04
1.555977988994497082e+03 3.736804238757060600e-04
1.556878439219609618e+03 3.751835999665797971e-04
1.557778889444722381e+03 3.779845776513281294e-04
1.558679339669834917e+03 3.817114029817793124e-04
1.559579789894947453e+03 3.855610453578533006e-04
1.560480240120059989e+03 3.878205203235518604e-04
1.561380690345172525e+03 3.871512950906873664e-04
1.562281140570285061e+03 3.845606897501817659e-04
1.563181590795397597e+03 3.820265139161204250e-04
1.564082041020510133e+03 3.800612023492769883e-04
1.564982491245622668e+03 3.778418360863261116e-04
1.565882941470735204e+03 3.737559648582910034e-04
1.566783391695847740e+03 3.662477959834592586e-04
1.567683841920960504e+03 3.554864035851950125e-04
1.568584292146073039e+03 3.429483078629845462e-04
1.569484742371185575e+03 3.291604414870661429e-04
1.570385192596298111e+03 3.134100062661465875e-04
1.571285642821410647e+03 2.949791764212906175e-04
1.572186093046523183e+03 2.740498590915248656e-04
1.573086543271635719e+03 2.516219982919245981e-04
1.573986993496748255e+03 2.282531454261968126e-04
1.574887443721860791e+03 2.044941402403201408e-04
1.575787893946973327e+03 1.815440396202116613e-04
1.576688344172085863e+03 1.603318267093951346e-04
1.577588794397198626e+03 1.416560464283146573e-04
1.578489244622311162e+03 1.261684942355923550e-04
1.579389694847423698e+03 1.138657009325298540e-04
1.580290145072536234e+03 1.042401851141444227e-04
1.581190595297648770e+03 9.667558709826378155e-05
1.582091045522761306e+03 9.064018522125317015e-05
1.582991495747873842e+03 8.572838028455334874e-05
1.583891945972986377e+03 8.164822792506181467e-05
1.584792396198098913e+03 7.819405263356310693e-05
1.585692846423211449e+03 7.522054790363534571e-05
1.586593296648323985e+03 7.262351504418205290e-05
1.587493746873436749e+03 7.032678842600074618e-05
1.588394197098549284e+03 6.827358927254745323e-05
1.589294647323661820e+03 6.642079601545640834e-05
1.590195097548774356e+03 6.473509520841055518e-05
1.591095547773886892e+03 6.319034928106007152e-05
1.591995997998999428e+03 6.176576237536993521e-05
1.592896448224111964e+03 6.044457871145039637e-05
1.593796898449224500e+03 5.921314280218321560e-05
1.594697348674337036e+03 5.806020996837304765e-05
1.595597798899449572e+03 5.697643296057359357e-05
1.596498249124562108e+03 5.595397447562449261e-05
1.597398699349674871e+03 5.498621101617595988e-05
1.598299149574787407e+03 5.406750394113209911e-05
1.599199599799899943e+03 5.319302057408675642e-05
1.600100050025012479e+03 5.235859304790547092e-05
1.601000500250125015e+03 5.156060590945059775e-05
1.601900950475237551e+03 5.079590586730413940e-05
1.602801400700350086e+03 5.006172874969964460e-05
1.603701850925462622e+03 4.935563995713311433e-05
1.604602301150575158e+03 4.867548558368941196e-05
1.605502751375687694e+03 4.801935203811670463e-05
1.606403201600800230e+03 4.738553248569696893e-05
1.607303651825912766e+03 4.677249880082860208e-05
1.608204102051025529e+03 4.617887800038203129e-05
1.609104552276138065e+03 4.560343234233194893e-05
1.610005002501250601e+03 4.504504243967615609e-05
1.610905452726363137e+03 4.450269286826183054e-05
1.611805902951475673e+03 4.397545984780349028e-05
1.612706353176588209e+03 4.346250065468507963e-05
1.613606803401700745e+03 4.296304448799776019e-05
1.614507253626813281e+03 4.247638456038791940e-05
1.615407703851925817e+03 4.200187122548636659e-05
1.616308154077038353e+03 4.153890598609337860e-05
1.617208604302150889e+03 4.108693625354306979e-05
1.618109054527263652e+03 4.064545075005407729e-05
1.619009504752376188e+03 4.021397546335221272e-05
1.619909954977488724e+03 3.979207007722582271e-05
1.620810405202601260e+03 3.937932481351851308e-05
1.621710855427713796e+03 3.897535763089639234e-05
1.622611305652826331e+03 3.857981173388155930e-05
1.623511755877938867e+03 3.819235335247584258e-05
1.624412206103051403e+03 3.781266975840051728e-05
1.625312656328163939e+03 3.744046748878672323e-05
1.626213106553276475e+03 3.707547075220157009e-05
1.627113556778389011e+03 3.671741999531983453e-05
1.628014007003501774e+03 3.636607061146305094e-05
1.628914457228614310e+03 3.602119177470796367e-05
1.629814907453726846e+03 3.568256538537470921e-05
1.630715357678839382e+03 3.534998511452057326e-05
1.631615807903951918e+03 3.502325553661596937e-05
1.632516258129064454e+03 3.470219134092672594e-05
1.633416708354176990e+03 3.438661661325601867e-05
1.634317158579289526e+03 3.407636418073581715e-05
1.635217608804402062e+03 3.377127501318403190e-05
1.636118059029514598e+03 3.347119767532110422e-05
1.637018509254627133e+03 3.317598782478449519e-05
1.637918959479739897e+03 3.288550775145156207e-05
1.638819409704852433e+03 3.259962595408141882e-05
1.639719859929964969e+03 3.231821675072472054e-05
1.640620310155077505e+03 3.204115991973380744e-05
1.641520760380190040e+03 3.176834036854207853e-05
1.642421210605302576e+03 3.149964782768299558e-05
1.643321660830415112e+03 3.123497656777762555e-05
1.644222111055527648e+03 3.097422513745635834e-05
1.645122561280640184e+03 3.071729612037881190e-05
1.646023011505752720e+03 3.046409590971265173e-05
1.646923461730865256e+03 3.021453449857640309e-05
1.647823911955978019e+03 2.996852528510908219e-05
1.648724362181090555e+03 2.972598489095631090e-05
1.649624812406203091e+03 2.948683299206983081e-05
1.650525262631315627e+03 2.925099216082917443e-05
1.651425712856428163e+03 2.901838771858342400e-05
1.652326163081540699e+03 2.878894759778842033e-05
1.653226613306653235e+03 2.856260221299871188e-05
1.654127063531765771e+03 2.833928434002988187e-05
1.655027513756878307e+03 2.811892900267349898e-05
1.655927963981990843e+03 2.790147336640013049e-05
1.656828414207103378e+03 2.768685663852986869e-05
1.657728864432216142e+03 2.747501997440136845e-05
1.658629314657328678e+03 2.726590638910329260e-05
1.659529764882441214e+03 2.705946067437283440e-05
1.660430215107553749e+03 2.685562932029478573e-05
1.661330665332666285e+03 2.665436044146910050e-05
1.662231115557778821e+03 2.645560370733735927e-05
1.663131565782891357e+03 2.625931027638459266e-05
1.664032016008003893e+03 2.606543273395593976e-05
1.664932466233116429e+03 2.587392503344923769e-05
1.665832916458228965e+03 2.568474244065831964e-05
1.666733366683341501e+03 2.549784148106215789e-05
1.667633816908454037e+03 2.531317988987513787e-05
1.668534267133566800e+03 2.513071656467517182e-05
1.669434717358679336e+03 2.495041152045408958e-05
1.670335167583791872e+03 2.477222584693413051e-05
1.671235617808904408e+03 2.459612166801626145e-05
1.672136068034016944e+03 2.442206210322500900e-05
1.673036518259129480e+03 2.425001123103450102e-05
1.673936968484242016e+03 2.407993405395909478e-05
1.674837418709354552e+03 2.391179646530829596e-05
1.675737868934467087e+03 2.374556521750581552e-05
1.676638319159579623e+03 2.358120789188456793e-05
1.677538769384692159e+03 2.341869286987172162e-05
1.678439219609804923e+03 2.325798930548658272e-05
1.679339669834917459e+03 2.309906709907581774e-05
1.680240120060029994e+03 2.294189687222007205e-05
1.681140570285142530e+03 2.278644994374458735e-05
1.682041020510255066e+03 2.263269830677779197e-05
1.682941470735367602e+03 2.248061460679635942e-05
1.683841920960480138e+03 2.233017212061032088e-05
1.684742371185592674e+03 2.218134473623257512e-05
1.685642821410705210e+03 2.203410693359219560e-05
1.686543271635817746e+03 2.188843376604307102e-05
1.687443721860930282e+03 2.174430084263116554e-05
1.688344172086043045e+03 2.160168431107891779e-05
1.689244622311155581e+03 2.146056084145332751e-05
1.690145072536268117e+03 2.132090761048175819e-05
1.691045522761380653e+03 2.118270228648366481e-05
1.691945972986493189e+03 2.104592301489078919e-05
1.692846423211605725e+03 2.091054840432404578e-05
1.693746873436718261e+03 2.077655751320185281e-05
1.694647323661830796e+03 2.064392983685547708e-05
1.695547773886943332e+03 2.051264529512650988e-05
1.696448224112055868e+03 2.038268422042410224e-05
1.697348674337168404e+03 2.025402734622191867e-05
1.698249124562281168e+03 2.012665579597237327e-05
1.699149574787393703e+03 2.000055107242219336e-05
1.700050025012506239e+03 1.987569504730881938e-05
1.700950475237618775e+03 1.975206995142250946e-05
1.701850925462731311e+03 1.962965836501578184e-05
1.702751375687843847e+03 1.950844320854874637e-05
1.703651825912956383e+03 1.938840773375054207e-05
1.704552276138068919e+03 1.926953551498949096e-05
1.705452726363181455e+03 1.915181044093216815e-05
1.706353176588293991e+03 1.903521670648611276e-05
1.707253626813406527e+03 1.891973880500711798e-05
1.708154077038519290e+03 1.880536152076741751e-05
1.709054527263631826e+03 1.869206992166747529e-05
1.709954977488744362e+03 1.857984935218614381e-05
1.710855427713856898e+03 1.846868542655739697e-05
1.711755877938969434e+03 1.835856402216378146e-05
1.712656328164081970e+03 1.824947127314143991e-05
1.713556778389194506e+03 1.814139356418426144e-05
1.714457228614307041e+03 1.803431752454065425e-05
1.715357678839419577e+03 1.792823002219844414e-05
1.716258129064532113e+03 1.782311815824532582e-05
1.717158579289644649e+03 1.771896926140290507e-05
1.718059029514757185e+03 1.761577088272479424e-05
1.718959479739869948e+03 1.751351079045468864e-05
1.719859929964982484e+03 1.741217696503561446e-05
1.720760380190095020e+03 1.731175759426880687e-05
1.721660830415207556e+03 1.721224106861188097e-05
1.722561280640320092e+03 1.711361597661725437e-05
1.723461730865432628e+03 1.701587110049751305e-05
1.724362181090545164e+03 1.691899541182274820e-05
1.725262631315657700e+03 1.682297806733703004e-05
1.726163081540770236e+03 1.672780840489483499e-05
1.727063531765882772e+03 1.663347593951042982e-05
1.727963981990995308e+03 1.653997035951782065e-05
1.728864432216108071e+03 1.644728152283694367e-05
1.729764882441220607e+03 1.635539945334265845e-05
1.730665332666333143e+03 1.626431433733241055e-05
1.731565782891445679e+03 1.617401652008937496e-05
1.732466233116558215e+03 1.608449650253919336e-05
1.733366683341670750e+03 1.599574493799509417e-05
1.734267133566783286e+03 1.590775262898996560e-05
1.735167583791895822e+03 1.582051052419222061e-05
1.736068034017008358e+03 1.573400971540183521e-05
1.736968484242120894e+03 1.564824143462533024e-05
1.737868934467233430e+03 1.556319705122626105e-05
1.738769384692346193e+03 1.547886806914903316e-05
1.739669834917458729e+03 1.539524612421350612e-05
1.740570285142571265e+03 1.531232298147884398e-05
1.741470735367683801e+03 1.523009053267315662e-05
1.742371185592796337e+03 1.514854079368825234e-05
1.743271635817908873e+03 1.506766590213700836e-05
1.744172086043021409e+03 1.498745811497051295e-05
1.745072536268133945e+03 1.490790980615465236e-05
1.745972986493246481e+03 1.482901346440352687e-05
1.746873436718359017e+03 1.475076169096779869e-05
1.747773886943471553e+03 1.467314719747705845e-05
1.748674337168584316e+03 1.459616280383343549e-05
1.749574787393696852e+03 1.451980143615622337e-05
1.750475237618809388e+03 1.444405612477567041e-05
1.751375687843921924e+03 1.436892000227340795e-05
1.752276138069034459e+03 1.429438630156945184e-05
1.753176588294146995e+03 1.422044835405465406e-05
1.754077038519259531e+03 1.414709958776515866e-05
1.754977488744372067e+03 1.407433352560059002e-05
1.755877938969484603e+03 1.400214378358237354e-05
1.756778389194597139e+03 1.393052406915263262e-05
1.757678839419709675e+03 1.385946817951079720e-05
1.758579289644822438e+03 1.378896999998937910e-05
1.759479739869934974e+03 1.371902350246520932e-05
1.760380190095047510e+03 1.364962274380674865e-05
1.761280640320160046e+03 1.358076186435578962e-05
1.762181090545272582e+03 1.351243508644375295e-05
1.763081540770385118e+03 1.344463671293955284e-05
1.763981990995497654e+03 1.337736112583008502e-05
1.764882441220610190e+03 1.331060278483169744e-05
1.765782891445722726e+03 1.324435622603172902e-05
1.766683341670835262e+03 1.317861606055984700e-05
1.767583791895947797e+03 1.311337697328732617e-05
1.768484242121060333e+03 1.304863372155472751e-05
1.769384692346173097e+03 1.298438113392733569e-05
1.770285142571285633e+03 1.292061410897516060e-05
1.771185592796398169e+03 1.285732761408103493e-05
1.772086043021510704e+03 1.279451668427207971e-05
1.772986493246623240e+03 1.273217642107642499e-05
1.773886943471735776e+03 1.267030199140388794e-05
1.774787393696848312e+03 1.260888862644916858e-05
1.775687843921960848e+03 1.254793162061851500e-05
1.776588294147073384e+03 1.248742633047812520e-05
1.777488744372185920e+03 1.242736817372382467e-05
1.778389194597298456e+03 1.236775262817241958e-05
1.779289644822411219e+03 1.230857523077238597e-05
1.780190095047523755e+03 1.224983157663654123e-05
1.781090545272636291e+03 1.219151731809144442e-05
1.781990995497748827e+03 1.213362816374827902e-05
1.782891445722861363e+03 1.207615987759137440e-05
1.783791895947973899e+03 1.201910827808417433e-05
1.784692346173086435e+03 1.196246923729380982e-05
1.785592796398198971e+03 1.190623868003277017e-05
1.786493246623311506e+03 1.185041258301700300e-05
1.787393696848424042e+03 1.179498697404074833e-05
1.788294147073536578e+03 1.173995793116734767e-05
1.789194597298649342e+03 1.168532158193609592e-05
1.790095047523761878e+03 1.163107410258358429e-05
1.790995497748874413e+03 1.157721171728052199e-05
1.791895947973986949e+03 1.152373069738375522e-05
1.792796398199099485e+03 1.147062736070124085e-05
1.793696848424212021e+03 1.141789807077186679e-05
1.794597298649324557e+03 1.136553923615893842e-05
1.795497748874437093e+03 1.131354730975642812e-05
1.796398199099549629e+03 1.126191878810886373e-05
1.797298649324662165e+03 1.121065021074310253e-05
1.798199099549774701e+03 1.115973815951387297e-05
1.799099549774887464e+03 1.110917925795994658e-05
1.800000000000000000e+03 1.105897017067332546e-05
