0.000000000000000000e+00 9.990163849943689903e-04
9.004502251125562351e-01 1.302886071148936196e-03
1.800900450225112470e+00 1.731457433753162776e-03
2.701350675337668594e+00 2.316477972016411750e-03
3.601800900450224940e+00 3.029541975165512754e-03
4.502251125562780842e+00 3.691760206349858301e-03
5.402701350675337189e+00 4.016358026142844220e-03
6.303151575787893535e+00 3.847649862748316659e-03
7.203601800900449881e+00 3.272129392632132459e-03
8.104052026013006227e+00 2.559471883243038832e-03
9.004502251125561685e+00 1.936184310349527626e-03
9.904952476238118919e+00 1.464702046525097594e-03
1.080540270135067438e+01 1.121826838486954811e-03
1.170585292646323161e+01 8.735816070311329439e-04
1.260630315157578707e+01 6.932880217232686038e-04
1.350675337668834430e+01 5.609254106302442042e-04
1.440720360180089976e+01 4.620869381294983539e-04
1.530765382691345522e+01 3.868171955050462001e-04
1.620810405202601245e+01 3.283961772341111268e-04
1.710855427713856969e+01 2.823458341522055689e-04
1.800900450225112337e+01 2.455938740106965038e-04
1.890945472736368060e+01 2.158949787865052997e-04
1.980990495247623784e+01 1.914744970763808602e-04
2.071035517758879507e+01 1.709064985019484537e-04
2.161080540270134875e+01 1.531856584080040252e-04
2.251125562781390599e+01 1.377745986524798148e-04
2.341170585292646322e+01 1.244222858987454694e-04
2.431215607803901690e+01 1.128832467463210986e-04
2.521260630315157414e+01 1.028583020280511118e-04
2.611305652826413137e+01 9.412529352607185412e-05
2.701350675337668861e+01 8.654098705038224622e-05
2.791395697848924229e+01 7.997015037155178027e-05
2.881440720360179952e+01 7.426883467180611913e-05
2.971485742871435676e+01 6.926848827557469156e-05
3.061530765382691044e+01 6.477571699533611160e-05
3.151575787893946767e+01 6.067208542925774800e-05
3.241620810405202491e+01 5.695675448018690538e-05
3.331665832916458214e+01 5.362173540128941870e-05
3.421710855427713938e+01 5.063164151956600205e-05
3.511755877938969661e+01 4.796834816402790054e-05
3.601800900450224674e+01 4.560635989529409831e-05
3.691845922961480397e+01 4.348622043019640434e-05
3.781890945472736121e+01 4.147415402589004748e-05
3.871935967983991844e+01 3.941907535344960501e-05
3.961980990495247568e+01 3.732933954526088019e-05
4.052026013006503291e+01 3.537135025568790799e-05
4.142071035517759015e+01 3.366453414893741722e-05
4.232116058029014027e+01 3.219515252148412985e-05
4.322161080540269751e+01 3.085796666412756844e-05
4.412206103051525474e+01 2.956637514086340904e-05
4.502251125562781198e+01 2.832156131448691105e-05
4.592296148074036921e+01 2.710809349364382183e-05
4.682341170585292645e+01 2.586229567478214418e-05
4.772386193096548368e+01 2.461052774143964974e-05
4.862431215607803381e+01 2.344531315707935597e-05
4.952476238119059104e+01 2.241337446055615050e-05
5.042521260630314828e+01 2.151493468963719280e-05
5.132566283141570551e+01 2.073891538300142405e-05
5.222611305652826275e+01 2.007972329518148497e-05
5.312656328164081998e+01 1.954019157372046881e-05
5.402701350675337721e+01 1.912461694496897380e-05
5.492746373186592734e+01 1.881431826806738422e-05
5.582791395697848458e+01 1.852816000033925413e-05
5.672836418209104181e+01 1.813366025448353696e-05
5.762881440720359905e+01 1.756059521746265021e-05
5.852926463231615628e+01 1.686639361776928636e-05
5.942971485742871351e+01 1.616929303459000531e-05
6.033016508254127075e+01 1.556317117756638750e-05
6.123061530765382088e+01 1.508126736059914124e-05
6.213106553276637811e+01 1.470427693240581152e-05
6.303151575787893535e+01 1.436977343084329881e-05
6.393196598299149258e+01 1.400790365593587864e-05
6.483241620810404982e+01 1.360458451128468055e-05
6.573286643321659994e+01 1.318914147780408506e-05
6.663331665832916428e+01 1.277658209847163203e-05
6.753376688344171441e+01 1.236467080214349599e-05
6.843421710855427875e+01 1.196934895877664265e-05
6.933466733366682888e+01 1.162128973252694389e-05
7.023511755877939322e+01 1.133820773061139432e-05
7.113556778389194335e+01 1.112343374571465864e-05
7.203601800900449348e+01 1.096951805126777349e-05
7.293646823411705782e+01 1.085061957216008942e-05
7.383691845922960795e+01 1.072544237693274191e-05
7.473736868434217229e+01 1.056973886190448469e-05
7.563781890945472242e+01 1.038281310831858566e-05
7.653826913456728676e+01 1.014858781237466381e-05
7.743871935967983688e+01 9.859513149656386533e-06
7.833916958479238701e+01 9.558525475999319544e-06
7.923961980990495135e+01 9.292149987333400322e-06
8.014007003501750148e+01 9.078140072424796390e-06
8.104052026013006582e+01 8.922210332849600826e-06
8.194097048524261595e+01 8.827624827104475099e-06
8.284142071035518029e+01 8.791571405079261277e-06
8.374187093546773042e+01 8.800009378263962099e-06
8.464232116058028055e+01 8.831588244162946681e-06
8.554277138569284489e+01 8.863963473331574564e-06
8.644322161080539502e+01 8.865001280651544754e-06
8.734367183591795936e+01 8.799332010433524637e-06
8.824412206103050949e+01 8.666662399063385214e-06
8.914457228614307382e+01 8.513260851596775213e-06
9.004502251125562395e+01 8.392263810149578295e-06
9.094547273636817408e+01 8.311618448825648089e-06
9.184592296148073842e+01 8.240329384330863331e-06
9.274637318659328855e+01 8.159163166586313833e-06
9.364682341170585289e+01 8.098822351280258368e-06
9.454727363681840302e+01 8.116396325258744030e-06
9.544772386193096736e+01 8.234603153093494445e-06
9.634817408704351749e+01 8.395738417806225288e-06
9.724862431215606762e+01 8.462791867932351964e-06
9.814907453726863196e+01 8.327150162560393532e-06
9.904952476238118209e+01 8.009142393168859454e-06
9.994997498749374643e+01 7.610658775722740915e-06
1.008504252126062966e+02 7.232252847975497283e-06
1.017508754377188609e+02 6.934709572611685967e-06
1.026513256628314110e+02 6.736428786219732649e-06
1.035517758879439612e+02 6.626394882859626269e-06
1.044522261130565255e+02 6.577685637759145684e-06
1.053526763381690756e+02 6.554156130069971450e-06
1.062531265632816400e+02 6.527204354335069578e-06
1.071535767883941901e+02 6.508715248237396527e-06
1.080540270135067544e+02 6.535435909543700984e-06
1.089544772386193046e+02 6.611784613380045830e-06
1.098549274637318547e+02 6.700158196462697893e-06
1.107553776888444190e+02 6.763167474824376787e-06
1.116558279139569692e+02 6.774978821360797575e-06
1.125562781390695335e+02 6.713351292305367117e-06
1.134567283641820836e+02 6.597766253240853016e-06
1.143571785892946480e+02 6.491746487231250795e-06
1.152576288144071981e+02 6.444821837512000098e-06
1.161580790395197482e+02 6.450569488021204602e-06
1.170585292646323126e+02 6.452277631778246990e-06
1.179589794897448627e+02 6.381526922104541495e-06
1.188594297148574270e+02 6.213514113745502226e-06
1.197598799399699772e+02 5.989194864355564294e-06
1.206603301650825415e+02 5.777814720824616229e-06
1.215607803901950916e+02 5.632680577005198703e-06
1.224612306153076418e+02 5.576777199676159823e-06
1.233616808404202061e+02 5.611834507362610698e-06
1.242621310655327562e+02 5.725056804990688936e-06
1.251625812906453206e+02 5.891773078493707584e-06
1.260630315157578707e+02 6.091911546678632868e-06
1.269634817408704350e+02 6.315513938540647030e-06
1.278639319659829852e+02 6.544081059125657082e-06
1.287643821910955353e+02 6.745614379755023160e-06
1.296648324162080996e+02 6.875782768967306173e-06
1.305652826413206640e+02 6.884249202074024384e-06
1.314657328664331999e+02 6.762063499325839032e-06
1.323661830915457642e+02 6.561502029998080349e-06
1.332666333166583286e+02 6.359312306174570737e-06
1.341670835417708929e+02 6.207481719047030377e-06
1.350675337668834288e+02 6.119972618199778910e-06
1.359679839919959932e+02 6.092029796543710825e-06
1.368684342171085575e+02 6.086467886524844332e-06
1.377688844422210934e+02 6.046062476558611722e-06
1.386693346673336578e+02 5.956943316189481788e-06
1.395697848924462221e+02 5.867607298976137235e-06
1.404702351175587864e+02 5.820715984617856731e-06
1.413706853426713224e+02 5.810387655874402377e-06
1.422711355677838867e+02 5.813400290183132014e-06
1.431715857928964510e+02 5.825541837038240571e-06
1.440720360180089870e+02 5.864246011413281610e-06
1.449724862431215513e+02 5.951771055484978937e-06
1.458729364682341156e+02 6.092778353058620677e-06
1.467733866933466800e+02 6.255143366758050039e-06
1.476738369184592159e+02 6.370490586242236791e-06
1.485742871435717802e+02 6.381439038879605550e-06
1.494747373686843446e+02 6.298825623407918396e-06
1.503751875937968805e+02 6.161091225453340515e-06
1.512756378189094448e+02 5.977750772486248062e-06
1.521760880440220092e+02 5.771076217697804503e-06
1.530765382691345735e+02 5.602777115339800029e-06
1.539769884942471094e+02 5.519429443601380915e-06
1.548774387193596738e+02 5.509090631543557042e-06
1.557778889444722381e+02 5.532545606862510378e-06
1.566783391695847740e+02 5.563841248131683671e-06
1.575787893946973384e+02 5.592039866089588533e-06
1.584792396198099027e+02 5.613773111959861882e-06
1.593796898449224670e+02 5.635757213761700317e-06
1.602801400700350030e+02 5.696266596273291315e-06
1.611805902951475673e+02 5.830059834311835260e-06
1.620810405202601316e+02 6.006808616114262781e-06
1.629814907453726676e+02 6.165249019344477191e-06
1.638819409704852319e+02 6.303541289596925334e-06
1.647823911955977962e+02 6.452371774860607222e-06
1.656828414207103606e+02 6.585738100064277134e-06
1.665832916458228965e+02 6.619889495959644748e-06
1.674837418709354608e+02 6.511223428453789731e-06
1.683841920960480252e+02 6.332604382643159059e-06
1.692846423211605611e+02 6.180719883262743041e-06
1.701850925462731254e+02 6.093458538002907363e-06
1.710855427713856898e+02 6.046693192674011150e-06
1.719859929964982541e+02 5.982814965218437615e-06
1.728864432216107900e+02 5.870917204077335088e-06
1.737868934467233544e+02 5.745589455998457095e-06
1.746873436718359187e+02 5.692072624665253646e-06
1.755877938969484546e+02 5.786678450252432311e-06
1.764882441220610190e+02 6.045409793778579150e-06
1.773886943471735833e+02 6.400493422759439603e-06
1.782891445722861476e+02 6.720790173601019768e-06
1.791895947973986836e+02 6.920338772886912191e-06
1.800900450225112479e+02 7.035568098261541040e-06
1.809904952476238122e+02 7.124116962740546951e-06
1.818909454727363482e+02 7.165693993188501653e-06
1.827913956978489125e+02 7.094478799818355239e-06
1.836918459229614768e+02 6.887130686579984870e-06
1.845922961480740412e+02 6.608560775593662778e-06
1.854927463731865771e+02 6.348490409805450949e-06
1.863931965982991414e+02 6.162889023066013930e-06
1.872936468234117058e+02 6.064631886805709779e-06
1.881940970485242417e+02 6.053064793119325120e-06
1.890945472736368060e+02 6.125838962180883416e-06
1.899949974987493704e+02 6.281838085771641638e-06
1.908954477238619347e+02 6.528982123778872346e-06
1.917958979489744706e+02 6.875315320158266984e-06
1.926963481740870350e+02 7.306592724007237821e-06
1.935967983991995993e+02 7.753191191154874538e-06
1.944972486243121352e+02 8.111826152133607578e-06
1.953976988494246996e+02 8.331077309058350735e-06
1.962981490745372639e+02 8.404876309957586122e-06
1.971985992996498283e+02 8.353480628312429131e-06
1.980990495247623642e+02 8.230202340557097815e-06
1.989994997498749285e+02 8.109791573366873345e-06
1.998999499749874929e+02 8.058708110777318333e-06
2.008004002001000288e+02 8.074926234177796930e-06
2.017008504252125931e+02 8.079912233859953735e-06
2.026013006503251574e+02 7.999758904385464414e-06
2.035017508754377218e+02 7.860143057658415807e-06
2.044022011005502577e+02 7.748509803301429060e-06
2.053026513256628220e+02 7.668488665076688882e-06
2.062031015507753864e+02 7.580348428076127081e-06
2.071035517758879223e+02 7.502095611334455185e-06
2.080040020010004866e+02 7.468131376910633276e-06
2.089044522261130510e+02 7.473280487751252295e-06
2.098049024512256153e+02 7.492489288342200408e-06
2.107053526763381512e+02 7.535247870946781753e-06
2.116058029014507156e+02 7.616146321381691275e-06
2.125062531265632799e+02 7.736728852033314678e-06
2.134067033516758158e+02 7.902287113693795236e-06
2.143071535767883802e+02 8.120587435119499479e-06
2.152076038019009445e+02 8.391772068119914202e-06
2.161080540270135089e+02 8.636355848808597078e-06
2.170085042521260448e+02 8.724863455318317723e-06
2.179089544772386091e+02 8.626450579439995386e-06
2.188094047023511735e+02 8.422926605981974736e-06
2.197098549274637094e+02 8.201993805070589044e-06
2.206103051525762737e+02 7.989956110778834066e-06
2.215107553776888381e+02 7.795869771035219534e-06
2.224112056028014024e+02 7.634216968245975229e-06
2.233116558279139383e+02 7.519681197601638669e-06
2.242121060530265027e+02 7.463484961415464329e-06
2.251125562781390670e+02 7.456528334199428155e-06
2.260130065032516029e+02 7.472397689227237979e-06
2.269134567283641672e+02 7.489171676306320543e-06
2.278139069534767316e+02 7.512540017898081365e-06
2.287143571785892959e+02 7.555875319962668919e-06
2.296148074037018318e+02 7.608750099659312908e-06
2.305152576288143962e+02 7.654735206911164114e-06
2.314157078539269605e+02 7.703611773688491738e-06
2.323161580790394964e+02 7.775009798916824504e-06
2.332166083041520608e+02 7.866111670131496083e-06
2.341170585292646251e+02 7.948128047402651475e-06
2.350175087543771895e+02 7.970384903421286166e-06
2.359179589794897254e+02 7.902445678253201684e-06
2.368184092046022897e+02 7.790658206697343609e-06
2.377188594297148541e+02 7.719882436192019624e-06
2.386193096548273900e+02 7.721129755561422872e-06
2.395197598799399543e+02 7.735104671633053329e-06
2.404202101050525187e+02 7.696862159332896236e-06
2.413206603301650830e+02 7.642684624906542757e-06
2.422211105552776189e+02 7.635534060493917073e-06
2.431215607803901833e+02 7.673612691335132056e-06
2.440220110055027476e+02 7.745176531142014043e-06
2.449224612306152835e+02 7.847460655054748756e-06
2.458229114557278479e+02 7.939096635251898819e-06
2.467233616808404122e+02 7.993028583551049554e-06
2.476238119059529765e+02 8.043086621991906687e-06
2.485242621310655124e+02 8.114424534606937256e-06
2.494247123561780768e+02 8.188189818199695564e-06
2.503251625812906411e+02 8.248815437791945842e-06
2.512256128064031770e+02 8.296742451929405685e-06
2.521260630315157414e+02 8.340736640410282817e-06
2.530265132566283057e+02 8.373930480270393262e-06
2.539269634817408701e+02 8.355995832092259082e-06
2.548274137068534060e+02 8.258977352629985882e-06
2.557278639319659703e+02 8.084970721771806763e-06
2.566283141570785347e+02 7.849064836669503181e-06
2.575287643821910706e+02 7.588626005125551312e-06
2.584292146073036633e+02 7.332037196653867184e-06
2.593296648324161993e+02 7.089735159039305106e-06
2.602301150575287352e+02 6.887918820384996618e-06
2.611305652826413279e+02 6.753298742440923938e-06
2.620310155077538639e+02 6.687493931255143300e-06
2.629314657328663998e+02 6.658015852594759371e-06
2.638319159579789925e+02 6.639539357964152257e-06
2.647323661830915285e+02 6.658243133000065777e-06
2.656328164082040644e+02 6.738934409419256492e-06
2.665332666333166571e+02 6.863908956359116905e-06
2.674337168584291931e+02 7.021167377915963998e-06
2.683341670835417858e+02 7.246531164615177119e-06
2.692346173086543217e+02 7.581649728090975088e-06
2.701350675337668577e+02 8.007989807751577632e-06
2.710355177588794504e+02 8.440143220000477262e-06
2.719359679839919863e+02 8.790177580161981198e-06
2.728364182091045222e+02 9.062569921300034215e-06
2.737368684342171150e+02 9.346426184283873037e-06
2.746373186593296509e+02 9.690314389509092842e-06
2.755377688844421868e+02 1.001121205428770646e-05
2.764382191095547796e+02 1.014309222180297958e-05
2.773386693346673155e+02 1.000516765919057229e-05
2.782391195597798514e+02 9.670773066595353344e-06
2.791395697848924442e+02 9.288701620687199578e-06
2.800400200100049801e+02 8.979738858946142478e-06
2.809404702351175729e+02 8.783598301714678691e-06
2.818409204602301088e+02 8.664444893398985244e-06
2.827413706853426447e+02 8.597693529017378151e-06
2.836418209104552375e+02 8.588670043884959161e-06
2.845422711355677734e+02 8.623670366358481693e-06
2.854427213606803093e+02 8.698915615001388550e-06
2.863431715857929021e+02 8.818085577151316500e-06
2.872436218109054380e+02 8.943469395012149895e-06
2.881440720360179739e+02 9.029941906459823598e-06
2.890445222611305667e+02 9.082696300291046457e-06
2.899449724862431026e+02 9.141889521681945466e-06
2.908454227113556385e+02 9.247310545489861167e-06
2.917458729364682313e+02 9.402714396608648136e-06
2.926463231615807672e+02 9.564322348061453323e-06
2.935467733866933600e+02 9.696622684388247039e-06
2.944472236118058959e+02 9.793925349310217236e-06
2.953476738369184318e+02 9.819107499726558528e-06
2.962481240620310246e+02 9.731615110561685436e-06
2.971485742871435605e+02 9.590075189038610708e-06
2.980490245122560964e+02 9.483084355926239839e-06
2.989494747373686891e+02 9.425312964072756963e-06
2.998499249624812251e+02 9.416181461266974760e-06
3.007503751875937610e+02 9.492026120990139815e-06
3.016508254127063537e+02 9.673576465785441454e-06
3.025512756378188897e+02 9.926845419926189963e-06
3.034517258629314256e+02 1.018989134811145175e-05
3.043521760880440183e+02 1.039628715885814273e-05
3.052526263131565543e+02 1.049952139604856307e-05
3.061530765382691470e+02 1.051017524633285596e-05
3.070535267633816829e+02 1.045624406826668845e-05
3.079539769884942189e+02 1.034567903052787290e-05
3.088544272136068116e+02 1.019949582946020776e-05
3.097548774387193475e+02 1.008388745306334392e-05
3.106553276638318835e+02 1.006931324472050450e-05
3.115557778889444762e+02 1.012773272594129379e-05
3.124562281140570121e+02 1.014815260095448807e-05
3.133566783391695481e+02 1.006801376655659907e-05
3.142571285642821408e+02 9.909432159084676002e-06
3.151575787893946767e+02 9.748907577912595642e-06
3.160580290145072127e+02 9.674044108048077969e-06
3.169584792396198054e+02 9.725564860721764090e-06
3.178589294647323413e+02 9.877114351729654424e-06
3.187593796898449341e+02 1.007495045916494703e-05
3.196598299149574700e+02 1.027430359129624219e-05
3.205602801400700059e+02 1.043405737990845411e-05
3.214607303651825987e+02 1.052888823769635479e-05
3.223611805902951346e+02 1.055124756926556003e-05
3.232616308154076705e+02 1.051901092326712319e-05
3.241620810405202633e+02 1.047322534401439149e-05
3.250625312656327992e+02 1.042967925018614499e-05
3.259629814907453351e+02 1.036741667184915991e-05
3.268634317158579279e+02 1.028522296802143554e-05
3.277638819409704638e+02 1.020626383168242289e-05
3.286643321660829997e+02 1.016164393408037216e-05
3.295647823911955925e+02 1.016428014173208051e-05
3.304652326163081284e+02 1.018222910043729410e-05
3.313656828414207212e+02 1.015811463088510127e-05
3.322661330665332571e+02 1.005586490176513607e-05
3.331665832916457930e+02 9.907596080978173114e-06
3.340670335167583858e+02 9.776002847195263892e-06
3.349674837418709217e+02 9.727111659511110324e-06
3.358679339669834576e+02 9.808351167491720807e-06
3.367683841920960504e+02 1.000650177152330161e-05
3.376688344172085863e+02 1.024872972380566741e-05
3.385692846423211222e+02 1.045062018172553093e-05
3.394697348674337150e+02 1.057226772389576137e-05
3.403701850925462509e+02 1.058866622310463729e-05
3.412706353176587868e+02 1.048006321298624006e-05
3.421710855427713796e+02 1.028582726885633091e-05
3.430715357678839155e+02 1.007432936265638599e-05
3.439719859929965082e+02 9.915103057484835435e-06
3.448724362181090441e+02 9.851803298093119579e-06
3.457728864432215801e+02 9.868622284770809083e-06
3.466733366683341728e+02 9.887254002018793102e-06
3.475737868934467087e+02 9.833861125794878056e-06
3.484742371185592447e+02 9.727703716054177479e-06
3.493746873436718374e+02 9.627706560587831792e-06
3.502751375687843733e+02 9.547403048633170151e-06
3.511755877938969093e+02 9.501324450863959581e-06
3.520760380190095020e+02 9.519874768166360722e-06
3.529764882441220379e+02 9.587004024567894990e-06
3.538769384692345739e+02 9.656388426647520836e-06
3.547773886943471666e+02 9.700636601771780873e-06
3.556778389194597025e+02 9.716280500650982549e-06
3.565782891445722953e+02 9.706877798236697755e-06
3.574787393696848312e+02 9.657043387660728878e-06
3.583791895947973671e+02 9.552535775922960437e-06
3.592796398199099599e+02 9.424883591184917930e-06
3.601800900450224958e+02 9.328343298157340026e-06
3.610805402701350317e+02 9.268665352582144119e-06
3.619809904952476245e+02 9.196191603111003105e-06
3.628814407203601604e+02 9.096686714216479131e-06
3.637818909454726963e+02 9.032682048188612247e-06
3.646823411705852891e+02 9.079361971696869315e-06
3.655827913956978250e+02 9.276446258826896127e-06
3.664832416208103609e+02 9.629314592641230900e-06
3.673836918459229537e+02 1.009576069276902301e-05
3.682841420710354896e+02 1.057026872969595510e-05
3.691845922961480824e+02 1.093969842985797637e-05
3.700850425212606183e+02 1.116546563394306724e-05
3.709854927463731542e+02 1.129092356172446304e-05
3.718859429714857470e+02 1.139098631051657445e-05
3.727863931965982829e+02 1.150516080471888289e-05
3.736868434217108188e+02 1.159905766634357012e-05
3.745872936468234116e+02 1.160506681371868105e-05
3.754877438719359475e+02 1.150455712197422736e-05
3.763881940970484834e+02 1.136354898121209391e-05
3.772886443221610762e+02 1.126801021874613687e-05
3.781890945472736121e+02 1.123579897817741313e-05
3.790895447723861480e+02 1.122119336039135958e-05
3.799899949974987408e+02 1.119553014377538621e-05
3.808904452226112767e+02 1.120300896394558750e-05
3.817908954477238694e+02 1.127691644820532834e-05
3.826913456728364054e+02 1.137717435017326018e-05
3.835917958979489413e+02 1.145015405451743597e-05
3.844922461230615340e+02 1.148543763776609833e-05
3.853926963481740700e+02 1.147155093213148311e-05
3.862931465732866059e+02 1.140637683510626674e-05
3.871935967983991986e+02 1.131910136246188393e-05
3.880940470235117346e+02 1.122285261333237879e-05
3.889944972486242705e+02 1.111494190385780905e-05
3.898949474737368632e+02 1.102585875859264891e-05
3.907953976988493991e+02 1.101416128167983117e-05
3.916958479239619351e+02 1.111061452325520958e-05
3.925962981490745278e+02 1.128800653114460403e-05
3.934967483741870637e+02 1.148324869710897117e-05
3.943971985992996565e+02 1.161655594938268277e-05
3.952976488244121924e+02 1.167637815896402714e-05
3.961980990495247283e+02 1.173497858503589388e-05
3.970985492746373211e+02 1.183454387900388828e-05
3.979989994997498570e+02 1.192010877702166921e-05
3.988994497248623929e+02 1.190709986407283491e-05
3.997998999499749857e+02 1.181455267386489358e-05
4.007003501750875216e+02 1.172341184096657389e-05
4.016008004002000575e+02 1.166642130908749249e-05
4.025012506253126503e+02 1.163376096104568181e-05
4.034017008504251862e+02 1.161138662502497010e-05
4.043021510755377221e+02 1.160229288133111765e-05
4.052026013006503149e+02 1.166355395556359324e-05
4.061030515257628508e+02 1.186985453863907672e-05
4.070035017508754436e+02 1.221731005513913581e-05
4.079039519759879795e+02 1.262148406976466652e-05
4.088044022011005154e+02 1.298970732622733095e-05
4.097048524262131082e+02 1.324947974985061089e-05
4.106053026513256441e+02 1.334684394252886133e-05
4.115057528764381800e+02 1.330853719806794748e-05
4.124062031015507728e+02 1.323859906190110802e-05
4.133066533266633087e+02 1.321577189295512352e-05
4.142071035517758446e+02 1.327001544525253612e-05
4.151075537768884374e+02 1.341417058702922895e-05
4.160080040020009733e+02 1.364453250172809134e-05
4.169084542271135092e+02 1.391213406231809080e-05
4.178089044522261020e+02 1.413756529072525761e-05
4.187093546773386379e+02 1.427280840290555672e-05
4.196098049024512306e+02 1.428335180079160817e-05
4.205102551275637666e+02 1.409858268526359811e-05
4.214107053526763025e+02 1.369406982110855024e-05
4.223111555777888952e+02 1.319244590575754230e-05
4.232116058029014312e+02 1.275269768703942395e-05
4.241120560280139671e+02 1.244270391751421170e-05
4.250125062531265598e+02 1.228546876326590887e-05
4.259129564782390958e+02 1.229266161834975892e-05
4.268134067033516317e+02 1.244192335803436208e-05
4.277138569284642244e+02 1.268376382633289610e-05
4.286143071535767604e+02 1.297847950013479183e-05
4.295147573786892963e+02 1.331362597690313458e-05
4.304152076038018890e+02 1.367367802701589126e-05
4.313156578289144250e+02 1.400298086394439700e-05
4.322161080540270177e+02 1.422241514049616972e-05
4.331165582791395536e+02 1.428260484440504486e-05
4.340170085042520896e+02 1.416743937579238353e-05
4.349174587293646823e+02 1.391474682362042460e-05
4.358179089544772182e+02 1.360472536901198760e-05
4.367183591795897541e+02 1.331956760445746315e-05
4.376188094047023469e+02 1.313085593810742577e-05
4.385192596298148828e+02 1.306934489395527324e-05
4.394197098549274187e+02 1.312728777202089014e-05
4.403201600800400115e+02 1.328209755183045013e-05
4.412206103051525474e+02 1.353514832303237897e-05
4.421210605302650833e+02 1.389198141519694126e-05
4.430215107553776761e+02 1.430641992155094633e-05
4.439219609804902120e+02 1.468532629263187970e-05
4.448224112056028048e+02 1.494898490765269810e-05
4.457228614307153407e+02 1.507775410877090316e-05
4.466233116558278766e+02 1.509622452872904001e-05
4.475237618809404694e+02 1.502748636415635359e-05
4.484242121060530053e+02 1.492124606776988762e-05
4.493246623311655412e+02 1.484314672631543561e-05
4.502251125562781340e+02 1.479145959960932612e-05
4.511255627813906699e+02 1.473502173403202104e-05
4.520260130065032058e+02 1.468870606050696196e-05
4.529264632316157986e+02 1.469892821938760733e-05
4.538269134567283345e+02 1.482401417659657170e-05
4.547273636818408704e+02 1.510108457230616903e-05
4.556278139069534632e+02 1.548987251656464440e-05
4.565282641320659991e+02 1.587087190461090779e-05
4.574287143571785919e+02 1.614701438561719874e-05
4.583291645822911278e+02 1.632192299423303712e-05
4.592296148074036637e+02 1.643459603955077289e-05
4.601300650325162565e+02 1.642780484433610253e-05
4.610305152576287924e+02 1.620141667750776729e-05
4.619309654827413283e+02 1.576789793289851726e-05
4.628314157078539210e+02 1.523209232000084906e-05
4.637318659329664570e+02 1.471542256243885038e-05
4.646323161580789929e+02 1.434251541291309634e-05
4.655327663831915856e+02 1.418906562444041398e-05
4.664332166083041216e+02 1.426096182772235567e-05
4.673336668334167143e+02 1.451941064360427756e-05
4.682341170585292502e+02 1.489774587563380868e-05
4.691345672836417862e+02 1.528336424178273071e-05
4.700350175087543789e+02 1.557524863707366022e-05
4.709354677338669148e+02 1.576711095859218819e-05
4.718359179589794508e+02 1.592885182598414653e-05
4.727363681840920435e+02 1.610951215935909988e-05
4.736368184092045794e+02 1.629748596657744136e-05
4.745372686343171154e+02 1.645155910868683748e-05
4.754377188594297081e+02 1.651421538059769323e-05
4.763381690845422440e+02 1.645277921418662468e-05
4.772386193096547800e+02 1.631767381196171489e-05
4.781390695347673727e+02 1.621025473901396659e-05
4.790395197598799086e+02 1.619576665479642311e-05
4.799399699849925014e+02 1.628749007763662300e-05
4.808404202101050373e+02 1.645294857210277735e-05
4.817408704352175732e+02 1.662362412641813276e-05
4.826413206603301660e+02 1.675031230701076517e-05
4.835417708854427019e+02 1.681192902447831714e-05
4.844422211105552378e+02 1.679637030695978520e-05
4.853426713356678306e+02 1.671512707041419361e-05
4.862431215607803665e+02 1.661223887879582955e-05
4.871435717858929024e+02 1.653890481154062634e-05
4.880440220110054952e+02 1.652840482698618473e-05
4.889444722361180311e+02 1.658432509681828312e-05
4.898449224612305670e+02 1.669370665016203160e-05
4.907453726863431598e+02 1.684683832241404844e-05
4.916458229114556957e+02 1.705697160291600221e-05
4.925462731365682885e+02 1.733191665157376865e-05
4.934467233616808244e+02 1.760392263509507455e-05
4.943471735867933603e+02 1.776353003963637380e-05
4.952476238119059531e+02 1.779417826826942527e-05
4.961480740370184890e+02 1.778081831179581637e-05
4.970485242621310249e+02 1.778876936454373934e-05
4.979489744872436177e+02 1.782881949946521843e-05
4.988494247123561536e+02 1.787365653857745387e-05
4.997498749374686895e+02 1.788929993871135051e-05
5.006503251625812823e+02 1.787043443281138006e-05
5.015507753876938182e+02 1.782469648541442744e-05
5.024512256128063541e+02 1.777641244485162175e-05
5.033516758379189469e+02 1.778008789009156271e-05
5.042521260630314828e+02 1.787118633688799597e-05
5.051525762881440755e+02 1.802716050041912655e-05
5.060530265132566115e+02 1.818380602578193467e-05
5.069534767383691474e+02 1.826340710068149502e-05
5.078539269634817401e+02 1.826753042891834450e-05
5.087543771885942760e+02 1.831621135825438684e-05
5.096548274137068120e+02 1.852640711292583131e-05
5.105552776388194047e+02 1.891604158305285781e-05
5.114557278639319406e+02 1.936581725781206189e-05
5.123561780890445334e+02 1.965925519951545658e-05
5.132566283141570693e+02 1.966275784242832697e-05
5.141570785392696052e+02 1.948261225684675430e-05
5.150575287643821412e+02 1.932539820364565089e-05
5.159579789894946771e+02 1.926019330809123278e-05
5.168584292146073267e+02 1.922194503014278160e-05
5.177588794397198626e+02 1.918373955570916927e-05
5.186593296648323985e+02 1.921329557608542451e-05
5.195597798899449344e+02 1.934027087319010029e-05
5.204602301150574704e+02 1.946417320836379825e-05
5.213606803401700063e+02 1.946861579357389558e-05
5.222611305652826559e+02 1.936663175203962863e-05
5.231615807903951918e+02 1.924419462637845358e-05
5.240620310155077277e+02 1.915439028054493552e-05
5.249624812406202636e+02 1.909708312892785119e-05
5.258629314657327996e+02 1.908304201632901134e-05
5.267633816908454492e+02 1.912693783687524615e-05
5.276638319159579851e+02 1.921485404622842445e-05
5.285642821410705210e+02 1.935285152870781648e-05
5.294647323661830569e+02 1.955706362816914243e-05
5.303651825912955928e+02 1.978119858550256061e-05
5.312656328164081287e+02 1.990582501402088906e-05
5.321660830415207784e+02 1.984772124784482583e-05
5.330665332666333143e+02 1.963144596578546167e-05
5.339669834917458502e+02 1.937280135498780292e-05
5.348674337168583861e+02 1.920520686662073674e-05
5.357678839419709220e+02 1.921043135132912718e-05
5.366683341670835716e+02 1.940811107089655756e-05
5.375687843921961075e+02 1.977720041354270571e-05
5.384692346173086435e+02 2.028338732669839606e-05
5.393696848424211794e+02 2.087763430081926989e-05
5.402701350675337153e+02 2.145170518841738367e-05
5.411705852926462512e+02 2.186625487616526838e-05
5.420710355177589008e+02 2.209595361071652967e-05
5.429714857428714367e+02 2.226675821919134744e-05
5.438719359679839727e+02 2.246998782576346319e-05
5.447723861930965086e+02 2.265246545227943362e-05
5.456728364182090445e+02 2.274717354604124716e-05
5.465732866433215804e+02 2.281885627265323006e-05
5.474737368684342300e+02 2.300207654663193212e-05
5.483741870935467659e+02 2.331356645230847556e-05
5.492746373186593019e+02 2.365482411442439834e-05
5.501750875437718378e+02 2.395147263513057191e-05
5.510755377688843737e+02 2.420058290377290691e-05
5.519759879939970233e+02 2.445524429299758651e-05
5.528764382191095592e+02 2.475028864232890893e-05
5.537768884442220951e+02 2.506272640502901823e-05
5.546773386693346310e+02 2.540759209401022365e-05
5.555777888944471670e+02 2.584138864855299556e-05
5.564782391195597029e+02 2.633498493147089434e-05
5.573786893446723525e+02 2.679557892198471881e-05
5.582791395697848884e+02 2.718710004551658525e-05
5.591795897948974243e+02 2.754264838335455636e-05
5.600800400200099602e+02 2.790469134840881135e-05
5.609804902451224962e+02 2.830061951476531713e-05
5.618809404702351458e+02 2.870115618670657185e-05
5.627813906953476817e+02 2.906140826419996545e-05
5.636818409204602176e+02 2.935886024226602744e-05
5.645822911455727535e+02 2.957483563030290747e-05
5.654827413706852894e+02 2.971006573967448203e-05
5.663831915957978254e+02 2.983288550174567792e-05
5.672836418209104750e+02 3.005149966471095776e-05
5.681840920460230109e+02 3.047076391932515796e-05
5.690845422711355468e+02 3.108992615762459804e-05
5.699849924962480827e+02 3.174849687192843659e-05
5.708854427213606186e+02 3.226326638303750793e-05
5.717858929464731546e+02 3.256652938344432066e-05
5.726863431715858042e+02 3.274705594681112501e-05
5.735867933966983401e+02 3.295564079547548439e-05
5.744872436218108760e+02 3.325164305252391290e-05
5.753876938469234119e+02 3.358352309964730473e-05
5.762881440720359478e+02 3.390676245631035171e-05
5.771885942971485974e+02 3.423682603629818244e-05
5.780890445222611334e+02 3.461278401763808344e-05
5.789894947473736693e+02 3.497937972209516920e-05
5.798899449724862052e+02 3.517022997720398479e-05
5.807903951975987411e+02 3.507315214806673641e-05
5.816908454227112770e+02 3.480057834132947660e-05
5.825912956478239266e+02 3.458550762703897720e-05
5.834917458729364625e+02 3.449757277745306319e-05
5.843921960980489985e+02 3.443193149160465763e-05
5.852926463231615344e+02 3.431992226410216586e-05
5.861930965482740703e+02 3.421044207274802286e-05
5.870935467733867199e+02 3.420766291001315083e-05
5.879939969984992558e+02 3.437919031464454768e-05
5.888944472236117917e+02 3.467170810948856023e-05
5.897948974487243277e+02 3.494437908478537519e-05
5.906953476738368636e+02 3.512338980175745711e-05
5.915957978989493995e+02 3.528694166011877095e-05
5.924962481240620491e+02 3.560771131978670949e-05
5.933966983491745850e+02 3.615459498750972744e-05
5.942971485742871209e+02 3.684068264240087851e-05
5.951975987993996569e+02 3.755372460218854466e-05
5.960980490245121928e+02 3.820605382540119430e-05
5.969984992496247287e+02 3.875177056628816810e-05
5.978989494747373783e+02 3.912972594878231332e-05
5.987993996998499142e+02 3.928677056657482519e-05
5.996998499249624501e+02 3.930273684874603830e-05
6.006003001500749860e+02 3.931399440591993363e-05
6.015007503751875220e+02 3.941120259494256429e-05
6.024012006003001716e+02 3.961826262435502174e-05
6.033016508254127075e+02 3.993469166380269648e-05
6.042021010505252434e+02 4.038333598022372063e-05
6.051025512756377793e+02 4.083463679770591120e-05
6.060030015007503152e+02 4.098874058451385433e-05
6.069034517258628512e+02 4.073222996696673640e-05
6.078039019509755008e+02 4.021598776942143956e-05
6.087043521760880367e+02 3.962746058604045644e-05
6.096048024012005726e+02 3.918660560776256077e-05
6.105052526263131085e+02 3.908081639816339927e-05
6.114057028514256444e+02 3.930202242899852267e-05
6.123061530765382940e+02 3.963633764077057175e-05
6.132066033016508300e+02 3.982822774185298996e-05
6.141070535267633659e+02 3.974712509378985019e-05
6.150075037518759018e+02 3.951474736236185176e-05
6.159079539769884377e+02 3.938733347770555389e-05
6.168084042021009736e+02 3.950635069601637309e-05
6.177088544272136232e+02 3.989510240923914620e-05
6.186093046523261592e+02 4.054027506635963791e-05
6.195097548774386951e+02 4.140181006231301682e-05
6.204102051025512310e+02 4.236417628948073091e-05
6.213106553276637669e+02 4.321747569317852217e-05
6.222111055527763028e+02 4.381336316256485543e-05
6.231115557778889524e+02 4.412932606387955445e-05
6.240120060030014884e+02 4.418667095667255269e-05
6.249124562281140243e+02 4.410531309219503171e-05
6.258129064532265602e+02 4.404940338146584177e-05
6.267133566783390961e+02 4.400737296623785048e-05
6.276138069034517457e+02 4.388063022084886210e-05
6.285142571285642816e+02 4.370501355372495805e-05
6.294147073536768175e+02 4.363737573454925031e-05
6.303151575787893535e+02 4.385158754989131925e-05
6.312156078039018894e+02 4.440474309753288557e-05
6.321160580290144253e+02 4.513526914270574929e-05
6.330165082541270749e+02 4.586199507892420101e-05
6.339169584792396108e+02 4.649995330696345608e-05
6.348174087043521467e+02 4.692232508534652957e-05
6.357178589294646827e+02 4.699865950984894033e-05
6.366183091545772186e+02 4.679048753969502794e-05
6.375187593796898682e+02 4.654062278814261543e-05
6.384192096048024041e+02 4.642522487676768272e-05
6.393196598299149400e+02 4.640488625991095046e-05
6.402201100550274759e+02 4.640371382169972305e-05
6.411205602801400119e+02 4.640733318401353265e-05
6.420210105052525478e+02 4.633455317669929913e-05
6.429214607303651974e+02 4.605449087245253839e-05
6.438219109554777333e+02 4.552986263810029238e-05
6.447223611805902692e+02 4.491318031727643871e-05
6.456228114057028051e+02 4.442443885096742718e-05
6.465232616308153411e+02 4.416176462198628420e-05
6.474237118559278770e+02 4.415418019548743539e-05
6.483241620810405266e+02 4.439327832922915744e-05
6.492246123061530625e+02 4.483221081873191782e-05
6.501250625312655984e+02 4.550909617693552322e-05
6.510255127563781343e+02 4.644444422369360095e-05
6.519259629814906702e+02 4.750337489998608485e-05
6.528264132066033198e+02 4.850248148256383146e-05
6.537268634317158558e+02 4.937249815829281572e-05
6.546273136568283917e+02 5.016438787889538053e-05
6.555277638819409276e+02 5.096101975554705394e-05
6.564282141070534635e+02 5.174969657447271964e-05
6.573286643321659994e+02 5.239081499852874538e-05
6.582291145572786490e+02 5.277793205011510667e-05
6.591295647823911850e+02 5.295335967993063445e-05
6.600300150075037209e+02 5.292698289314960258e-05
6.609304652326162568e+02 5.258507594262209665e-05
6.618309154577287927e+02 5.194997866851943443e-05
6.627313656828414423e+02 5.123561633408450392e-05
6.636318159079539782e+02 5.066571822161944284e-05
6.645322661330665142e+02 5.029697504951101514e-05
6.654327163581790501e+02 5.004001121633044484e-05
6.663331665832915860e+02 4.982494033496439066e-05
6.672336168084041219e+02 4.963526427671006199e-05
6.681340670335167715e+02 4.941040413792604895e-05
6.690345172586293074e+02 4.896260331309064428e-05
6.699349674837418434e+02 4.818319823319943009e-05
6.708354177088543793e+02 4.731814587536231647e-05
6.717358679339669152e+02 4.670769843076122223e-05
6.726363181590794511e+02 4.638598432523514823e-05
6.735367683841921007e+02 4.618049313917228739e-05
6.744372186093046366e+02 4.605559803862279946e-05
6.753376688344171725e+02 4.604831956690675395e-05
6.762381190595297085e+02 4.614548914851815777e-05
6.771385692846422444e+02 4.636351049968795603e-05
6.780390195097548940e+02 4.664270874626595903e-05
6.789394697348674299e+02 4.696708596716094735e-05
6.798399199599799658e+02 4.748532457290388306e-05
6.807403701850925017e+02 4.826348247993390985e-05
6.816408204102050377e+02 4.916789326856173823e-05
6.825412706353175736e+02 4.997258295664798987e-05
6.834417208604302232e+02 5.062326070268474763e-05
6.843421710855427591e+02 5.119367568616587538e-05
6.852426213106552950e+02 5.160622165711432820e-05
6.861430715357678309e+02 5.169678456795995757e-05
6.870435217608803669e+02 5.131195234034236614e-05
6.879439719859930165e+02 5.042090470611001036e-05
6.888444222111055524e+02 4.932501847323163805e-05
6.897448724362180883e+02 4.837841606986140175e-05
6.906453226613306242e+02 4.769337347815308630e-05
6.915457728864431601e+02 4.725646071399417940e-05
6.924462231115556961e+02 4.705573613369956582e-05
6.933466733366683457e+02 4.707755731874114797e-05
6.942471235617808816e+02 4.724707899065213717e-05
6.951475737868934175e+02 4.746792997426350908e-05
6.960480240120059534e+02 4.764970084152882435e-05
6.969484742371184893e+02 4.770252014406559386e-05
6.978489244622311389e+02 4.764025340237151244e-05
6.987493746873436749e+02 4.750372390441808787e-05
6.996498249124562108e+02 4.726585386406505424e-05
7.005502751375687467e+02 4.689126181266396482e-05
7.014507253626812826e+02 4.632960507718102356e-05
7.023511755877938185e+02 4.565546973575719091e-05
7.032516258129064681e+02 4.509988212643749816e-05
7.041520760380190040e+02 4.476918422803989172e-05
7.050525262631315400e+02 4.462774437878863458e-05
7.059529764882440759e+02 4.456864283920828089e-05
7.068534267133566118e+02 4.438947760714274341e-05
7.077538769384691477e+02 4.400965430915010606e-05
7.086543271635817973e+02 4.360904174161790893e-05
7.095547773886943332e+02 4.343163866323360443e-05
7.104552276138068692e+02 4.345458721060876576e-05
7.113556778389194051e+02 4.342378858686745145e-05
7.122561280640319410e+02 4.325679051098659292e-05
7.131565782891445906e+02 4.315703950625145386e-05
7.140570285142571265e+02 4.329023212922606561e-05
7.149574787393696624e+02 4.366142107282165106e-05
7.158579289644821984e+02 4.420850262725946887e-05
7.167583791895947343e+02 4.476529244761249550e-05
7.176588294147072702e+02 4.512072718379281084e-05
7.185592796398199198e+02 4.524661287025721603e-05
7.194597298649324557e+02 4.522986344964390033e-05
7.203601800900449916e+02 4.501011514262720807e-05
7.212606303151575275e+02 4.449153139411168823e-05
7.221610805402700635e+02 4.375939901392225748e-05
7.230615307653827131e+02 4.302592616797377761e-05
7.239619809904952490e+02 4.246757466235371204e-05
7.248624312156077849e+02 4.214772044601330724e-05
7.257628814407203208e+02 4.200936300455820628e-05
7.266633316658328567e+02 4.198491142859132777e-05
7.275637818909453927e+02 4.199747865721146665e-05
7.284642321160580423e+02 4.194989689227923691e-05
7.293646823411705782e+02 4.177485657653086653e-05
7.302651325662831141e+02 4.145112571495366524e-05
7.311655827913956500e+02 4.099379707299231093e-05
7.320660330165081859e+02 4.040695906286051974e-05
7.329664832416207219e+02 3.974768006172434549e-05
7.338669334667333715e+02 3.917842858375071346e-05
7.347673836918459074e+02 3.880597375811810335e-05
7.356678339169584433e+02 3.854974349610826669e-05
7.365682841420709792e+02 3.831492595074791318e-05
7.374687343671835151e+02 3.812931365181196813e-05
7.383691845922961647e+02 3.801094810022130784e-05
7.392696348174087007e+02 3.786188349779159097e-05
7.401700850425212366e+02 3.763928441321791519e-05
7.410705352676337725e+02 3.740596343468239341e-05
7.419709854927463084e+02 3.714178134881992321e-05
7.428714357178588443e+02 3.681639118444197055e-05
7.437718859429714939e+02 3.645746500055891851e-05
7.446723361680840299e+02 3.606315555000383670e-05
7.455727863931965658e+02 3.561339929561648150e-05
7.464732366183091017e+02 3.513188742129903552e-05
7.473736868434216376e+02 3.467904964932001956e-05
7.482741370685342872e+02 3.435352178871209941e-05
7.491745872936468231e+02 3.420015729566919048e-05
7.500750375187593590e+02 3.408391641091178769e-05
7.509754877438718950e+02 3.385258924712683445e-05
7.518759379689844309e+02 3.353850641438836606e-05
7.527763881940969668e+02 3.327815805130568118e-05
7.536768384192096164e+02 3.315110011174162498e-05
7.545772886443221523e+02 3.309812534131074279e-05
7.554777388694346882e+02 3.299517123541499913e-05
7.563781890945472242e+02 3.279491904509790979e-05
7.572786393196597601e+02 3.252841097506660456e-05
7.581790895447722960e+02 3.222457627891038285e-05
7.590795397698849456e+02 3.192499869899917219e-05
7.599799899949974815e+02 3.167455256190476937e-05
7.608804402201100174e+02 3.147131070732582531e-05
7.617808904452225534e+02 3.130187363590929947e-05
7.626813406703350893e+02 3.115415031844182361e-05
7.635817908954477389e+02 3.105521702507365949e-05
7.644822411205602748e+02 3.105753909265095614e-05
7.653826913456728107e+02 3.107279251354711413e-05
7.662831415707853466e+02 3.091854488221858666e-05
7.671835917958978825e+02 3.054336252869574534e-05
7.680840420210104185e+02 3.004808757863901687e-05
7.689844922461230681e+02 2.957557273441312231e-05
7.698849424712356040e+02 2.921832262737777275e-05
7.707853926963481399e+02 2.896872704340086013e-05
7.716858429214606758e+02 2.877128537602165485e-05
7.725862931465732117e+02 2.861577755390118196e-05
7.734867433716858613e+02 2.857292209718383290e-05
7.743871935967983973e+02 2.868069031031856094e-05
7.752876438219109332e+02 2.888733312250019587e-05
7.761880940470234691e+02 2.910494470047276779e-05
7.770885442721360050e+02 2.929338734958902791e-05
7.779889944972485409e+02 2.950685654183364065e-05
7.788894447223611905e+02 2.983923442454174623e-05
7.797898949474737265e+02 3.030583223478891490e-05
7.806903451725862624e+02 3.081152539928668594e-05
7.815907953976987983e+02 3.122565199386518117e-05
7.824912456228113342e+02 3.141340751924044520e-05
7.833916958479238701e+02 3.129905084496663049e-05
7.842921460730365197e+02 3.094896919406810940e-05
7.851925962981490557e+02 3.051558463669408957e-05
7.860930465232615916e+02 3.009020415426828069e-05
7.869934967483741275e+02 2.967777848220582343e-05
7.878939469734866634e+02 2.925777543360811352e-05
7.887943971985993130e+02 2.876721314769600357e-05
7.896948474237118489e+02 2.816032951521364627e-05
7.905952976488243849e+02 2.753359967645708714e-05
7.914957478739369208e+02 2.704220266428947729e-05
7.923961980990494567e+02 2.677764526970223845e-05
7.932966483241619926e+02 2.672570202036309497e-05
7.941970985492746422e+02 2.681157043647249699e-05
7.950975487743871781e+02 2.697011963046672762e-05
7.959979989994997140e+02 2.711478143694410884e-05
7.968984492246122500e+02 2.720117431217395062e-05
7.977988994497247859e+02 2.725692047720412004e-05
7.986993496748374355e+02 2.733455707131368575e-05
7.995997998999499714e+02 2.747413833236167017e-05
8.005002501250625073e+02 2.762109133915050901e-05
8.014007003501750432e+02 2.766757075467315277e-05
8.023011505752875792e+02 2.755761184137218403e-05
8.032016008004001151e+02 2.735007406550179283e-05
8.041020510255127647e+02 2.718439221333953374e-05
8.050025012506253006e+02 2.711101296501455842e-05
8.059029514757378365e+02 2.703888758556002321e-05
8.068034017008503724e+02 2.686142943010984179e-05
8.077038519259629084e+02 2.661705484615489647e-05
8.086043021510754443e+02 2.643420239793396162e-05
8.095047523761880939e+02 2.627944688457042898e-05
8.104052026013006298e+02 2.598984552568003409e-05
8.113056528264131657e+02 2.556799093942539952e-05
8.122061030515257016e+02 2.517315611166085463e-05
8.131065532766382375e+02 2.494682365845523003e-05
8.140070035017508872e+02 2.494520809091484297e-05
8.149074537268634231e+02 2.516610962015431593e-05
8.158079039519759590e+02 2.559331366245870819e-05
8.167083541770884949e+02 2.619583707631855491e-05
8.176088044022010308e+02 2.691102619045678947e-05
8.185092546273135667e+02 2.760682805389086660e-05
8.194097048524262163e+02 2.815914458047994563e-05
8.203101550775387523e+02 2.852874216828814175e-05
8.212106053026512882e+02 2.875566168690422457e-05
8.221110555277638241e+02 2.895425532182778152e-05
8.230115057528763600e+02 2.921613993741644123e-05
8.239119559779890096e+02 2.955438585471174996e-05
8.248124062031015455e+02 2.989256062595525718e-05
8.257128564282140815e+02 3.011964564904805758e-05
8.266133066533266174e+02 3.017742069578157880e-05
8.275137568784391533e+02 3.003731634978039377e-05
8.284142071035516892e+02 2.972276241940257231e-05
8.293146573286643388e+02 2.932580699414033667e-05
8.302151075537768747e+02 2.893560636670274258e-05
8.311155577788894107e+02 2.863410458311145196e-05
8.320160080040019466e+02 2.850865211686563278e-05
8.329164582291144825e+02 2.855816416120766148e-05
8.338169084542270184e+02 2.867997436159247193e-05
8.347173586793396680e+02 2.879468216149744104e-05
8.356178089044522039e+02 2.890183379910496548e-05
8.365182591295647399e+02 2.900281519530863056e-05
8.374187093546772758e+02 2.911292279355365923e-05
8.383191595797898117e+02 2.935977313917891682e-05
8.392196098049024613e+02 2.986710253991718410e-05
8.401200600300149972e+02 3.058412028981547269e-05
8.410205102551275331e+02 3.134644173046256620e-05
8.419209604802400690e+02 3.199890648462952057e-05
8.428214107053526050e+02 3.242067407655537480e-05
8.437218609304651409e+02 3.252181443615714866e-05
8.446223111555777905e+02 3.235856521434946959e-05
8.455227613806903264e+02 3.212273829785984119e-05
8.464232116058028623e+02 3.188796597963280543e-05
8.473236618309153982e+02 3.171584077928074852e-05
8.482241120560279342e+02 3.178353790672524225e-05
8.491245622811405838e+02 3.211300997082600642e-05
8.500250125062531197e+02 3.255745557311495855e-05
8.509254627313656556e+02 3.308067887252590447e-05
8.518259129564781915e+02 3.380026232782274852e-05
8.527263631815907274e+02 3.486857385132228788e-05
8.536268134067032634e+02 3.630072266581775944e-05
8.545272636318159130e+02 3.795012141248618547e-05
8.554277138569284489e+02 3.972422581109921091e-05
8.563281640820409848e+02 4.159692861136952101e-05
8.572286143071535207e+02 4.338638838684432010e-05
8.581290645322660566e+02 4.461492241690760295e-05
8.590295147573785925e+02 4.486521070951102186e-05
8.599299649824912422e+02 4.428459862791694250e-05
8.608304152076037781e+02 4.335696956723066351e-05
8.617308654327163140e+02 4.242029213014330131e-05
8.626313156578288499e+02 4.155445800734181911e-05
8.635317658829413858e+02 4.077816174375407292e-05
8.644322161080540354e+02 4.019747754590755713e-05
8.653326663331665713e+02 3.991470653858838195e-05
8.662331165582791073e+02 3.996429836754422551e-05
8.671335667833916432e+02 4.022000998444669141e-05
8.680340170085041791e+02 4.042061881749845316e-05
8.689344672336167150e+02 4.046484070916997521e-05
8.698349174587293646e+02 4.025022780187337566e-05
8.707353676838419005e+02 3.948155682827964919e-05
8.716358179089544365e+02 3.813590087402670336e-05
8.725362681340669724e+02 3.660412213567655599e-05
8.734367183591795083e+02 3.529175473088775629e-05
8.743371685842921579e+02 3.441347330606976971e-05
8.752376188094046938e+02 3.397439175279053000e-05
8.761380690345172297e+02 3.382681453706321657e-05
8.770385192596297657e+02 3.377861123542649785e-05
8.779389694847423016e+02 3.375991127995367784e-05
8.788394197098548375e+02 3.386411478925158326e-05
8.797398699349674871e+02 3.418907630649964651e-05
8.806403201600800230e+02 3.466686852247877947e-05
8.815407703851925589e+02 3.509165511881909679e-05
8.824412206103050949e+02 3.530794275989318200e-05
8.833416708354176308e+02 3.526088058226542867e-05
8.842421210605301667e+02 3.494441469034258765e-05
8.851425712856428163e+02 3.444071863187467920e-05
8.860430215107553522e+02 3.388687881121822811e-05
8.869434717358678881e+02 3.334040822908796716e-05
8.878439219609804240e+02 3.285781453909157888e-05
8.887443721860929600e+02 3.261987362644328946e-05
8.896448224112056096e+02 3.270678730007408751e-05
8.905452726363181455e+02 3.298576224598967873e-05
8.914457228614306814e+02 3.333885515587438141e-05
8.923461730865432173e+02 3.375680822002785029e-05
8.932466233116557532e+02 3.424601169742770503e-05
8.941470735367682892e+02 3.476580220102856950e-05
8.950475237618809388e+02 3.517323030428787814e-05
8.959479739869934747e+02 3.531537979949405650e-05
8.968484242121060106e+02 3.519779265179396894e-05
8.977488744372185465e+02 3.499598394558825476e-05
8.986493246623310824e+02 3.488615546016860067e-05
8.995497748874437320e+02 3.487729950951228935e-05
9.004502251125562680e+02 3.492782497350034685e-05
9.013506753376688039e+02 3.501091441908321038e-05
9.022511255627813398e+02 3.505145955679240779e-05
9.031515757878938757e+02 3.499460398536797639e-05
9.040520260130064116e+02 3.490087584299390264e-05
9.049524762381190612e+02 3.488965424432873382e-05
9.058529264632315972e+02 3.499758574823460833e-05
9.067533766883441331e+02 3.510149147781786326e-05
9.076538269134566690e+02 3.501497836125539391e-05
9.085542771385692049e+02 3.474473283454924738e-05
9.094547273636817408e+02 3.449148554486372044e-05
9.103551775887943904e+02 3.440916477794277097e-05
9.112556278139069263e+02 3.454112628258389092e-05
9.121560780390194623e+02 3.490403369360138580e-05
9.130565282641319982e+02 3.544162645880724832e-05
9.139569784892445341e+02 3.603243623824989962e-05
9.148574287143571837e+02 3.668031658949299866e-05
9.157578789394697196e+02 3.745913220994638869e-05
9.166583291645822555e+02 3.824969091512894813e-05
9.175587793896947915e+02 3.883263737490574006e-05
9.184592296148073274e+02 3.919194803142425615e-05
9.193596798399198633e+02 3.948818919954553524e-05
9.202601300650325129e+02 3.974640831848015100e-05
9.211605802901450488e+02 3.981616221288635199e-05
9.220610305152575847e+02 3.967599607814360053e-05
9.229614807403701207e+02 3.944654699959416051e-05
9.238619309654826566e+02 3.923237777555234953e-05
9.247623811905953062e+02 3.913001122058268349e-05
9.256628314157078421e+02 3.916346554221526250e-05
9.265632816408203780e+02 3.923679617137924706e-05
9.274637318659329139e+02 3.927695128330850865e-05
9.283641820910454499e+02 3.935673500634553500e-05
9.292646323161579858e+02 3.962366345617066124e-05
9.301650825412706354e+02 4.009633860931267110e-05
9.310655327663831713e+02 4.074619075649425851e-05
9.319659829914957072e+02 4.164151810666389807e-05
9.328664332166082431e+02 4.280737499872102540e-05
9.337668834417207790e+02 4.411553224662618773e-05
9.346673336668334287e+02 4.535537760869550762e-05
9.355677838919459646e+02 4.630254582840758284e-05
9.364682341170585005e+02 4.679359169904529425e-05
9.373686843421710364e+02 4.686122571968862440e-05
9.382691345672835723e+02 4.674943969584026654e-05
9.391695847923961082e+02 4.674699717657539855e-05
9.400700350175087578e+02 4.712654079330411556e-05
9.409704852426212938e+02 4.793645651008272298e-05
9.418709354677338297e+02 4.887059389973682816e-05
9.427713856928463656e+02 4.963295618391186294e-05
9.436718359179589015e+02 5.006937576184189404e-05
9.445722861430714374e+02 5.013221961668151006e-05
9.454727363681840870e+02 4.997506278385593578e-05
9.463731865932966230e+02 4.972761763335453543e-05
9.472736368184091589e+02 4.936446003626615813e-05
9.481740870435216948e+02 4.890178213176870486e-05
9.490745372686342307e+02 4.851657777599162926e-05
9.499749874937468803e+02 4.846095895780744934e-05
9.508754377188594162e+02 4.885930804842807552e-05
9.517758879439719522e+02 4.965587885974767060e-05
9.526763381690844881e+02 5.074520057492222714e-05
9.535767883941970240e+02 5.199668862103181441e-05
9.544772386193095599e+02 5.323480283983725948e-05
9.553776888444222095e+02 5.428725228684525440e-05
9.562781390695347454e+02 5.511300983266496147e-05
9.571785892946472813e+02 5.580051102771010576e-05
9.580790395197598173e+02 5.643276662372966474e-05
9.589794897448723532e+02 5.722228055386743226e-05
9.598799399699850028e+02 5.838324935871230136e-05
9.607803901950975387e+02 5.977309249224159308e-05
9.616808404202100746e+02 6.091668351075585195e-05
9.625812906453226105e+02 6.155906495178519984e-05
9.634817408704351465e+02 6.189228621372532381e-05
9.643821910955476824e+02 6.217640204636398348e-05
9.652826413206603320e+02 6.242256720057319118e-05
9.661830915457728679e+02 6.243803940110779778e-05
9.670835417708854038e+02 6.211911075216799505e-05
9.679839919959979397e+02 6.155689792347570418e-05
9.688844422211104757e+02 6.079872746292051242e-05
9.697848924462230116e+02 5.985160482207136637e-05
9.706853426713356612e+02 5.880503787701829116e-05
9.715857928964481971e+02 5.789537489269061527e-05
9.724862431215607330e+02 5.738846106938059864e-05
9.733866933466732689e+02 5.726528662668291350e-05
9.742871435717858049e+02 5.732418448533250311e-05
9.751875937968984545e+02 5.755030743768630081e-05
9.760880440220109904e+02 5.806273391865133041e-05
9.769884942471235263e+02 5.877525781676868559e-05
9.778889444722360622e+02 5.940808083149054649e-05
9.787893946973485981e+02 5.974397500919291721e-05
9.796898449224611340e+02 5.974469941787073613e-05
9.805902951475737837e+02 5.961298705967898472e-05
9.814907453726863196e+02 5.969709264170673256e-05
9.823911955977988555e+02 6.021298837949147015e-05
9.832916458229113914e+02 6.122266911657767412e-05
9.841920960480239273e+02 6.274717692503182262e-05
9.850925462731365769e+02 6.469973658199538774e-05
9.859929964982491128e+02 6.679947787134088205e-05
9.868934467233616488e+02 6.878804727317244328e-05
9.877938969484741847e+02 7.062664201024234333e-05
9.886943471735867206e+02 7.227292235349094937e-05
9.895947973986992565e+02 7.359970132277094627e-05
9.904952476238119061e+02 7.452076985330911070e-05
9.913956978489244420e+02 7.492392004057658894e-05
9.922961480740369780e+02 7.471841845588943112e-05
9.931965982991495139e+02 7.410250306383248315e-05
9.940970485242620498e+02 7.336589337929340783e-05
9.949974987493745857e+02 7.271859371955525391e-05
9.958979489744872353e+02 7.228942573895870687e-05
9.967983991995997712e+02 7.218206466122181937e-05
9.976988494247123072e+02 7.254071410954895287e-05
9.985992996498248431e+02 7.342988933640618538e-05
9.994997498749373790e+02 7.478483425221358304e-05
1.000400200100050029e+03 7.654769746859298272e-05
1.001300650325162565e+03 7.876545201451530412e-05
1.002201100550275100e+03 8.135340664992342949e-05
1.003101550775387636e+03 8.391377192126309647e-05
1.004002001000500172e+03 8.600926770169156643e-05
1.004902451225612708e+03 8.753843693924394267e-05
1.005802901450725358e+03 8.864508163051299352e-05
1.006703351675837894e+03 8.938069543254548155e-05
1.007603801900950430e+03 8.983096228943890035e-05
1.008504252126062966e+03 9.042586171746446301e-05
1.009404702351175501e+03 9.155234043635301097e-05
1.010305152576288151e+03 9.310355342571900890e-05
1.011205602801400687e+03 9.484938723463822103e-05
1.012106053026513223e+03 9.670647330673190695e-05
1.013006503251625759e+03 9.838372916801993277e-05
1.013906953476738295e+03 9.940459364191493491e-05
1.014807403701850831e+03 9.970615811917149399e-05
1.015707853926963480e+03 9.977317839897004354e-05
1.016608304152076016e+03 1.000875640574200130e-04
1.017508754377188552e+03 1.006419208867643194e-04
1.018409204602301088e+03 1.011040795415807191e-04
1.019309654827413624e+03 1.012411364905980277e-04
1.020210105052526160e+03 1.010934274302759497e-04
1.021110555277638809e+03 1.008818023966067849e-04
1.022011005502751345e+03 1.009149119153817655e-04
1.022911455727863881e+03 1.015567361446069976e-04
1.023811905952976417e+03 1.029406299595564574e-04
1.024712356178089067e+03 1.045903046756561640e-04
1.025612806403201603e+03 1.058138154608482048e-04
1.026513256628314139e+03 1.063301683659837593e-04
1.027413706853426675e+03 1.063525799351916669e-04
1.028314157078539210e+03 1.063142067181260006e-04
1.029214607303651746e+03 1.065476468731253046e-04
1.030115057528764282e+03 1.073389398871878078e-04
1.031015507753876818e+03 1.089347846238715553e-04
1.031915957978989354e+03 1.113744536761301186e-04
1.032816408204101890e+03 1.144481310318221242e-04
1.033716858429214653e+03 1.175921101380957549e-04
1.034617308654327189e+03 1.200713985092679258e-04
1.035517758879439725e+03 1.216058419451857692e-04
1.036418209104552261e+03 1.226110005490115018e-04
1.037318659329664797e+03 1.239016989609629930e-04
1.038219109554777333e+03 1.261128224945641844e-04
1.039119559779889869e+03 1.294303837724974091e-04
1.040020010005002405e+03 1.335474879663655842e-04
1.040920460230114941e+03 1.376497341995652627e-04
1.041820910455227477e+03 1.408493582201827575e-04
1.042721360680340013e+03 1.428925692481674973e-04
1.043621810905452776e+03 1.443966091058382817e-04
1.044522261130565312e+03 1.462397549425703655e-04
1.045422711355677848e+03 1.490687243149822088e-04
1.046323161580790384e+03 1.530953621893910111e-04
1.047223611805902920e+03 1.579503084143330438e-04
1.048124062031015455e+03 1.630226379504482988e-04
1.049024512256127991e+03 1.679170606110516172e-04
1.049924962481240527e+03 1.724918785374361446e-04
1.050825412706353063e+03 1.766476060168235742e-04
1.051725862931465599e+03 1.802619398261139062e-04
1.052626313156578135e+03 1.832207960766184956e-04
1.053526763381690898e+03 1.854154004254353761e-04
1.054427213606803434e+03 1.870183427969891222e-04
1.055327663831915970e+03 1.886959124551872082e-04
1.056228114057028506e+03 1.914566563615879152e-04
1.057128564282141042e+03 1.960950337608974509e-04
1.058029014507253578e+03 2.024921813838702974e-04
1.058929464732366114e+03 2.096203139437809268e-04
1.059829914957478650e+03 2.163076304825932450e-04
1.060730365182591186e+03 2.218933980924522843e-04
1.061630815407703722e+03 2.262016535506688629e-04
1.062531265632816257e+03 2.296278051783309261e-04
1.063431715857929021e+03 2.329146424665714252e-04
1.064332166083041557e+03 2.363418575240700556e-04
1.065232616308154093e+03 2.399298498429515989e-04
1.066133066533266629e+03 2.437593454980619583e-04
1.067033516758379164e+03 2.477940145731174180e-04
1.067933966983491700e+03 2.517107141823730584e-04
1.068834417208604236e+03 2.553458639232813587e-04
1.069734867433716772e+03 2.590993328092666302e-04
1.070635317658829308e+03 2.634849057331461715e-04
1.071535767883941844e+03 2.692577050293631382e-04
1.072436218109054380e+03 2.768452613386028949e-04
1.073336668334167143e+03 2.853875508606587477e-04
1.074237118559279679e+03 2.935035265056069875e-04
1.075137568784392215e+03 3.007031550949870757e-04
1.076038019009504751e+03 3.073375774652462229e-04
1.076938469234617287e+03 3.136282078468900759e-04
1.077838919459729823e+03 3.193410696789020838e-04
1.078739369684842359e+03 3.238399307796697838e-04
1.079639819909954895e+03 3.266396261766577134e-04
1.080540270135067431e+03 3.273982525058767340e-04
1.081440720360179967e+03 3.261052092610021718e-04
1.082341170585292502e+03 3.237796343409462033e-04
1.083241620810405038e+03 3.223048583090715852e-04
1.084142071035517802e+03 3.235991965657862069e-04
1.085042521260630338e+03 3.283296815100067738e-04
1.085942971485742873e+03 3.360684734514948280e-04
1.086843421710855409e+03 3.457613478411943097e-04
1.087743871935967945e+03 3.558413634476385997e-04
1.088644322161080481e+03 3.654258789378850444e-04
1.089544772386193017e+03 3.742389852877950275e-04
1.090445222611305553e+03 3.813261162475917133e-04
1.091345672836418089e+03 3.866651760589130118e-04
1.092246123061530625e+03 3.927075593725289884e-04
1.093146573286643161e+03 4.010253082887243591e-04
1.094047023511755924e+03 4.103557225295540335e-04
1.094947473736868460e+03 4.190465792654158119e-04
1.095847923961980996e+03 4.263611827461588556e-04
1.096748374187093532e+03 4.322322564812115450e-04
1.097648824412206068e+03 4.371469385713347660e-04
1.098549274637318604e+03 4.420912155980166324e-04
1.099449724862431140e+03 4.492937652525145912e-04
1.100350175087543676e+03 4.604607568313408630e-04
1.101250625312656211e+03 4.746221804430400234e-04
1.102151075537768747e+03 4.910935811227180436e-04
1.103051525762881283e+03 5.105358955840419346e-04
1.103951975987994047e+03 5.313983382940344787e-04
1.104852426213106583e+03 5.502408081514039958e-04
1.105752876438219118e+03 5.651180630635492617e-04
1.106653326663331654e+03 5.756391038520109436e-04
1.107553776888444190e+03 5.809028098001736435e-04
1.108454227113556726e+03 5.813875363359258079e-04
1.109354677338669262e+03 5.818395001871208994e-04
1.110255127563781798e+03 5.877480880783677577e-04
1.111155577788894334e+03 6.007166704194721613e-04
1.112056028014006870e+03 6.192066986138193216e-04
1.112956478239119406e+03 6.396339127987386332e-04
1.113856928464232169e+03 6.572876545097221333e-04
1.114757378689344705e+03 6.707280952160120423e-04
1.115657828914457241e+03 6.799534874821857623e-04
1.116558279139569777e+03 6.818694514944591018e-04
1.117458729364682313e+03 6.753068937359985946e-04
1.118359179589794849e+03 6.646020417739433852e-04
1.119259629814907385e+03 6.552262233739298853e-04
1.120160080040019920e+03 6.491377736045905863e-04
1.121060530265132456e+03 6.438665218153155579e-04
1.121960980490244992e+03 6.339463881087924234e-04
1.122861430715357528e+03 6.168223175642033925e-04
1.123761880940470292e+03 5.954816350322971732e-04
1.124662331165582827e+03 5.725479456906833881e-04
1.125562781390695363e+03 5.477445839586938658e-04
1.126463231615807899e+03 5.222620124195774191e-04
1.127363681840920435e+03 4.992875972758264048e-04
1.128264132066032971e+03 4.798743739976299915e-04
1.129164582291145507e+03 4.629054047532611812e-04
1.130065032516258043e+03 4.468015090731274909e-04
1.130965482741370579e+03 4.300734616177697258e-04
1.131865932966483115e+03 4.117761593745875113e-04
1.132766383191595651e+03 3.923957690631036462e-04
1.133666833416708187e+03 3.733856904976706552e-04
1.134567283641820950e+03 3.554694757783677882e-04
1.135467733866933486e+03 3.389163216627116902e-04
1.136368184092046022e+03 3.234729989540299517e-04
1.137268634317158558e+03 3.072397187059620980e-04
1.138169084542271094e+03 2.888880122603526752e-04
1.139069534767383630e+03 2.714037335259691084e-04
1.139969984992496165e+03 2.585484000922742983e-04
1.140870435217608701e+03 2.494507551276744389e-04
1.141770885442721237e+03 2.403243556441115843e-04
1.142671335667833773e+03 2.299895389957570672e-04
1.143571785892946309e+03 2.199045365322005181e-04
1.144472236118059072e+03 2.105047988539312772e-04
1.145372686343171608e+03 2.002517313323081934e-04
1.146273136568284144e+03 1.884373326522555527e-04
1.147173586793396680e+03 1.769114800715404371e-04
1.148074037018509216e+03 1.678714001056474719e-04
1.148974487243621752e+03 1.616460963112826697e-04
1.149874937468734288e+03 1.566807186843933801e-04
1.150775387693846824e+03 1.513221128567633893e-04
1.151675837918959360e+03 1.450874982685995186e-04
1.152576288144071896e+03 1.385989904997888547e-04
1.153476738369184432e+03 1.325777742286094341e-04
1.154377188594297195e+03 1.272048200333586378e-04
1.155277638819409731e+03 1.226734963108793667e-04
1.156178089044522267e+03 1.191771890850108469e-04
1.157078539269634803e+03 1.163420577098425387e-04
1.157978989494747339e+03 1.134731443496419563e-04
1.158879439719859874e+03 1.104213574959749943e-04
1.159779889944972410e+03 1.078076817302089393e-04
1.160680340170084946e+03 1.060483864649519169e-04
1.161580790395197482e+03 1.047131107839147280e-04
1.162481240620310018e+03 1.030388481462248137e-04
1.163381690845422554e+03 1.009836681709007887e-04
1.164282141070535317e+03 9.925043824429661946e-05
1.165182591295647853e+03 9.831733921054650678e-05
1.166083041520760389e+03 9.793949203359030226e-05
1.166983491745872925e+03 9.733816195758183542e-05
1.167883941970985461e+03 9.605386195691713422e-05
1.168784392196097997e+03 9.428695417219137072e-05
1.169684842421210533e+03 9.277864803886513541e-05
1.170585292646323069e+03 9.238508926440023748e-05
1.171485742871435605e+03 9.320682391955995331e-05
1.172386193096548141e+03 9.456317832114927852e-05
1.173286643321660677e+03 9.584024442880544699e-05
1.174187093546773440e+03 9.673596320357886883e-05
1.175087543771885976e+03 9.709506589433109327e-05
1.175987993996998512e+03 9.728416055693746799e-05
1.176888444222111048e+03 9.775662045977018158e-05
1.177788894447223583e+03 9.812791256337526633e-05
1.178689344672336119e+03 9.752383327065526999e-05
1.179589794897448655e+03 9.654049844432626684e-05
1.180490245122561191e+03 9.678234205807173681e-05
1.181390695347673727e+03 9.892744323338065876e-05
1.182291145572786263e+03 1.025992985081426408e-04
1.183191595797898799e+03 1.069048774902479492e-04
1.184092046023011562e+03 1.105952044421911433e-04
1.184992496248124098e+03 1.126692517472525624e-04
1.185892946473236634e+03 1.125952697886868083e-04
1.186793396698349170e+03 1.105005532444172813e-04
1.187693846923461706e+03 1.074982601928032634e-04
1.188594297148574242e+03 1.049965352684127868e-04
1.189494747373686778e+03 1.036598872823472092e-04
1.190395197598799314e+03 1.031590426787440900e-04
1.191295647823911850e+03 1.030676220383584384e-04
1.192196098049024386e+03 1.034567896564664297e-04
1.193096548274136921e+03 1.044638343895687693e-04
1.193996998499249457e+03 1.062465336550171479e-04
1.194897448724362221e+03 1.092730308752418525e-04
1.195797898949474757e+03 1.141327526979327747e-04
1.196698349174587293e+03 1.208502630394473029e-04
1.197598799399699828e+03 1.282423875184931345e-04
1.198499249624812364e+03 1.342334295908036450e-04
1.199399699849924900e+03 1.377904664344730161e-04
1.200300150075037436e+03 1.395940842069305101e-04
1.201200600300149972e+03 1.410387368262665730e-04
1.202101050525262508e+03 1.435576334492536844e-04
1.203001500750375044e+03 1.477094133418764782e-04
1.203901950975487580e+03 1.529180314964671795e-04
1.204802401200600343e+03 1.580124782514240225e-04
1.205702851425712879e+03 1.617154592723617516e-04
1.206603301650825415e+03 1.637699242833193930e-04
1.207503751875937951e+03 1.653693354608574788e-04
1.208404202101050487e+03 1.677237206711859965e-04
1.209304652326163023e+03 1.711442853782178830e-04
1.210205102551275559e+03 1.751399916656851878e-04
1.211105552776388095e+03 1.791256798382393639e-04
1.212006003001500630e+03 1.834258476595736632e-04
1.212906453226613166e+03 1.888951035599467372e-04
1.213806903451725702e+03 1.956368464511273246e-04
1.214707353676838466e+03 2.025244835632183449e-04
1.215607803901951002e+03 2.076182897880833036e-04
1.216508254127063537e+03 2.092802179795207203e-04
1.217408704352176073e+03 2.075134820500101689e-04
1.218309154577288609e+03 2.037147158446018787e-04
1.219209604802401145e+03 1.996366313767051473e-04
1.220110055027513681e+03 1.964194365754352585e-04
1.221010505252626217e+03 1.941267886019495883e-04
1.221910955477738753e+03 1.924457270014168491e-04
1.222811405702851289e+03 1.918196767024568205e-04
1.223711855927963825e+03 1.931134471683623624e-04
1.224612306153076588e+03 1.961700439210397793e-04
1.225512756378189124e+03 1.999968132139057751e-04
1.226413206603301660e+03 2.038418517184761175e-04
1.227313656828414196e+03 2.080315976660974541e-04
1.228214107053526732e+03 2.134868142850156994e-04
1.229114557278639268e+03 2.201105170207694368e-04
1.230015007503751804e+03 2.278113139154799730e-04
1.230915457728864340e+03 2.377714179736298121e-04
1.231815907953976875e+03 2.505721601305704914e-04
1.232716358179089411e+03 2.650257915475542859e-04
1.233616808404201947e+03 2.791586462640148502e-04
1.234517258629314711e+03 2.915526067389862452e-04
1.235417708854427246e+03 3.020874968481862197e-04
1.236318159079539782e+03 3.122471388669354007e-04
1.237218609304652318e+03 3.236839748265229002e-04
1.238119059529764854e+03 3.365351804463326832e-04
1.239019509754877390e+03 3.508111402590556442e-04
1.239919959979989926e+03 3.671373657204739975e-04
1.240820410205102462e+03 3.851753985211052466e-04
1.241720860430214998e+03 4.028223610509415855e-04
1.242621310655327534e+03 4.187550958690853327e-04
1.243521760880440070e+03 4.335575799066027688e-04
1.244422211105552606e+03 4.475532314089240350e-04
1.245322661330665369e+03 4.613896228346228896e-04
1.246223111555777905e+03 4.761387773246544873e-04
1.247123561780890441e+03 4.913780796149493958e-04
1.248024012006002977e+03 5.047791212077330997e-04
1.248924462231115513e+03 5.141462608787854185e-04
1.249824912456228049e+03 5.197946836054083549e-04
1.250725362681340584e+03 5.236330082008435610e-04
1.251625812906453120e+03 5.264982216633328979e-04
1.252526263131565656e+03 5.280168783276746646e-04
1.253426713356678192e+03 5.280541755434777808e-04
1.254327163581790728e+03 5.271206447837155232e-04
1.255227613806903491e+03 5.262542608363772164e-04
1.256128064032016027e+03 5.256774664823928630e-04
1.257028514257128563e+03 5.251091455853556774e-04
1.257928964482241099e+03 5.253561635837253850e-04
1.258829414707353635e+03 5.276862746094174291e-04
1.259729864932466171e+03 5.322308169080445378e-04
1.260630315157578707e+03 5.381579274398933747e-04
1.261530765382691243e+03 5.452195374216259717e-04
1.262431215607803779e+03 5.538307173524568972e-04
1.263331665832916315e+03 5.639356788106118876e-04
1.264232116058028851e+03 5.747291841615474002e-04
1.265132566283141614e+03 5.855531671517359704e-04
1.266033016508254150e+03 5.959866478055986152e-04
1.266933466733366686e+03 6.058507523111841689e-04
1.267833916958479222e+03 6.154756694254880089e-04
1.268734367183591758e+03 6.253992330207564518e-04
1.269634817408704293e+03 6.363732432662656119e-04
1.270535267633816829e+03 6.485288712025513930e-04
1.271435717858929365e+03 6.603512575705065835e-04
1.272336168084041901e+03 6.701848780903650604e-04
1.273236618309154437e+03 6.781280663221489003e-04
1.274137068534266973e+03 6.850242028303872577e-04
1.275037518759379736e+03 6.912731132303036666e-04
1.275937968984492272e+03 6.976106037229294881e-04
1.276838419209604808e+03 7.048635444359875211e-04
1.277738869434717344e+03 7.134750936879503914e-04
1.278639319659829880e+03 7.239837191349664030e-04
1.279539769884942416e+03 7.363384180707235578e-04
1.280440220110054952e+03 7.491652170105108938e-04
1.281340670335167488e+03 7.612726259206332611e-04
1.282241120560280024e+03 7.733984839210201285e-04
1.283141570785392560e+03 7.873687804958776591e-04
1.284042021010505096e+03 8.043667542461677361e-04
1.284942471235617859e+03 8.233688974668735986e-04
1.285842921460730395e+03 8.417158764584390697e-04
1.286743371685842931e+03 8.577159817070201427e-04
1.287643821910955467e+03 8.710634141665367239e-04
1.288544272136068003e+03 8.820309793204258704e-04
1.289444722361180538e+03 8.918951360625601696e-04
1.290345172586293074e+03 9.022457712379424117e-04
1.291245622811405610e+03 9.129402687969231933e-04
1.292146073036518146e+03 9.226365326083776561e-04
1.293046523261630682e+03 9.307369665856361166e-04
1.293946973486743218e+03 9.377028760304999874e-04
1.294847423711855754e+03 9.449976895501247280e-04
1.295747873936968517e+03 9.536209377612891612e-04
1.296648324162081053e+03 9.627912216292273994e-04
1.297548774387193589e+03 9.713270579721396949e-04
1.298449224612306125e+03 9.794340086559851638e-04
1.299349674837418661e+03 9.882371066742695609e-04
1.300250125062531197e+03 9.970167459223246501e-04
1.301150575287643733e+03 1.002894644180299865e-03
1.302051025512756269e+03 1.004361860516309306e-03
1.302951475737868805e+03 1.002796812998136720e-03
1.303851925962981340e+03 1.000990517889136953e-03
1.304752376188093876e+03 1.002369939848077101e-03
1.305652826413206640e+03 1.009328548332536586e-03
1.306553276638319176e+03 1.021897035005725225e-03
1.307453726863431712e+03 1.038865326648627779e-03
1.308354177088544247e+03 1.059233364841187129e-03
1.309254627313656783e+03 1.082942846297161839e-03
1.310155077538769319e+03 1.108278111362834403e-03
1.311055527763881855e+03 1.131421677545717090e-03
1.311955977988994391e+03 1.151472497298418329e-03
1.312856428214106927e+03 1.171161715529399827e-03
1.313756878439219463e+03 1.193036976546948090e-03
1.314657328664331999e+03 1.219300452659979146e-03
1.315557778889444762e+03 1.250894479617351918e-03
1.316458229114557298e+03 1.285739236874162798e-03
1.317358679339669834e+03 1.321224385731626727e-03
1.318259129564782370e+03 1.355915640911470018e-03
1.319159579789894906e+03 1.389520279611651749e-03
1.320060030015007442e+03 1.424079300564538289e-03
1.320960480240119978e+03 1.464017521101349537e-03
1.321860930465232514e+03 1.513330909572263658e-03
1.322761380690345050e+03 1.572449294738754305e-03
1.323661830915457585e+03 1.636616256474185231e-03
1.324562281140570121e+03 1.698171133498867832e-03
1.325462731365682885e+03 1.753430265450689474e-03
1.326363181590795421e+03 1.804948038718106424e-03
1.327263631815907956e+03 1.858067464888132035e-03
1.328164082041020492e+03 1.917120544466673591e-03
1.329064532266133028e+03 1.984140439538437453e-03
1.329964982491245564e+03 2.058155941811825457e-03
1.330865432716358100e+03 2.135168419088861926e-03
1.331765882941470636e+03 2.210690033682008969e-03
1.332666333166583172e+03 2.282375352503479213e-03
1.333566783391695708e+03 2.352812366169433882e-03
1.334467233616808244e+03 2.429868993677264562e-03
1.335367683841921007e+03 2.517622375758124444e-03
1.336268134067033543e+03 2.611039215171245299e-03
1.337168584292146079e+03 2.705850756337829267e-03
1.338069034517258615e+03 2.806243008043861082e-03
1.338969484742371151e+03 2.916435614027990987e-03
1.339869934967483687e+03 3.031706374115089933e-03
1.340770385192596223e+03 3.144982114614625675e-03
1.341670835417708759e+03 3.256057197678072831e-03
1.342571285642821294e+03 3.365037868748165829e-03
1.343471735867933830e+03 3.469054773811463318e-03
1.344372186093046366e+03 3.573811447989390030e-03
1.345272636318158902e+03 3.691280275470189970e-03
1.346173086543271666e+03 3.826284405191537983e-03
1.347073536768384201e+03 3.974144203382566631e-03
1.347973986993496737e+03 4.127398139991592975e-03
1.348874437218609273e+03 4.282089801516016959e-03
1.349774887443721809e+03 4.443781466812017807e-03
1.350675337668834345e+03 4.618606875138868417e-03
1.351575787893946881e+03 4.802802150575114122e-03
1.352476238119059417e+03 4.988912008416714235e-03
1.353376688344171953e+03 5.179877376456483440e-03
1.354277138569284489e+03 5.393008536974123503e-03
1.355177588794397025e+03 5.636037512468976968e-03
1.356078039019509788e+03 5.885242908257293758e-03
1.356978489244622324e+03 6.104520169949887061e-03
1.357878939469734860e+03 6.282905439098924842e-03
1.358779389694847396e+03 6.431174649791615051e-03
1.359679839919959932e+03 6.567038926198028731e-03
1.360580290145072468e+03 6.719559325662712024e-03
1.361480740370185003e+03 6.917190294847554502e-03
1.362381190595297539e+03 7.173595646650612889e-03
1.363281640820410075e+03 7.490722195164813135e-03
1.364182091045522611e+03 7.861876224072019900e-03
1.365082541270635147e+03 8.272407696198530100e-03
1.365982991495747910e+03 8.711746380534120954e-03
1.366883441720860446e+03 9.169587409528679942e-03
1.367783891945972982e+03 9.618467979860672104e-03
1.368684342171085518e+03 1.004005810829278721e-02
1.369584792396198054e+03 1.044647575499910684e-02
1.370485242621310590e+03 1.086238175627155834e-02
1.371385692846423126e+03 1.131351326265654308e-02
1.372286143071535662e+03 1.183792779382884450e-02
1.373186593296648198e+03 1.249773373041536753e-02
1.374087043521760734e+03 1.333771583765476325e-02
1.374987493746873270e+03 1.433388524720811789e-02
1.375887943971986033e+03 1.539355302698898822e-02
1.376788394197098569e+03 1.641417868175073375e-02
1.377688844422211105e+03 1.738007829815666622e-02
1.378589294647323641e+03 1.837994524809096614e-02
1.379489744872436177e+03 1.950753663403657912e-02
1.380390195097548713e+03 2.075512461964630975e-02
1.381290645322661248e+03 2.203681855974590903e-02
1.382191095547773784e+03 2.331923266214784921e-02
1.383091545772886320e+03 2.466186713812584114e-02
1.383991995997998856e+03 2.614134906631593314e-02
1.384892446223111392e+03 2.780194311526748563e-02
1.385792896448224155e+03 2.962172993618551048e-02
1.386693346673336691e+03 3.150691556779969954e-02
1.387593796898449227e+03 3.344504108474326276e-02
1.388494247123561763e+03 3.556398521676496643e-02
1.389394697348674299e+03 3.794423738589532136e-02
1.390295147573786835e+03 4.050167686930489924e-02
1.391195597798899371e+03 4.298957700993564363e-02
1.392096048024011907e+03 4.498691164907063500e-02
1.392996498249124443e+03 4.625522304910492655e-02
1.393896948474236979e+03 4.702346733577785626e-02
1.394797398699349515e+03 4.758496622376674062e-02
1.395697848924462278e+03 4.800380311559182545e-02
1.396598299149574814e+03 4.822234069942909346e-02
1.397498749374687350e+03 4.819044675499613989e-02
1.398399199599799886e+03 4.787451073064554613e-02
1.399299649824912422e+03 4.717902654544867819e-02
1.400200100050024957e+03 4.596811406447870452e-02
1.401100550275137493e+03 4.427137768401642054e-02
1.402001000500250029e+03 4.226812700117419525e-02
1.402901450725362565e+03 3.998521865146925647e-02
1.403801900950475101e+03 3.732203176744945672e-02
1.404702351175587637e+03 3.433039021923987855e-02
1.405602801400700173e+03 3.123876712136355177e-02
1.406503251625812936e+03 2.828583516805235898e-02
1.407403701850925472e+03 2.556495548787934141e-02
1.408304152076038008e+03 2.303838847895946229e-02
1.409204602301150544e+03 2.072218549644536112e-02
1.410105052526263080e+03 1.873805693589054508e-02
1.411005502751375616e+03 1.712421669270535948e-02
1.411905952976488152e+03 1.576930564419540964e-02
1.412806403201600688e+03 1.453525304274645540e-02
1.413706853426713224e+03 1.336594602898468452e-02
1.414607303651825760e+03 1.228382013702206295e-02
1.415507753876938295e+03 1.132214418572994111e-02
1.416408204102051059e+03 1.048988624958590611e-02
1.417308654327163595e+03 9.754139542740276544e-03
1.418209104552276131e+03 9.069600168313679545e-03
1.419109554777388666e+03 8.431963048736531088e-03
1.420010005002501202e+03 7.867396242563856612e-03
1.420910455227613738e+03 7.390804761152716326e-03
1.421810905452726274e+03 6.987565629342248723e-03
1.422711355677838810e+03 6.624542842342496726e-03
1.423611805902951346e+03 6.275314470792727438e-03
1.424512256128063882e+03 5.941666890102966989e-03
1.425412706353176418e+03 5.641010302681250844e-03
1.426313156578289181e+03 5.377239129089899164e-03
1.427213606803401717e+03 5.138448826598389016e-03
1.428114057028514253e+03 4.910305462164935020e-03
1.429014507253626789e+03 4.682429658581886180e-03
1.429914957478739325e+03 4.455993196736295764e-03
1.430815407703851861e+03 4.243888176257113419e-03
1.431715857928964397e+03 4.052425081851967169e-03
1.432616308154076933e+03 3.871170261945228262e-03
1.433516758379189469e+03 3.686961774841615667e-03
1.434417208604302004e+03 3.502760829657615340e-03
1.435317658829414540e+03 3.331972793003455755e-03
1.436218109054527304e+03 3.181689214893176302e-03
1.437118559279639840e+03 3.050615164099220334e-03
1.438019009504752376e+03 2.935207901019110457e-03
1.438919459729864911e+03 2.832119286985858818e-03
1.439819909954977447e+03 2.741475134580926426e-03
1.440720360180089983e+03 2.657976683711921109e-03
1.441620810405202519e+03 2.569249240906261965e-03
1.442521260630315055e+03 2.471488098924916853e-03
1.443421710855427591e+03 2.373147499667921986e-03
1.444322161080540127e+03 2.282466569366274102e-03
1.445222611305652663e+03 2.200682833679582211e-03
1.446123061530765426e+03 2.127192492213055876e-03
1.447023511755877962e+03 2.064530298711870094e-03
1.447923961980990498e+03 2.016170232376667676e-03
1.448824412206103034e+03 1.978010252082737161e-03
1.449724862431215570e+03 1.936539902645350100e-03
1.450625312656328106e+03 1.883286198275749192e-03
1.451525762881440642e+03 1.824237352366883756e-03
1.452426213106553178e+03 1.766881805412547730e-03
1.453326663331665713e+03 1.713834549415523944e-03
1.454227113556778249e+03 1.669191880318379381e-03
1.455127563781890785e+03 1.638418661956408300e-03
1.456028014007003321e+03 1.622479312702476131e-03
1.456928464232116085e+03 1.615611999621968838e-03
1.457828914457228620e+03 1.609370543906554719e-03
1.458729364682341156e+03 1.599980639356295966e-03
1.459629814907453692e+03 1.588090730576743534e-03
1.460530265132566228e+03 1.573228995436771723e-03
1.461430715357678764e+03 1.552421890241954382e-03
1.462331165582791300e+03 1.521666527460260659e-03
1.463231615807903836e+03 1.479825607593220245e-03
1.464132066033016372e+03 1.430158938630831864e-03
1.465032516258128908e+03 1.379854214355636342e-03
1.465932966483241444e+03 1.337307047430518099e-03
1.466833416708354207e+03 1.306206636711707307e-03
1.467733866933466743e+03 1.284473026741025578e-03
1.468634317158579279e+03 1.267743639855401080e-03
1.469534767383691815e+03 1.251623381940395211e-03
1.470435217608804351e+03 1.232524640243798765e-03
1.471335667833916887e+03 1.209556881928950528e-03
1.472236118059029423e+03 1.185977472783028173e-03
1.473136568284141958e+03 1.164500942367480011e-03
1.474037018509254494e+03 1.143836259851604064e-03
1.474937468734367030e+03 1.121869799867677032e-03
1.475837918959479566e+03 1.099657389002127146e-03
1.476738369184592329e+03 1.077425851217393357e-03
1.477638819409704865e+03 1.052995882312493395e-03
1.478539269634817401e+03 1.026465231406253377e-03
1.479439719859929937e+03 9.989537784915803516e-04
1.480340170085042473e+03 9.697039420982522025e-04
1.481240620310155009e+03 9.387927852967009644e-04
1.482141070535267545e+03 9.089085616319289443e-04
1.483041520760380081e+03 8.825353453089046724e-04
1.483941970985492617e+03 8.603514835322536008e-04
1.484842421210605153e+03 8.414184540412020154e-04
1.485742871435717689e+03 8.237782565848676642e-04
1.486643321660830452e+03 8.074904023297402788e-04
1.487543771885942988e+03 7.937510129022882707e-04
1.488444222111055524e+03 7.819371495190836560e-04
1.489344672336168060e+03 7.712941236190512528e-04
1.490245122561280596e+03 7.623932263841803805e-04
1.491145572786393132e+03 7.550174617719496422e-04
1.492046023011505667e+03 7.475843102732411581e-04
1.492946473236618203e+03 7.395223402022161685e-04
1.493846923461730739e+03 7.310866321874338446e-04
1.494747373686843275e+03 7.229426267491947163e-04
1.495647823911955811e+03 7.156929389486383275e-04
1.496548274137068574e+03 7.079926156360875260e-04
1.497448724362181110e+03 6.977393393266117941e-04
1.498349174587293646e+03 6.850144851185631161e-04
1.499249624812406182e+03 6.731015133926153719e-04
1.500150075037518718e+03 6.648996530158000082e-04
1.501050525262631254e+03 6.597278934181221785e-04
1.501950975487743790e+03 6.551153022284907741e-04
1.502851425712856326e+03 6.485699277743401997e-04
1.503751875937968862e+03 6.389164547507994148e-04
1.504652326163081398e+03 6.278891790375418095e-04
1.505552776388193934e+03 6.179490611576013512e-04
1.506453226613306470e+03 6.090561099919408663e-04
1.507353676838419233e+03 5.990394176009967465e-04
1.508254127063531769e+03 5.863435620351161674e-04
1.509154577288644305e+03 5.713075583390698131e-04
1.510055027513756841e+03 5.551887253878146728e-04
1.510955477738869376e+03 5.397427137655389255e-04
1.511855927963981912e+03 5.269459649202617654e-04
1.512756378189094448e+03 5.171851197731150125e-04
1.513656828414206984e+03 5.089045485358077237e-04
1.514557278639319520e+03 5.004683162120238029e-04
1.515457728864432056e+03 4.914838921216997799e-04
1.516358179089544592e+03 4.832746194845739980e-04
1.517258629314657355e+03 4.774275406058092991e-04
1.518159079539769891e+03 4.740729032705921905e-04
1.519059529764882427e+03 4.729874905841065583e-04
1.519959979989994963e+03 4.739475976796081241e-04
1.520860430215107499e+03 4.757016640945488069e-04
1.521760880440220035e+03 4.764896261208895895e-04
1.522661330665332571e+03 4.749448657654696082e-04
1.523561780890445107e+03 4.704696765902924164e-04
1.524462231115557643e+03 4.642609869337094297e-04
1.525362681340670179e+03 4.595226330318903304e-04
1.526263131565782714e+03 4.585497298211780367e-04
1.527163581790895478e+03 4.598105541008511436e-04
1.528064032016008014e+03 4.606070732254325295e-04
1.528964482241120550e+03 4.606259608054724436e-04
1.529864932466233086e+03 4.605097956803519605e-04
1.530765382691345621e+03 4.602527461177154328e-04
1.531665832916458157e+03 4.593373990991365887e-04
1.532566283141570693e+03 4.570054831654393724e-04
1.533466733366683229e+03 4.526990886483448330e-04
1.534367183591795765e+03 4.470879971918376053e-04
1.535267633816908301e+03 4.419440734698561711e-04
1.536168084042020837e+03 4.384688826405348425e-04
1.537068534267133600e+03 4.363812202431649142e-04
1.537968984492246136e+03 4.349282693758938856e-04
1.538869434717358672e+03 4.334975056782060959e-04
1.539769884942471208e+03 4.311914667847025645e-04
1.540670335167583744e+03 4.280007520893757442e-04
1.541570785392696280e+03 4.255668630290704605e-04
1.542471235617808816e+03 4.254004749761839668e-04
1.543371685842921352e+03 4.268787385201934601e-04
1.544272136068033888e+03 4.274050847847870520e-04
1.545172586293146423e+03 4.252365404911606769e-04
1.546073036518258959e+03 4.220440064287044653e-04
1.546973486743371723e+03 4.207433135738814401e-04
1.547873936968484259e+03 4.221327973673331610e-04
1.548774387193596795e+03 4.246615688615465781e-04
1.549674837418709330e+03 4.259429812429724638e-04
1.550575287643821866e+03 4.249565592243243341e-04
1.551475737868934402e+03 4.230952572707741429e-04
1.552376188094046938e+03 4.225277612474876961e-04
1.553276638319159474e+03 4.247430965162434522e-04
1.554177088544272010e+03 4.305880209217573056e-04
1.555077538769384546e+03 4.396377775897335346e-04
1.555977988994497082e+03 4.514517791654354168e-04
1.556878439219609618e+03 4.657880550298006150e-04
1.557778889444722381e+03 4.804748297145574709e-04
1.558679339669834917e+03 4.924017970073703157e-04
1.559579789894947453e+03 5.009772928624831772e-04
1.560480240120059989e+03 5.099992597763430358e-04
1.561380690345172525e+03 5.233928553005358190e-04
1.562281140570285061e+03 5.415457787946529461e-04
1.563181590795397597e+03 5.634303467850640618e-04
1.564082041020510133e+03 5.878931549712928823e-04
1.564982491245622668e+03 6.122701531379834590e-04
1.565882941470735204e+03 6.318802650858912004e-04
1.566783391695847740e+03 6.418445036460385328e-04
1.567683841920960504e+03 6.408729437810411784e-04
1.568584292146073039e+03 6.294570560895807214e-04
1.569484742371185575e+03 6.040901972767805756e-04
1.570385192596298111e+03 5.614333832292255511e-04
1.571285642821410647e+03 5.074941680217278685e-04
1.572186093046523183e+03 4.538051592849724151e-04
1.573086543271635719e+03 4.072888292615043618e-04
1.573986993496748255e+03 3.682440661146515614e-04
1.574887443721860791e+03 3.330350587315447186e-04
1.575787893946973327e+03 2.983937569906450682e-04
1.576688344172085863e+03 2.647350477317082806e-04
1.577588794397198626e+03 2.348090920365645076e-04
1.578489244622311162e+03 2.108291177918923123e-04
1.579389694847423698e+03 1.936618239935287110e-04
1.580290145072536234e+03 1.822059759160185512e-04
1.581190595297648770e+03 1.734450108021493942e-04
1.582091045522761306e+03 1.652620858263946068e-04
1.582991495747873842e+03 1.578289727901985133e-04
1.583891945972986377e+03 1.504707223251480601e-04
1.584792396198098913e+03 1.411774599588335604e-04
1.585692846423211449e+03 1.299055130172425759e-04
1.586593296648323985e+03 1.185973890430605060e-04
1.587493746873436749e+03 1.085463192475063745e-04
1.588394197098549284e+03 1.000792004017925474e-04
1.589294647323661820e+03 9.318075814988365142e-05
1.590195097548774356e+03 8.768842379110720572e-05
1.591095547773886892e+03 8.332786169354939698e-05
1.591995997998999428e+03 7.983820681910345932e-05
1.592896448224111964e+03 7.703136545393077727e-05
1.593796898449224500e+03 7.470709398041683400e-05
1.594697348674337036e+03 7.266147504626475028e-05
1.595597798899449572e+03 7.081172027543567306e-05
1.596498249124562108e+03 6.908189590454924880e-05
1.597398699349674871e+03 6.729918709783054911e-05
1.598299149574787407e+03 6.546060585688084541e-05
1.599199599799899943e+03 6.377109313037303869e-05
1.600100050025012479e+03 6.238228137674400756e-05
1.601000500250125015e+03 6.133457727029189058e-05
1.601900950475237551e+03 6.060185210028437293e-05
1.602801400700350086e+03 6.005403293451535592e-05
1.603701850925462622e+03 5.940121802325726719e-05
1.604602301150575158e+03 5.841555849898958459e-05
1.605502751375687694e+03 5.724781194859324227e-05
1.606403201600800230e+03 5.619794615212137640e-05
1.607303651825912766e+03 5.542215355058894335e-05
1.608204102051025529e+03 5.496669768198911472e-05
1.609104552276138065e+03 5.486514329857084877e-05
1.610005002501250601e+03 5.518722806993058851e-05
1.610905452726363137e+03 5.606321893446859214e-05
1.611805902951475673e+03 5.769917602935385135e-05
1.612706353176588209e+03 6.035532127214656182e-05
1.613606803401700745e+03 6.416690679167828056e-05
1.614507253626813281e+03 6.858386310826510642e-05
1.615407703851925817e+03 7.169377649930324455e-05
1.616308154077038353e+03 7.117667125952563639e-05
1.617208604302150889e+03 6.702746787868435734e-05
1.618109054527263652e+03 6.160372957688030012e-05
1.619009504752376188e+03 5.684457024135406176e-05
1.619909954977488724e+03 5.330306907667242949e-05
1.620810405202601260e+03 5.086320931058586941e-05
1.621710855427713796e+03 4.929517772409414383e-05
1.622611305652826331e+03 4.839077496162095328e-05
1.623511755877938867e+03 4.787692676674772227e-05
1.624412206103051403e+03 4.731443306500238491e-05
1.625312656328163939e+03 4.635432890374673037e-05
1.626213106553276475e+03 4.508002660793098917e-05
1.627113556778389011e+03 4.373104850166531547e-05
1.628014007003501774e+03 4.246997627072926620e-05
1.628914457228614310e+03 4.139884319458550955e-05
1.629814907453726846e+03 4.054356907994037198e-05
1.630715357678839382e+03 3.988492610995284481e-05
1.631615807903951918e+03 3.940231604880307475e-05
1.632516258129064454e+03 3.909283199375225825e-05
1.633416708354176990e+03 3.897560134492485644e-05
1.634317158579289526e+03 3.908553575488900967e-05
1.635217608804402062e+03 3.943545649624392705e-05
1.636118059029514598e+03 3.989822769807178579e-05
1.637018509254627133e+03 4.006290673551693503e-05
1.637918959479739897e+03 3.949225463592814095e-05
1.638819409704852433e+03 3.832457654136041012e-05
1.639719859929964969e+03 3.705470527625361223e-05
1.640620310155077505e+03 3.596079269320834993e-05
1.641520760380190040e+03 3.508020397069472096e-05
1.642421210605302576e+03 3.436880187731299079e-05
1.643321660830415112e+03 3.377753646526521469e-05
1.644222111055527648e+03 3.326981349039266579e-05
1.645122561280640184e+03 3.282091199332305166e-05
1.646023011505752720e+03 3.241448495014205344e-05
1.646923461730865256e+03 3.203964750525764593e-05
1.647823911955978019e+03 3.168901978875346160e-05
1.648724362181090555e+03 3.135748606859430109e-05
1.649624812406203091e+03 3.104141677656201620e-05
1.650525262631315627e+03 3.073817714379727367e-05
1.651425712856428163e+03 3.044581213087891157e-05
1.652326163081540699e+03 3.016284068552223431e-05
1.653226613306653235e+03 2.988811879589808518e-05
1.654127063531765771e+03 2.962074658840010874e-05
1.655027513756878307e+03 2.936000413876229035e-05
1.655927963981990843e+03 2.910530634220137548e-05
1.656828414207103378e+03 2.885617065720679349e-05
1.657728864432216142e+03 2.861219369131315097e-05
1.658629314657328678e+03 2.837303395663309276e-05
1.659529764882441214e+03 2.813839899529675342e-05
1.660430215107553749e+03 2.790803564383287404e-05
1.661330665332666285e+03 2.768172258231412766e-05
1.662231115557778821e+03 2.745926456736927983e-05
1.663131565782891357e+03 2.724048792083085771e-05
1.664032016008003893e+03 2.702523696508886411e-05
1.664932466233116429e+03 2.681337117970941419e-05
1.665832916458228965e+03 2.660476291298454445e-05
1.666733366683341501e+03 2.639929552443466183e-05
1.667633816908454037e+03 2.619686186494289972e-05
1.668534267133566800e+03 2.599736302362134834e-05
1.669434717358679336e+03 2.580070728708346833e-05
1.670335167583791872e+03 2.560680926913000584e-05
1.671235617808904408e+03 2.541558917815015241e-05
1.672136068034016944e+03 2.522697219657198058e-05
1.673036518259129480e+03 2.504088795207528234e-05
1.673936968484242016e+03 2.485727006442514769e-05
1.674837418709354552e+03 2.467605575499246613e-05
1.675737868934467087e+03 2.449718550853857341e-05
1.676638319159579623e+03 2.432060277881018049e-05
1.677538769384692159e+03 2.414625373105285690e-05
1.678439219609804923e+03 2.397408701579037041e-05
1.679339669834917459e+03 2.380405356920984659e-05
1.680240120060029994e+03 2.363610643629404559e-05
1.681140570285142530e+03 2.347020061348530730e-05
1.682041020510255066e+03 2.330629290819476597e-05
1.682941470735367602e+03 2.314434181289857332e-05
1.683841920960480138e+03 2.298430739191479106e-05
1.684742371185592674e+03 2.282615117924813081e-05
1.685642821410705210e+03 2.266983608612509324e-05
1.686543271635817746e+03 2.251532631705340616e-05
1.687443721860930282e+03 2.236258729339122965e-05
1.688344172086043045e+03 2.221158558357108907e-05
1.689244622311155581e+03 2.206228883922102768e-05
1.690145072536268117e+03 2.191466573654504772e-05
1.691045522761380653e+03 2.176868592239580581e-05
1.691945972986493189e+03 2.162431996454881192e-05
1.692846423211605725e+03 2.148153930575228451e-05
1.693746873436718261e+03 2.134031622117490206e-05
1.694647323661830796e+03 2.120062377891952245e-05
1.695547773886943332e+03 2.106243580331389653e-05
1.696448224112055868e+03 2.092572684071713387e-05
1.697348674337168404e+03 2.079047212761581036e-05
1.698249124562281168e+03 2.065664756080464094e-05
1.699149574787393703e+03 2.052422966946925614e-05
1.700050025012506239e+03 2.039319558901288743e-05
1.700950475237618775e+03 2.026352303647766662e-05
1.701850925462731311e+03 2.013519028743207485e-05
1.702751375687843847e+03 2.000817615420913141e-05
1.703651825912956383e+03 1.988245996538670203e-05
1.704552276138068919e+03 1.975802154641575044e-05
1.705452726363181455e+03 1.963484120131265965e-05
1.706353176588293991e+03 1.951289969533248186e-05
1.707253626813406527e+03 1.939217823855790890e-05
1.708154077038519290e+03 1.927265847033408976e-05
1.709054527263631826e+03 1.915432244449386535e-05
1.709954977488744362e+03 1.903715261531808563e-05
1.710855427713856898e+03 1.892113182418204710e-05
1.711755877938969434e+03 1.880624328684224312e-05
1.712656328164081970e+03 1.869247058132581215e-05
1.713556778389194506e+03 1.857979763637676436e-05
1.714457228614307041e+03 1.846820872043405688e-05
1.715357678839419577e+03 1.835768843109928124e-05
1.716258129064532113e+03 1.824822168507376962e-05
1.717158579289644649e+03 1.813979370852851467e-05
1.718059029514757185e+03 1.803239002788902022e-05
1.718959479739869948e+03 1.792599646100605349e-05
1.719859929964982484e+03 1.782059910869396885e-05
1.720760380190095020e+03 1.771618434661417053e-05
1.721660830415207556e+03 1.761273881748550959e-05
1.722561280640320092e+03 1.751024942360572840e-05
1.723461730865432628e+03 1.740870331966230919e-05
1.724362181090545164e+03 1.730808790582418169e-05
1.725262631315657700e+03 1.720839082109657691e-05
1.726163081540770236e+03 1.710959993692285873e-05
1.727063531765882772e+03 1.701170335102795980e-05
1.727963981990995308e+03 1.691468938148442443e-05
1.728864432216108071e+03 1.681854656099494979e-05
1.729764882441220607e+03 1.672326363137818109e-05
1.730665332666333143e+03 1.662882953825040172e-05
1.731565782891445679e+03 1.653523342589221888e-05
1.732466233116558215e+03 1.644246463229200121e-05
1.733366683341670750e+03 1.635051268435996300e-05
1.734267133566783286e+03 1.625936729330050820e-05
1.735167583791895822e+03 1.616901835014281354e-05
1.736068034017008358e+03 1.607945592141543455e-05
1.736968484242120894e+03 1.599067024496414130e-05
1.737868934467233430e+03 1.590265172590331778e-05
1.738769384692346193e+03 1.581539093269781788e-05
1.739669834917458729e+03 1.572887859336770212e-05
1.740570285142571265e+03 1.564310559181295834e-05
1.741470735367683801e+03 1.555806296425008486e-05
1.742371185592796337e+03 1.547374189576036687e-05
1.743271635817908873e+03 1.539013371694139936e-05
1.744172086043021409e+03 1.530722990065934251e-05
1.745072536268133945e+03 1.522502205889923654e-05
1.745972986493246481e+03 1.514350193970693146e-05
1.746873436718359017e+03 1.506266142422133611e-05
1.747773886943471553e+03 1.498249252379214288e-05
1.748674337168584316e+03 1.490298737718096830e-05
1.749574787393696852e+03 1.482413824784177924e-05
1.750475237618809388e+03 1.474593752127827211e-05
1.751375687843921924e+03 1.466837770247525731e-05
1.752276138069034459e+03 1.459145141340092675e-05
1.753176588294146995e+03 1.451515139057928119e-05
1.754077038519259531e+03 1.443947048272622896e-05
1.754977488744372067e+03 1.436440164845292557e-05
1.755877938969484603e+03 1.428993795402805670e-05
1.756778389194597139e+03 1.421607257120135991e-05
1.757678839419709675e+03 1.414279877508426182e-05
1.758579289644822438e+03 1.407010994208578245e-05
1.759479739869934974e+03 1.399799954790325456e-05
1.760380190095047510e+03 1.392646116556331083e-05
1.761280640320160046e+03 1.385548846351450975e-05
1.762181090545272582e+03 1.378507520376840658e-05
1.763081540770385118e+03 1.371521524008694349e-05
1.763981990995497654e+03 1.364590251621570488e-05
1.764882441220610190e+03 1.357713106416157410e-05
1.765782891445722726e+03 1.350889500251203378e-05
1.766683341670835262e+03 1.344118853479729207e-05
1.767583791895947797e+03 1.337400594789072360e-05
1.768484242121060333e+03 1.330734161044942934e-05
1.769384692346173097e+03 1.324118997139151356e-05
1.770285142571285633e+03 1.317554555841010009e-05
1.771185592796398169e+03 1.311040297652305436e-05
1.772086043021510704e+03 1.304575690665612935e-05
1.772986493246623240e+03 1.298160210426012673e-05
1.773886943471735776e+03 1.291793339795960822e-05
1.774787393696848312e+03 1.285474568823378751e-05
1.775687843921960848e+03 1.279203394612707505e-05
1.776588294147073384e+03 1.272979321198915884e-05
1.777488744372185920e+03 1.266801859424430293e-05
1.778389194597298456e+03 1.260670526818818445e-05
1.779289644822411219e+03 1.254584847481132933e-05
1.780190095047523755e+03 1.248544351964969707e-05
1.781090545272636291e+03 1.242548577165994288e-05
1.781990995497748827e+03 1.236597066212024685e-05
1.782891445722861363e+03 1.230689368355483276e-05
1.783791895947973899e+03 1.224825038868223436e-05
1.784692346173086435e+03 1.219003638938617581e-05
1.785592796398198971e+03 1.213224735570873408e-05
1.786493246623311506e+03 1.207487901486543103e-05
1.787393696848424042e+03 1.201792715028082888e-05
1.788294147073536578e+03 1.196138760064516071e-05
1.789194597298649342e+03 1.190525625899058185e-05
1.790095047523761878e+03 1.184952907178676391e-05
1.790995497748874413e+03 1.179420203805587079e-05
1.791895947973986949e+03 1.173927120850525277e-05
1.792796398199099485e+03 1.168473268467891945e-05
1.793696848424212021e+03 1.163058261812552808e-05
1.794597298649324557e+03 1.157681720958450008e-05
1.795497748874437093e+03 1.152343270818783477e-05
1.796398199099549629e+03 1.147042541067851486e-05
1.797298649324662165e+03 1.141779166064430747e-05
1.798199099549774701e+03 1.136552784776823492e-05
1.799099549774887464e+03 1.131363040709219134e-05
1.800000000000000000e+03 1.126209581829635311e-05
