0.000000000000000000e+00 1.530774116263624316e-03
9.004502251125562351e-01 2.054690043104049485e-03
1.800900450225112470e+00 2.762694896591287325e-03
2.701350675337668594e+00 3.582983309527858293e-03
3.601800900450224940e+00 4.202933212869477096e-03
4.502251125562780842e+00 4.199961110431524487e-03
5.402701350675337189e+00 3.579517731694043838e-03
6.303151575787893535e+00 2.762454422757577334e-03
7.203601800900449881e+00 2.055990367447044307e-03
8.104052026013006227e+00 1.532192130934601198e-03
9.004502251125561685e+00 1.161768909139059697e-03
9.904952476238118919e+00 9.004557817994984954e-04
1.080540270135067438e+01 7.133164991599326519e-04
1.170585292646323161e+01 5.764822606717485238e-04
1.260630315157578707e+01 4.742446967657790472e-04
1.350675337668834430e+01 3.962723464702400610e-04
1.440720360180089976e+01 3.356759112787501735e-04
1.530765382691345522e+01 2.877725816781025441e-04
1.620810405202601245e+01 2.493251290176266627e-04
1.710855427713856969e+01 2.180660944502775100e-04
1.800900450225112337e+01 1.923755060820233481e-04
1.890945472736368060e+01 1.710673066512062525e-04
1.980990495247623784e+01 1.532393910207215809e-04
2.071035517758879507e+01 1.381384100032528092e-04
2.161080540270134875e+01 1.250841941322821326e-04
2.251125562781390599e+01 1.135899090094956589e-04
2.341170585292646322e+01 1.034585481570427716e-04
2.431215607803901690e+01 9.458846229373949984e-05
2.521260630315157414e+01 8.683534261304282650e-05
2.611305652826413137e+01 8.003647834647476640e-05
2.701350675337668861e+01 7.404657319587005658e-05
2.791395697848924229e+01 6.874740710472431870e-05
2.881440720360179952e+01 6.404583734892064400e-05
2.971485742871435676e+01 5.986854221562740814e-05
3.061530765382691044e+01 5.615235058008334243e-05
3.151575787893946767e+01 5.282362060174979176e-05
3.241620810405202491e+01 4.977791223214683084e-05
3.331665832916458214e+01 4.692244931536363139e-05
3.421710855427713938e+01 4.425494308643394538e-05
3.511755877938969661e+01 4.181622957388897292e-05
3.601800900450224674e+01 3.959860233355147404e-05
3.691845922961480397e+01 3.754074606463394381e-05
3.781890945472736121e+01 3.559520313981359187e-05
3.871935967983991844e+01 3.377414431650790737e-05
3.961980990495247568e+01 3.210209594309388161e-05
4.052026013006503291e+01 3.057933546347644166e-05
4.142071035517759015e+01 2.918687942891546425e-05
4.232116058029014027e+01 2.789422292600923355e-05
4.322161080540269751e+01 2.667502795438241161e-05
4.412206103051525474e+01 2.552632795542237356e-05
4.502251125562781198e+01 2.445632993087455971e-05
4.592296148074036921e+01 2.346644883390089145e-05
4.682341170585292645e+01 2.255215980180304655e-05
4.772386193096548368e+01 2.170816489553050794e-05
4.862431215607803381e+01 2.093077682591067360e-05
4.952476238119059104e+01 2.021874264955013443e-05
5.042521260630314828e+01 1.957387970041701418e-05
5.132566283141570551e+01 1.900200537626202578e-05
5.222611305652826275e+01 1.851386016312330546e-05
5.312656328164081998e+01 1.812379970714275715e-05
5.402701350675337721e+01 1.783824000186597376e-05
5.492746373186592734e+01 1.761796249908248422e-05
5.582791395697848458e+01 1.733014202093429413e-05
5.672836418209104181e+01 1.682227935454859712e-05
5.762881440720359905e+01 1.612024152501985785e-05
5.852926463231615628e+01 1.538829749471685852e-05
5.942971485742871351e+01 1.473485884737268227e-05
6.033016508254127075e+01 1.418283210232882894e-05
6.123061530765382088e+01 1.372112539958110286e-05
6.213106553276637811e+01 1.333067204575862328e-05
6.303151575787893535e+01 1.298384925000463563e-05
6.393196598299149258e+01 1.264489482925779324e-05
6.483241620810404982e+01 1.229299629954171240e-05
6.573286643321659994e+01 1.193599829346310785e-05
6.663331665832916428e+01 1.159531604483042765e-05
6.753376688344171441e+01 1.128777720381676523e-05
6.843421710855427875e+01 1.101994370577355091e-05
6.933466733366682888e+01 1.079385601092762092e-05
7.023511755877939322e+01 1.061241817519911690e-05
7.113556778389194335e+01 1.047958432766684872e-05
7.203601800900449348e+01 1.039314175418200802e-05
7.293646823411705782e+01 1.033107519145573292e-05
7.383691845922960795e+01 1.025845305590763707e-05
7.473736868434217229e+01 1.016571498033651396e-05
7.563781890945472242e+01 1.004457516486938493e-05
7.653826913456728676e+01 9.844377018535549703e-06
7.743871935967983688e+01 9.555264604347370487e-06
7.833916958479238701e+01 9.250283683333056291e-06
7.923961980990495135e+01 8.995865371649135116e-06
8.014007003501750148e+01 8.815618107351058381e-06
8.104052026013006582e+01 8.714889364250693108e-06
8.194097048524261595e+01 8.698612262030122863e-06
8.284142071035518029e+01 8.769008101696636190e-06
8.374187093546773042e+01 8.901578991905314907e-06
8.464232116058028055e+01 9.014824120372908693e-06
8.554277138569284489e+01 8.997295436969854617e-06
8.644322161080539502e+01 8.801765905154046113e-06
8.734367183591795936e+01 8.500095324970493636e-06
8.824412206103050949e+01 8.216730299102599768e-06
8.914457228614307382e+01 8.030697475809790058e-06
9.004502251125562395e+01 7.959160089965209634e-06
9.094547273636817408e+01 7.968578358904395589e-06
9.184592296148073842e+01 7.973593213848553405e-06
9.274637318659328855e+01 7.897854214003980576e-06
9.364682341170585289e+01 7.775791764209218337e-06
9.454727363681840302e+01 7.702153324381765597e-06
9.544772386193096736e+01 7.704634851411931815e-06
9.634817408704351749e+01 7.699479842368318802e-06
9.724862431215606762e+01 7.559036767207689125e-06
9.814907453726863196e+01 7.269576353074092423e-06
9.904952476238118209e+01 6.942707526157742967e-06
9.994997498749374643e+01 6.673219285167479043e-06
1.008504252126062966e+02 6.491189457411575826e-06
1.017508754377188609e+02 6.396654001444868900e-06
1.026513256628314110e+02 6.384693054449242181e-06
1.035517758879439612e+02 6.442945705873745676e-06
1.044522261130565255e+02 6.526754402364756424e-06
1.053526763381690756e+02 6.552144318957715966e-06
1.062531265632816400e+02 6.479783167350187791e-06
1.071535767883941901e+02 6.378597565079350645e-06
1.080540270135067544e+02 6.333684872510547619e-06
1.089544772386193046e+02 6.367710243613529710e-06
1.098549274637318547e+02 6.447378535910971281e-06
1.107553776888444190e+02 6.519441503860013824e-06
1.116558279139569692e+02 6.531162671653440226e-06
1.125562781390695335e+02 6.457016865112396033e-06
1.134567283641820836e+02 6.350208195239773819e-06
1.143571785892946480e+02 6.292494434746868156e-06
1.152576288144071981e+02 6.301618648133566755e-06
1.161580790395197482e+02 6.311653399710756466e-06
1.170585292646323126e+02 6.223859350562838106e-06
1.179589794897448627e+02 6.008018716662556407e-06
1.188594297148574270e+02 5.736262007543350847e-06
1.197598799399699772e+02 5.499542475763980151e-06
1.206603301650825415e+02 5.340288406893908609e-06
1.215607803901950916e+02 5.264877657481010459e-06
1.224612306153076418e+02 5.272143924876396594e-06
1.233616808404202061e+02 5.364353100083104478e-06
1.242621310655327562e+02 5.541514335645195396e-06
1.251625812906453206e+02 5.782625175223854575e-06
1.260630315157578707e+02 6.034671054124718227e-06
1.269634817408704350e+02 6.240010799650508885e-06
1.278639319659829852e+02 6.364304948581847203e-06
1.287643821910955353e+02 6.380097721209935217e-06
1.296648324162080996e+02 6.293732614388864696e-06
1.305652826413206640e+02 6.157481331681512606e-06
1.314657328664331999e+02 5.997928033263771288e-06
1.323661830915457642e+02 5.826829134794415969e-06
1.332666333166583286e+02 5.691050507773474656e-06
1.341670835417708929e+02 5.623260413935034044e-06
1.350675337668834288e+02 5.620066874516819371e-06
1.359679839919959932e+02 5.676796232480032524e-06
1.368684342171085575e+02 5.753567608931868890e-06
1.377688844422210934e+02 5.766769851101020118e-06
1.386693346673336578e+02 5.683433066422671945e-06
1.395697848924462221e+02 5.536899875674812467e-06
1.404702351175587864e+02 5.365531814672236812e-06
1.413706853426713224e+02 5.213294057220120633e-06
1.422711355677838867e+02 5.125706548048900419e-06
1.431715857928964510e+02 5.129261042394815703e-06
1.440720360180089870e+02 5.233925524943641957e-06
1.449724862431215513e+02 5.430399669430990790e-06
1.458729364682341156e+02 5.676003151943416455e-06
1.467733866933466800e+02 5.888929921292427190e-06
1.476738369184592159e+02 5.972542126483354819e-06
1.485742871435717802e+02 5.898856354539628846e-06
1.494747373686843446e+02 5.747339068475511445e-06
1.503751875937968805e+02 5.606825290399190840e-06
1.512756378189094448e+02 5.480262996938565751e-06
1.521760880440220092e+02 5.325284671158360910e-06
1.530765382691345735e+02 5.158590800559758039e-06
1.539769884942471094e+02 5.053565540302514564e-06
1.548774387193596738e+02 5.067870754597869529e-06
1.557778889444722381e+02 5.216293287915051636e-06
1.566783391695847740e+02 5.462737811293174473e-06
1.575787893946973384e+02 5.709262951952312879e-06
1.584792396198099027e+02 5.862400188286039028e-06
1.593796898449224670e+02 5.939405440084700416e-06
1.602801400700350030e+02 6.023002768442372760e-06
1.611805902951475673e+02 6.146364522679599925e-06
1.620810405202601316e+02 6.281658943717516705e-06
1.629814907453726676e+02 6.370251356473078024e-06
1.638819409704852319e+02 6.358407060454283847e-06
1.647823911955977962e+02 6.261196046080193406e-06
1.656828414207103606e+02 6.137288121710653959e-06
1.665832916458228965e+02 5.977584151380892880e-06
1.674837418709354608e+02 5.736362933276567211e-06
1.683841920960480252e+02 5.446995280424513784e-06
1.692846423211605611e+02 5.189086331811796031e-06
1.701850925462731254e+02 4.989989092476529201e-06
1.710855427713856898e+02 4.824354997596107952e-06
1.719859929964982541e+02 4.674406047148102970e-06
1.728864432216107900e+02 4.560932980662248073e-06
1.737868934467233544e+02 4.514706117446827888e-06
1.746873436718359187e+02 4.551764317041376110e-06
1.755877938969484546e+02 4.679951793624102366e-06
1.764882441220610190e+02 4.891986427736383255e-06
1.773886943471735833e+02 5.147554151515316081e-06
1.782891445722861476e+02 5.369011673517146714e-06
1.791895947973986836e+02 5.494244358671421023e-06
1.800900450225112479e+02 5.562347011870236196e-06
1.809904952476238122e+02 5.655691385164101937e-06
1.818909454727363482e+02 5.782380807417634938e-06
1.827913956978489125e+02 5.894450720280251037e-06
1.836918459229614768e+02 5.959369970238435728e-06
1.845922961480740412e+02 5.988222473118373067e-06
1.854927463731865771e+02 5.998387391617898391e-06
1.863931965982991414e+02 5.964214625790698914e-06
1.872936468234117058e+02 5.875332769342057383e-06
1.881940970485242417e+02 5.789805947856225482e-06
1.890945472736368060e+02 5.776523417635317288e-06
1.899949974987493704e+02 5.838937414149515392e-06
1.908954477238619347e+02 5.896056530903849207e-06
1.917958979489744706e+02 5.874280305101356648e-06
1.926963481740870350e+02 5.804731968741769209e-06
1.935967983991995993e+02 5.768035139586561179e-06
1.944972486243121352e+02 5.801772993032972295e-06
1.953976988494246996e+02 5.903168210741259877e-06
1.962981490745372639e+02 6.068921324444457976e-06
1.971985992996498283e+02 6.276052116991429492e-06
1.980990495247623642e+02 6.451748722150097542e-06
1.989994997498749285e+02 6.517463036202452757e-06
1.998999499749874929e+02 6.438368636360566039e-06
2.008004002001000288e+02 6.238987825540852655e-06
2.017008504252125931e+02 5.992665408147953056e-06
2.026013006503251574e+02 5.770889632895942923e-06
2.035017508754377218e+02 5.609639680803261237e-06
2.044022011005502577e+02 5.488630801435484713e-06
2.053026513256628220e+02 5.360538778993258386e-06
2.062031015507753864e+02 5.231601842851589700e-06
2.071035517758879223e+02 5.151010529081325194e-06
2.080040020010004866e+02 5.132905313798497662e-06
2.089044522261130510e+02 5.141846473299177932e-06
2.098049024512256153e+02 5.124392246819238035e-06
2.107053526763381512e+02 5.048057853289203625e-06
2.116058029014507156e+02 4.938690192685411262e-06
2.125062531265632799e+02 4.875910202261411026e-06
2.134067033516758158e+02 4.935178599603078741e-06
2.143071535767883802e+02 5.140166761796303673e-06
2.152076038019009445e+02 5.455109391820175601e-06
2.161080540270135089e+02 5.800770040219507068e-06
2.170085042521260448e+02 6.069979055149393161e-06
2.179089544772386091e+02 6.166719474252535982e-06
2.188094047023511735e+02 6.082715471829043785e-06
2.197098549274637094e+02 5.894446198139042923e-06
2.206103051525762737e+02 5.683436285518616138e-06
2.215107553776888381e+02 5.496085080858172141e-06
2.224112056028014024e+02 5.358813330704547728e-06
2.233116558279139383e+02 5.272982814550730528e-06
2.242121060530265027e+02 5.213380742636243451e-06
2.251125562781390670e+02 5.168040706290458152e-06
2.260130065032516029e+02 5.147217832819291692e-06
2.269134567283641672e+02 5.145581830068950034e-06
2.278139069534767316e+02 5.160695381856763306e-06
2.287143571785892959e+02 5.212058381143293566e-06
2.296148074037018318e+02 5.295305025537314351e-06
2.305152576288143962e+02 5.387765720026149239e-06
2.314157078539269605e+02 5.505039732471016752e-06
2.323161580790394964e+02 5.684772094041287742e-06
2.332166083041520608e+02 5.920138621687304231e-06
2.341170585292646251e+02 6.162750896908270318e-06
2.350175087543771895e+02 6.360829765115484072e-06
2.359179589794897254e+02 6.482577813293619178e-06
2.368184092046022897e+02 6.522621698511866843e-06
2.377188594297148541e+02 6.490062127040740023e-06
2.386193096548273900e+02 6.392311009464345365e-06
2.395197598799399543e+02 6.236872790780371592e-06
2.404202101050525187e+02 6.065512782430173923e-06
2.413206603301650830e+02 5.932300176107422140e-06
2.422211105552776189e+02 5.848963526538870785e-06
2.431215607803901833e+02 5.792448008217963062e-06
2.440220110055027476e+02 5.767288002816926988e-06
2.449224612306152835e+02 5.810119791615436324e-06
2.458229114557278479e+02 5.941901726300272687e-06
2.467233616808404122e+02 6.121473072137859173e-06
2.476238119059529765e+02 6.257663303017714638e-06
2.485242621310655124e+02 6.298108957506730773e-06
2.494247123561780768e+02 6.285803676393737566e-06
2.503251625812906411e+02 6.302741468040384725e-06
2.512256128064031770e+02 6.387330285447801209e-06
2.521260630315157414e+02 6.519606659968168746e-06
2.530265132566283057e+02 6.672508449849052813e-06
2.539269634817408701e+02 6.842937944645222850e-06
2.548274137068534060e+02 7.012233073017535675e-06
2.557278639319659703e+02 7.135420732953275165e-06
2.566283141570785347e+02 7.159475290357158812e-06
2.575287643821910706e+02 7.053933592746472575e-06
2.584292146073036633e+02 6.869812811101624317e-06
2.593296648324161993e+02 6.699243697408371277e-06
2.602301150575287352e+02 6.593103085093002204e-06
2.611305652826413279e+02 6.554481535291409961e-06
2.620310155077538639e+02 6.576902941171033798e-06
2.629314657328663998e+02 6.663248330971703263e-06
2.638319159579789925e+02 6.771613980418916228e-06
2.647323661830915285e+02 6.819392306514702245e-06
2.656328164082040644e+02 6.800898183102726724e-06
2.665332666333166571e+02 6.789596169868041213e-06
2.674337168584291931e+02 6.817329847722990367e-06
2.683341670835417858e+02 6.863718438174609277e-06
2.692346173086543217e+02 6.916956633650842893e-06
2.701350675337668577e+02 6.964826221192660966e-06
2.710355177588794504e+02 6.976917559085306298e-06
2.719359679839919863e+02 6.933644889840066612e-06
2.728364182091045222e+02 6.846119118204271821e-06
2.737368684342171150e+02 6.725992080895482940e-06
2.746373186593296509e+02 6.590147496137382963e-06
2.755377688844421868e+02 6.455417180436350841e-06
2.764382191095547796e+02 6.324000514901749470e-06
2.773386693346673155e+02 6.220288061766392204e-06
2.782391195597798514e+02 6.183791424792175921e-06
2.791395697848924442e+02 6.233131046245409002e-06
2.800400200100049801e+02 6.339774032767012566e-06
2.809404702351175729e+02 6.441834623915503505e-06
2.818409204602301088e+02 6.504296146431706354e-06
2.827413706853426447e+02 6.550855336761984076e-06
2.836418209104552375e+02 6.642900090987482519e-06
2.845422711355677734e+02 6.814175786355323501e-06
2.854427213606803093e+02 7.012490721848137369e-06
2.863431715857929021e+02 7.119515626456480366e-06
2.872436218109054380e+02 7.071906605435187033e-06
2.881440720360179739e+02 6.930023933655674684e-06
2.890445222611305667e+02 6.784023617508967897e-06
2.899449724862431026e+02 6.677779177308098914e-06
2.908454227113556385e+02 6.622798919133149696e-06
2.917458729364682313e+02 6.599869996475377035e-06
2.926463231615807672e+02 6.572394952987532277e-06
2.935467733866933600e+02 6.513302554925449263e-06
2.944472236118058959e+02 6.432907411113606337e-06
2.953476738369184318e+02 6.383263839671427084e-06
2.962481240620310246e+02 6.417358719543720221e-06
2.971485742871435605e+02 6.524471636280505107e-06
2.980490245122560964e+02 6.636495945456681959e-06
2.989494747373686891e+02 6.710586705706435765e-06
2.998499249624812251e+02 6.761847732607653953e-06
3.007503751875937610e+02 6.825016699103100422e-06
3.016508254127063537e+02 6.913699776262108003e-06
3.025512756378188897e+02 7.003908875484666412e-06
3.034517258629314256e+02 7.051887883550511668e-06
3.043521760880440183e+02 7.029188982406777858e-06
3.052526263131565543e+02 6.946054828864229742e-06
3.061530765382691470e+02 6.846217221911205315e-06
3.070535267633816829e+02 6.771922731437182390e-06
3.079539769884942189e+02 6.736956899551596825e-06
3.088544272136068116e+02 6.736435248355619539e-06
3.097548774387193475e+02 6.756268339818419789e-06
3.106553276638318835e+02 6.773972977570094235e-06
3.115557778889444762e+02 6.764607782758995793e-06
3.124562281140570121e+02 6.735277365704571820e-06
3.133566783391695481e+02 6.727626786799798306e-06
3.142571285642821408e+02 6.769447847198647401e-06
3.151575787893946767e+02 6.837502877677822369e-06
3.160580290145072127e+02 6.901643270030654720e-06
3.169584792396198054e+02 7.000644088862541477e-06
3.178589294647323413e+02 7.200667527176204862e-06
3.187593796898449341e+02 7.492909808295832057e-06
3.196598299149574700e+02 7.775719192406447167e-06
3.205602801400700059e+02 7.941245481930155262e-06
3.214607303651825987e+02 7.948393635322072303e-06
3.223611805902951346e+02 7.818479662827434193e-06
3.232616308154076705e+02 7.609569552989995633e-06
3.241620810405202633e+02 7.376911530855747802e-06
3.250625312656327992e+02 7.159865981086723463e-06
3.259629814907453351e+02 6.982744583328593428e-06
3.268634317158579279e+02 6.851975263625047157e-06
3.277638819409704638e+02 6.756127468261890413e-06
3.286643321660829997e+02 6.672289138698274304e-06
3.295647823911955925e+02 6.592589173170413499e-06
3.304652326163081284e+02 6.546067619400492693e-06
3.313656828414207212e+02 6.560362954439140828e-06
3.322661330665332571e+02 6.625598922976733005e-06
3.331665832916457930e+02 6.722937779353283437e-06
3.340670335167583858e+02 6.867166356101602884e-06
3.349674837418709217e+02 7.072143145829338148e-06
3.358679339669834576e+02 7.308509081649665592e-06
3.367683841920960504e+02 7.512973846332060734e-06
3.376688344172085863e+02 7.614398816763436132e-06
3.385692846423211222e+02 7.581227879586908660e-06
3.394697348674337150e+02 7.444721394567110955e-06
3.403701850925462509e+02 7.251483807369093938e-06
3.412706353176587868e+02 7.054499137763085747e-06
3.421710855427713796e+02 6.934668456915857546e-06
3.430715357678839155e+02 6.953793136198111590e-06
3.439719859929965082e+02 7.091908141129625278e-06
3.448724362181090441e+02 7.258079898180765877e-06
3.457728864432215801e+02 7.354662098242018928e-06
3.466733366683341728e+02 7.353880131800170045e-06
3.475737868934467087e+02 7.337781065002751690e-06
3.484742371185592447e+02 7.407730652353254292e-06
3.493746873436718374e+02 7.588631072229421120e-06
3.502751375687843733e+02 7.841056920833477654e-06
3.511755877938969093e+02 8.099212679521993621e-06
3.520760380190095020e+02 8.303098147666118056e-06
3.529764882441220379e+02 8.432095499837565658e-06
3.538769384692345739e+02 8.494039175141507682e-06
3.547773886943471666e+02 8.478636905819031687e-06
3.556778389194597025e+02 8.364339313385297814e-06
3.565782891445722953e+02 8.174446936901547182e-06
3.574787393696848312e+02 7.962807584511163845e-06
3.583791895947973671e+02 7.762569367968335225e-06
3.592796398199099599e+02 7.588606183302825872e-06
3.601800900450224958e+02 7.462350657356339941e-06
3.610805402701350317e+02 7.384669481718485891e-06
3.619809904952476245e+02 7.336381330158521799e-06
3.628814407203601604e+02 7.312279438461352180e-06
3.637818909454726963e+02 7.336418047715824686e-06
3.646823411705852891e+02 7.424242001727179690e-06
3.655827913956978250e+02 7.544104310585521769e-06
3.664832416208103609e+02 7.654505841524003861e-06
3.673836918459229537e+02 7.744305126756103829e-06
3.682841420710354896e+02 7.817328874765556868e-06
3.691845922961480824e+02 7.864323829759671842e-06
3.700850425212606183e+02 7.858076055167055493e-06
3.709854927463731542e+02 7.755250994516680777e-06
3.718859429714857470e+02 7.547550967696673658e-06
3.727863931965982829e+02 7.286259333583693567e-06
3.736868434217108188e+02 7.024449136825112132e-06
3.745872936468234116e+02 6.801523104116362815e-06
3.754877438719359475e+02 6.651802834610779685e-06
3.763881940970484834e+02 6.581115924997871869e-06
3.772886443221610762e+02 6.577070642624033853e-06
3.781890945472736121e+02 6.646469302134816775e-06
3.790895447723861480e+02 6.817154568902838100e-06
3.799899949974987408e+02 7.099378877077858088e-06
3.808904452226112767e+02 7.462029151817182084e-06
3.817908954477238694e+02 7.850990932833890826e-06
3.826913456728364054e+02 8.205447624328654073e-06
3.835917958979489413e+02 8.463928163661488859e-06
3.844922461230615340e+02 8.604893372106027849e-06
3.853926963481740700e+02 8.655272693679692166e-06
3.862931465732866059e+02 8.635477103823848178e-06
3.871935967983991986e+02 8.538816016905690785e-06
3.880940470235117346e+02 8.370043167627444638e-06
3.889944972486242705e+02 8.160948376383484230e-06
3.898949474737368632e+02 7.961435697602696891e-06
3.907953976988493991e+02 7.798284494458519498e-06
3.916958479239619351e+02 7.678502199933907483e-06
3.925962981490745278e+02 7.621306778055683955e-06
3.934967483741870637e+02 7.640792419948174078e-06
3.943971985992996565e+02 7.739007721012475409e-06
3.952976488244121924e+02 7.906992497894833614e-06
3.961980990495247283e+02 8.114009855150665574e-06
3.970985492746373211e+02 8.332805816407862456e-06
3.979989994997498570e+02 8.561486883531052453e-06
3.988994497248623929e+02 8.816325545019830311e-06
3.997998999499749857e+02 9.093206442955106621e-06
4.007003501750875216e+02 9.327422099193400978e-06
4.016008004002000575e+02 9.439489670408495202e-06
4.025012506253126503e+02 9.424376377308903700e-06
4.034017008504251862e+02 9.342868181753775925e-06
4.043021510755377221e+02 9.239890226154758162e-06
4.052026013006503149e+02 9.125770394500383771e-06
4.061030515257628508e+02 8.999585380036651219e-06
4.070035017508754436e+02 8.875590759245743981e-06
4.079039519759879795e+02 8.801208817695256308e-06
4.088044022011005154e+02 8.832061412582226621e-06
4.097048524262131082e+02 9.006634096985012390e-06
4.106053026513256441e+02 9.316377301178632470e-06
4.115057528764381800e+02 9.687661650526957008e-06
4.124062031015507728e+02 1.003764430559482585e-05
4.133066533266633087e+02 1.032342594103976406e-05
4.142071035517758446e+02 1.050888004226755114e-05
4.151075537768884374e+02 1.057490067932556282e-05
4.160080040020009733e+02 1.055762516662834890e-05
4.169084542271135092e+02 1.051105640471055802e-05
4.178089044522261020e+02 1.043959546522455937e-05
4.187093546773386379e+02 1.029194887911674279e-05
4.196098049024512306e+02 1.003414569551458993e-05
4.205102551275637666e+02 9.706183035006681292e-06
4.214107053526763025e+02 9.400172442471953202e-06
4.223111555777888952e+02 9.197826826287080598e-06
4.232116058029014312e+02 9.131790962062058295e-06
4.241120560280139671e+02 9.205759951735090034e-06
4.250125062531265598e+02 9.401071796153127725e-06
4.259129564782390958e+02 9.657729451496214861e-06
4.268134067033516317e+02 9.890808591545872667e-06
4.277138569284642244e+02 1.005425074213856174e-05
4.286143071535767604e+02 1.016577474161954520e-05
4.295147573786892963e+02 1.025420758953709969e-05
4.304152076038018890e+02 1.032506570744851734e-05
4.313156578289144250e+02 1.037612307873291868e-05
4.322161080540270177e+02 1.038229941528479344e-05
4.331165582791395536e+02 1.030078644761683076e-05
4.340170085042520896e+02 1.013526862378715150e-05
4.349174587293646823e+02 9.953373563506841848e-06
4.358179089544772182e+02 9.824256225722272648e-06
4.367183591795897541e+02 9.787050955127519046e-06
4.376188094047023469e+02 9.844876616081345923e-06
4.385192596298148828e+02 9.973271980425541178e-06
4.394197098549274187e+02 1.016179827616046187e-05
4.403201600800400115e+02 1.041162470358002096e-05
4.412206103051525474e+02 1.069307849449017656e-05
4.421210605302650833e+02 1.095995244073249329e-05
4.430215107553776761e+02 1.117562923550869967e-05
4.439219609804902120e+02 1.132445206477808142e-05
4.448224112056028048e+02 1.142199274525922291e-05
4.457228614307153407e+02 1.150237874679705881e-05
4.466233116558278766e+02 1.160294056912793035e-05
4.475237618809404694e+02 1.172425838469960384e-05
4.484242121060530053e+02 1.185046842002750282e-05
4.493246623311655412e+02 1.198906961339879063e-05
4.502251125562781340e+02 1.214029322881047759e-05
4.511255627813906699e+02 1.230186343813271529e-05
4.520260130065032058e+02 1.248086224275992434e-05
4.529264632316157986e+02 1.268242524279682823e-05
4.538269134567283345e+02 1.293084494570451014e-05
4.547273636818408704e+02 1.323945728122347988e-05
4.556278139069534632e+02 1.359666850013092277e-05
4.565282641320659991e+02 1.400444620153522180e-05
4.574287143571785919e+02 1.441404702954010273e-05
4.583291645822911278e+02 1.470724143169679178e-05
4.592296148074036637e+02 1.483373787987893457e-05
4.601300650325162565e+02 1.485308075237635685e-05
4.610305152576287924e+02 1.479708445181663271e-05
4.619309654827413283e+02 1.466778098466984555e-05
4.628314157078539210e+02 1.451394402244732899e-05
4.637318659329664570e+02 1.436763511692880063e-05
4.646323161580789929e+02 1.418431360766175783e-05
4.655327663831915856e+02 1.394788555389004137e-05
4.664332166083041216e+02 1.373447866011711464e-05
4.673336668334167143e+02 1.363176396487902942e-05
4.682341170585292502e+02 1.369235489607834403e-05
4.691345672836417862e+02 1.390458340744236072e-05
4.700350175087543789e+02 1.418452042810719994e-05
4.709354677338669148e+02 1.445054762761584382e-05
4.718359179589794508e+02 1.465360196556494812e-05
4.727363681840920435e+02 1.476273200077713341e-05
4.736368184092045794e+02 1.476171604430689086e-05
4.745372686343171154e+02 1.467394736018712745e-05
4.754377188594297081e+02 1.457768353466801082e-05
4.763381690845422440e+02 1.453017896412060368e-05
4.772386193096547800e+02 1.451018239680381022e-05
4.781390695347673727e+02 1.447632730994935332e-05
4.790395197598799086e+02 1.441886505458711898e-05
4.799399699849925014e+02 1.433897708528194174e-05
4.808404202101050373e+02 1.425835387785536862e-05
4.817408704352175732e+02 1.421259755569686312e-05
4.826413206603301660e+02 1.420024082262079475e-05
4.835417708854427019e+02 1.419390814968002894e-05
4.844422211105552378e+02 1.417204903503981320e-05
4.853426713356678306e+02 1.412793725032805512e-05
4.862431215607803665e+02 1.408567164687351410e-05
4.871435717858929024e+02 1.408320497433791336e-05
4.880440220110054952e+02 1.412695086930659034e-05
4.889444722361180311e+02 1.420082627324352405e-05
4.898449224612305670e+02 1.429013165640202835e-05
4.907453726863431598e+02 1.437847593016098898e-05
4.916458229114556957e+02 1.445754961019534637e-05
4.925462731365682885e+02 1.452763594632596305e-05
4.934467233616808244e+02 1.458721113344428944e-05
4.943471735867933603e+02 1.465139269809352981e-05
4.952476238119059531e+02 1.475621200325928344e-05
4.961480740370184890e+02 1.490785731424780455e-05
4.970485242621310249e+02 1.508015906469649804e-05
4.979489744872436177e+02 1.529212096669677832e-05
4.988494247123561536e+02 1.559301984872786011e-05
4.997498749374686895e+02 1.595991369028583611e-05
5.006503251625812823e+02 1.627713677033329281e-05
5.015507753876938182e+02 1.645934252047284363e-05
5.024512256128063541e+02 1.654281603542065527e-05
5.033516758379189469e+02 1.660426494656863026e-05
5.042521260630314828e+02 1.667033863237037938e-05
5.051525762881440755e+02 1.673241143891011771e-05
5.060530265132566115e+02 1.678079183930480063e-05
5.069534767383691474e+02 1.682014489551697981e-05
5.078539269634817401e+02 1.685335926253920180e-05
5.087543771885942760e+02 1.687087298322532649e-05
5.096548274137068120e+02 1.686819572840418579e-05
5.105552776388194047e+02 1.685597418823173892e-05
5.114557278639319406e+02 1.685637329353879309e-05
5.123561780890445334e+02 1.689397320812867760e-05
5.132566283141570693e+02 1.700272243310309685e-05
5.141570785392696052e+02 1.719840943929085882e-05
5.150575287643821412e+02 1.746949008901299701e-05
5.159579789894946771e+02 1.779133613633001931e-05
5.168584292146073267e+02 1.812633616347845798e-05
5.177588794397198626e+02 1.839067479521034888e-05
5.186593296648323985e+02 1.846096167608045653e-05
5.195597798899449344e+02 1.834503818727306420e-05
5.204602301150574704e+02 1.816992279409122691e-05
5.213606803401700063e+02 1.799964885331926416e-05
5.222611305652826559e+02 1.784240688992719059e-05
5.231615807903951918e+02 1.772121820637196946e-05
5.240620310155077277e+02 1.766176598068265930e-05
5.249624812406202636e+02 1.769301134618447797e-05
5.258629314657327996e+02 1.784235854776215191e-05
5.267633816908454492e+02 1.807441346759403178e-05
5.276638319159579851e+02 1.828050955688324792e-05
5.285642821410705210e+02 1.839185988393634357e-05
5.294647323661830569e+02 1.843164497765894150e-05
5.303651825912955928e+02 1.843487740218360230e-05
5.312656328164081287e+02 1.840085040443675682e-05
5.321660830415207784e+02 1.834347450546984913e-05
5.330665332666333143e+02 1.833015659134354559e-05
5.339669834917458502e+02 1.840556031971031522e-05
5.348674337168583861e+02 1.855580289286313692e-05
5.357678839419709220e+02 1.875039656379622410e-05
5.366683341670835716e+02 1.896846550369584737e-05
5.375687843921961075e+02 1.920889061335701226e-05
5.384692346173086435e+02 1.946436613450318724e-05
5.393696848424211794e+02 1.969452392581628685e-05
5.402701350675337153e+02 1.988129433652317362e-05
5.411705852926462512e+02 2.004660767567937595e-05
5.420710355177589008e+02 2.020550437189427007e-05
5.429714857428714367e+02 2.037627081742078857e-05
5.438719359679839727e+02 2.059122880550566309e-05
5.447723861930965086e+02 2.086453164832321032e-05
5.456728364182090445e+02 2.118875146627168690e-05
5.465732866433215804e+02 2.156007119831568957e-05
5.474737368684342300e+02 2.197651179335000026e-05
5.483741870935467659e+02 2.242698289053592043e-05
5.492746373186593019e+02 2.287368398833790177e-05
5.501750875437718378e+02 2.325433908075563529e-05
5.510755377688843737e+02 2.355313344791393982e-05
5.519759879939970233e+02 2.383904568047764998e-05
5.528764382191095592e+02 2.418889969364065276e-05
5.537768884442220951e+02 2.462860606165071341e-05
5.546773386693346310e+02 2.515212768787034698e-05
5.555777888944471670e+02 2.569293919921830294e-05
5.564782391195597029e+02 2.616198355164279184e-05
5.573786893446723525e+02 2.659803160743585447e-05
5.582791395697848884e+02 2.708215574971435706e-05
5.591795897948974243e+02 2.757241232183827608e-05
5.600800400200099602e+02 2.799801469877435500e-05
5.609804902451224962e+02 2.835534434814435109e-05
5.618809404702351458e+02 2.866406933710746198e-05
5.627813906953476817e+02 2.897278854854421040e-05
5.636818409204602176e+02 2.938786482172110081e-05
5.645822911455727535e+02 3.001624130338461762e-05
5.654827413706852894e+02 3.085054997989188736e-05
5.663831915957978254e+02 3.175471037955850969e-05
5.672836418209104750e+02 3.256735857897401714e-05
5.681840920460230109e+02 3.319492425078106020e-05
5.690845422711355468e+02 3.364275038785169642e-05
5.699849924962480827e+02 3.398740734351998348e-05
5.708854427213606186e+02 3.428889643244293917e-05
5.717858929464731546e+02 3.452297382349507474e-05
5.726863431715858042e+02 3.462369582663279386e-05
5.735867933966983401e+02 3.457221157740842564e-05
5.744872436218108760e+02 3.439040997136713130e-05
5.753876938469234119e+02 3.412391573835076784e-05
5.762881440720359478e+02 3.390170113864159090e-05
5.771885942971485974e+02 3.385161214117322535e-05
5.780890445222611334e+02 3.399478444638192280e-05
5.789894947473736693e+02 3.432743797265109842e-05
5.798899449724862052e+02 3.481235114334641965e-05
5.807903951975987411e+02 3.534213084358496450e-05
5.816908454227112770e+02 3.581570088777504565e-05
5.825912956478239266e+02 3.619679059684359718e-05
5.834917458729364625e+02 3.643602426963980681e-05
5.843921960980489985e+02 3.642939697598586278e-05
5.852926463231615344e+02 3.617038055846066071e-05
5.861930965482740703e+02 3.581126166938367061e-05
5.870935467733867199e+02 3.552653614066655615e-05
5.879939969984992558e+02 3.539153090966768990e-05
5.888944472236117917e+02 3.543306409284602520e-05
5.897948974487243277e+02 3.560856702945643771e-05
5.906953476738368636e+02 3.577457212241740085e-05
5.915957978989493995e+02 3.586912498981779007e-05
5.924962481240620491e+02 3.601144116202045298e-05
5.933966983491745850e+02 3.635849850694989873e-05
5.942971485742871209e+02 3.687451667117870016e-05
5.951975987993996569e+02 3.741336160810266931e-05
5.960980490245121928e+02 3.788061510149487470e-05
5.969984992496247287e+02 3.815055312755616032e-05
5.978989494747373783e+02 3.810109321740675497e-05
5.987993996998499142e+02 3.779017693205393065e-05
5.996998499249624501e+02 3.738163417606915514e-05
6.006003001500749860e+02 3.706281045620599682e-05
6.015007503751875220e+02 3.705263183679583216e-05
6.024012006003001716e+02 3.745578179813995187e-05
6.033016508254127075e+02 3.817208882040258426e-05
6.042021010505252434e+02 3.902826515738495368e-05
6.051025512756377793e+02 3.987844280953478085e-05
6.060030015007503152e+02 4.054296736627710176e-05
6.069034517258628512e+02 4.090712787099567933e-05
6.078039019509755008e+02 4.100314657484033909e-05
6.087043521760880367e+02 4.087301303864106239e-05
6.096048024012005726e+02 4.059003204505310329e-05
6.105052526263131085e+02 4.037402440797508162e-05
6.114057028514256444e+02 4.052903400977032590e-05
6.123061530765382940e+02 4.119529041495828423e-05
6.132066033016508300e+02 4.216247754219839205e-05
6.141070535267633659e+02 4.300922545266214198e-05
6.150075037518759018e+02 4.351331542016116942e-05
6.159079539769884377e+02 4.379568972076002806e-05
6.168084042021009736e+02 4.398541952755120085e-05
6.177088544272136232e+02 4.399979909336051596e-05
6.186093046523261592e+02 4.380461514161708344e-05
6.195097548774386951e+02 4.356489042577602505e-05
6.204102051025512310e+02 4.344785325551796392e-05
6.213106553276637669e+02 4.348006670239881651e-05
6.222111055527763028e+02 4.363515787852791680e-05
6.231115557778889524e+02 4.387499770377491644e-05
6.240120060030014884e+02 4.405499652471502341e-05
6.249124562281140243e+02 4.390514492418332493e-05
6.258129064532265602e+02 4.323839904075028060e-05
6.267133566783390961e+02 4.217618670595248755e-05
6.276138069034517457e+02 4.105999930107855279e-05
6.285142571285642816e+02 4.023761182773381574e-05
6.294147073536768175e+02 3.989245421859590569e-05
6.303151575787893535e+02 4.005524715337133846e-05
6.312156078039018894e+02 4.061352450750194419e-05
6.321160580290144253e+02 4.133623339969505706e-05
6.330165082541270749e+02 4.196067255349690794e-05
6.339169584792396108e+02 4.229866417202202757e-05
6.348174087043521467e+02 4.237204242207740710e-05
6.357178589294646827e+02 4.240226911727806169e-05
6.366183091545772186e+02 4.254520525205296379e-05
6.375187593796898682e+02 4.275007290563132955e-05
6.384192096048024041e+02 4.284953878273303730e-05
6.393196598299149400e+02 4.269226124732552075e-05
6.402201100550274759e+02 4.235893998934743722e-05
6.411205602801400119e+02 4.207648084348739747e-05
6.420210105052525478e+02 4.201199162447332493e-05
6.429214607303651974e+02 4.223172568175251204e-05
6.438219109554777333e+02 4.264043921383970092e-05
6.447223611805902692e+02 4.302222561031420590e-05
6.456228114057028051e+02 4.318160042445606361e-05
6.465232616308153411e+02 4.312244249322180376e-05
6.474237118559278770e+02 4.300217682929041312e-05
6.483241620810405266e+02 4.289564344432451632e-05
6.492246123061530625e+02 4.277985786051400095e-05
6.501250625312655984e+02 4.265996347445541584e-05
6.510255127563781343e+02 4.257359323420510725e-05
6.519259629814906702e+02 4.254946891335786548e-05
6.528264132066033198e+02 4.260838749016402233e-05
6.537268634317158558e+02 4.274369404004802164e-05
6.546273136568283917e+02 4.282449964577247795e-05
6.555277638819409276e+02 4.268977501975389666e-05
6.564282141070534635e+02 4.239406512331241050e-05
6.573286643321659994e+02 4.222601855897634187e-05
6.582291145572786490e+02 4.237272302439369978e-05
6.591295647823911850e+02 4.269592265184515411e-05
6.600300150075037209e+02 4.293129600870820595e-05
6.609304652326162568e+02 4.299713302451336962e-05
6.618309154577287927e+02 4.303584105072741849e-05
6.627313656828414423e+02 4.317214378600250615e-05
6.636318159079539782e+02 4.336666784928958779e-05
6.645322661330665142e+02 4.346944485097548034e-05
6.654327163581790501e+02 4.340363657670554405e-05
6.663331665832915860e+02 4.330141812428612121e-05
6.672336168084041219e+02 4.336258982780670924e-05
6.681340670335167715e+02 4.361458922895646565e-05
6.690345172586293074e+02 4.393317450877871216e-05
6.699349674837418434e+02 4.422883553218730576e-05
6.708354177088543793e+02 4.450443348977857759e-05
6.717358679339669152e+02 4.476140230961055274e-05
6.726363181590794511e+02 4.501007618164127455e-05
6.735367683841921007e+02 4.525629388272471663e-05
6.744372186093046366e+02 4.538429703381042152e-05
6.753376688344171725e+02 4.532506452229543556e-05
6.762381190595297085e+02 4.515722411600478833e-05
6.771385692846422444e+02 4.482131638069815284e-05
6.780390195097548940e+02 4.421842966982920541e-05
6.789394697348674299e+02 4.345884246808714361e-05
6.798399199599799658e+02 4.273677820384883999e-05
6.807403701850925017e+02 4.221899866381948157e-05
6.816408204102050377e+02 4.200580062726131481e-05
6.825412706353175736e+02 4.208021251394244175e-05
6.834417208604302232e+02 4.227595786791276560e-05
6.843421710855427591e+02 4.234089807219621729e-05
6.852426213106552950e+02 4.208538382223954964e-05
6.861430715357678309e+02 4.147312990432059125e-05
6.870435217608803669e+02 4.060472454255687809e-05
6.879439719859930165e+02 3.964531165556206581e-05
6.888444222111055524e+02 3.867784582619392488e-05
6.897448724362180883e+02 3.770751274962914283e-05
6.906453226613306242e+02 3.676834424321149614e-05
6.915457728864431601e+02 3.594217284818003276e-05
6.924462231115556961e+02 3.526953379009634999e-05
6.933466733366683457e+02 3.474065722003390455e-05
6.942471235617808816e+02 3.433375534190632984e-05
6.951475737868934175e+02 3.398380320105644274e-05
6.960480240120059534e+02 3.369077832894449887e-05
6.969484742371184893e+02 3.361150622450341085e-05
6.978489244622311389e+02 3.384752993094515056e-05
6.987493746873436749e+02 3.426489646589226507e-05
6.996498249124562108e+02 3.463651027374231914e-05
7.005502751375687467e+02 3.482998928238891276e-05
7.014507253626812826e+02 3.484607447223086362e-05
7.023511755877938185e+02 3.479423606283532129e-05
7.032516258129064681e+02 3.477117450039669296e-05
7.041520760380190040e+02 3.481038181272820369e-05
7.050525262631315400e+02 3.492892312470970422e-05
7.059529764882440759e+02 3.512917269415020109e-05
7.068534267133566118e+02 3.541488028906978399e-05
7.077538769384691477e+02 3.575229488750106792e-05
7.086543271635817973e+02 3.604427295755140728e-05
7.095547773886943332e+02 3.621196765403525826e-05
7.104552276138068692e+02 3.622749201187259294e-05
7.113556778389194051e+02 3.610579438670475315e-05
7.122561280640319410e+02 3.593958974239982838e-05
7.131565782891445906e+02 3.578138376929018591e-05
7.140570285142571265e+02 3.552524959000090513e-05
7.149574787393696624e+02 3.510353690438841996e-05
7.158579289644821984e+02 3.462925880387520479e-05
7.167583791895947343e+02 3.419394847595847483e-05
7.176588294147072702e+02 3.372115487753292906e-05
7.185592796398199198e+02 3.313990741930147854e-05
7.194597298649324557e+02 3.254188665088007543e-05
7.203601800900449916e+02 3.207479039649799210e-05
7.212606303151575275e+02 3.180142414032508452e-05
7.221610805402700635e+02 3.170150349391392009e-05
7.230615307653827131e+02 3.168980724500442420e-05
7.239619809904952490e+02 3.164188558236554112e-05
7.248624312156077849e+02 3.151485164742559260e-05
7.257628814407203208e+02 3.137758548484302938e-05
7.266633316658328567e+02 3.125320287425706019e-05
7.275637818909453927e+02 3.105895919339020855e-05
7.284642321160580423e+02 3.072720164947792380e-05
7.293646823411705782e+02 3.029121517902222602e-05
7.302651325662831141e+02 2.991193615210254237e-05
7.311655827913956500e+02 2.971971487801072873e-05
7.320660330165081859e+02 2.970766528264930860e-05
7.329664832416207219e+02 2.975102168187356840e-05
7.338669334667333715e+02 2.967563424104378495e-05
7.347673836918459074e+02 2.937884595389113793e-05
7.356678339169584433e+02 2.890789233935979257e-05
7.365682841420709792e+02 2.839497785159130465e-05
7.374687343671835151e+02 2.789889224652000439e-05
7.383691845922961647e+02 2.742535571692325904e-05
7.392696348174087007e+02 2.697768415933185469e-05
7.401700850425212366e+02 2.657066240120144716e-05
7.410705352676337725e+02 2.625891622939227765e-05
7.419709854927463084e+02 2.609795867383168572e-05
7.428714357178588443e+02 2.602559435526637774e-05
7.437718859429714939e+02 2.590185915870051107e-05
7.446723361680840299e+02 2.566400441605541562e-05
7.455727863931965658e+02 2.533441116170573112e-05
7.464732366183091017e+02 2.493559938093571691e-05
7.473736868434216376e+02 2.448521192347569281e-05
7.482741370685342872e+02 2.403111329710972172e-05
7.491745872936468231e+02 2.367101938120603561e-05
7.500750375187593590e+02 2.352172181957337194e-05
7.509754877438718950e+02 2.360075690546460276e-05
7.518759379689844309e+02 2.377295094568063788e-05
7.527763881940969668e+02 2.385768277846659008e-05
7.536768384192096164e+02 2.380754771027295973e-05
7.545772886443221523e+02 2.368361416932464377e-05
7.554777388694346882e+02 2.350349856158995645e-05
7.563781890945472242e+02 2.324801474462288614e-05
7.572786393196597601e+02 2.291093460008926079e-05
7.581790895447722960e+02 2.251663537626474705e-05
7.590795397698849456e+02 2.213356816432082079e-05
7.599799899949974815e+02 2.183945133035448681e-05
7.608804402201100174e+02 2.165836231637280134e-05
7.617808904452225534e+02 2.155533672928636388e-05
7.626813406703350893e+02 2.147979133317672279e-05
7.635817908954477389e+02 2.138692724805303687e-05
7.644822411205602748e+02 2.122410631591757209e-05
7.653826913456728107e+02 2.095465893143766921e-05
7.662831415707853466e+02 2.059390408200058580e-05
7.671835917958978825e+02 2.023105304706551268e-05
7.680840420210104185e+02 1.995325115192436830e-05
7.689844922461230681e+02 1.975388538925651813e-05
7.698849424712356040e+02 1.958170775509655194e-05
7.707853926963481399e+02 1.941677420393210542e-05
7.716858429214606758e+02 1.927499813045319978e-05
7.725862931465732117e+02 1.916747683963897309e-05
7.734867433716858613e+02 1.910945403321301711e-05
7.743871935967983973e+02 1.909479759139000527e-05
7.752876438219109332e+02 1.906400587940411325e-05
7.761880940470234691e+02 1.893678861381225948e-05
7.770885442721360050e+02 1.867565263392306622e-05
7.779889944972485409e+02 1.832839647836260704e-05
7.788894447223611905e+02 1.799297212340280919e-05
7.797898949474737265e+02 1.776427134240687473e-05
7.806903451725862624e+02 1.770269269526823184e-05
7.815907953976987983e+02 1.782040025507726323e-05
7.824912456228113342e+02 1.807432515666098564e-05
7.833916958479238701e+02 1.835339763094124036e-05
7.842921460730365197e+02 1.851832393333420839e-05
7.851925962981490557e+02 1.850091233434902102e-05
7.860930465232615916e+02 1.835949998321505889e-05
7.869934967483741275e+02 1.822364072874244368e-05
7.878939469734866634e+02 1.817294616239346084e-05
7.887943971985993130e+02 1.817995397055171332e-05
7.896948474237118489e+02 1.819709132795991301e-05
7.905952976488243849e+02 1.821643096772639680e-05
7.914957478739369208e+02 1.820299329472871140e-05
7.923961980990494567e+02 1.807044794465446094e-05
7.932966483241619926e+02 1.782139891170210998e-05
7.941970985492746422e+02 1.758301596491488699e-05
7.950975487743871781e+02 1.747172402643938443e-05
7.959979989994997140e+02 1.752301094197215959e-05
7.968984492246122500e+02 1.767922878236718082e-05
7.977988994497247859e+02 1.785464453879013320e-05
7.986993496748374355e+02 1.800614431450993404e-05
7.995997998999499714e+02 1.810720524373605691e-05
8.005002501250625073e+02 1.810190779214404617e-05
8.014007003501750432e+02 1.795498047461710261e-05
8.023011505752875792e+02 1.771852748402879914e-05
8.032016008004001151e+02 1.748398431438530457e-05
8.041020510255127647e+02 1.730711883417317609e-05
8.050025012506253006e+02 1.719272765013760037e-05
8.059029514757378365e+02 1.713106295008946938e-05
8.068034017008503724e+02 1.710660869646717089e-05
8.077038519259629084e+02 1.710961558641875874e-05
8.086043021510754443e+02 1.712396500812630361e-05
8.095047523761880939e+02 1.711617202731857500e-05
8.104052026013006298e+02 1.707349533981501025e-05
8.113056528264131657e+02 1.703562374210084853e-05
8.122061030515257016e+02 1.706571669563044835e-05
8.131065532766382375e+02 1.718826860119499901e-05
8.140070035017508872e+02 1.735770049712306908e-05
8.149074537268634231e+02 1.747212544697391610e-05
8.158079039519759590e+02 1.744400171502806364e-05
8.167083541770884949e+02 1.729177793616433687e-05
8.176088044022010308e+02 1.711509390369500520e-05
8.185092546273135667e+02 1.695463584838873632e-05
8.194097048524262163e+02 1.676591088973821618e-05
8.203101550775387523e+02 1.656877616014978380e-05
8.212106053026512882e+02 1.646480163858586528e-05
8.221110555277638241e+02 1.645397250083733285e-05
8.230115057528763600e+02 1.640822828328653016e-05
8.239119559779890096e+02 1.624888644482927060e-05
8.248124062031015455e+02 1.604121974769836468e-05
8.257128564282140815e+02 1.586386071204283748e-05
8.266133066533266174e+02 1.572512041292380245e-05
8.275137568784391533e+02 1.562860597970978772e-05
8.284142071035516892e+02 1.560006826532079119e-05
8.293146573286643388e+02 1.565507396820997000e-05
8.302151075537768747e+02 1.574586999676505825e-05
8.311155577788894107e+02 1.579149214917037700e-05
8.320160080040019466e+02 1.579093196274537585e-05
8.329164582291144825e+02 1.578443318912111642e-05
8.338169084542270184e+02 1.576901107028566001e-05
8.347173586793396680e+02 1.573357092816399152e-05
8.356178089044522039e+02 1.567270230280314052e-05
8.365182591295647399e+02 1.559863834850284007e-05
8.374187093546772758e+02 1.555597071502608055e-05
8.383191595797898117e+02 1.560569735744315407e-05
8.392196098049024613e+02 1.576236945420926669e-05
8.401200600300149972e+02 1.595886750352632188e-05
8.410205102551275331e+02 1.612152280203777943e-05
8.419209604802400690e+02 1.623071406196725864e-05
8.428214107053526050e+02 1.629429454112870708e-05
8.437218609304651409e+02 1.632104686721892918e-05
8.446223111555777905e+02 1.630624204312470526e-05
8.455227613806903264e+02 1.626292276744039855e-05
8.464232116058028623e+02 1.622293442735652441e-05
8.473236618309153982e+02 1.621653469907650090e-05
8.482241120560279342e+02 1.627003490124895606e-05
8.491245622811405838e+02 1.637296028791868031e-05
8.500250125062531197e+02 1.648609172582486012e-05
8.509254627313656556e+02 1.656009408744530417e-05
8.518259129564781915e+02 1.658096909198514669e-05
8.527263631815907274e+02 1.658321010675701190e-05
8.536268134067032634e+02 1.659735856695178927e-05
8.545272636318159130e+02 1.660103030585747611e-05
8.554277138569284489e+02 1.654656456616015583e-05
8.563281640820409848e+02 1.644968543563106583e-05
8.572286143071535207e+02 1.639612816368442487e-05
8.581290645322660566e+02 1.642724361931160730e-05
8.590295147573785925e+02 1.650172142163575456e-05
8.599299649824912422e+02 1.657134454901705139e-05
8.608304152076037781e+02 1.663261043110627642e-05
8.617308654327163140e+02 1.670544955026633313e-05
8.626313156578288499e+02 1.679605757073824939e-05
8.635317658829413858e+02 1.692496665404802519e-05
8.644322161080540354e+02 1.709819385887755705e-05
8.653326663331665713e+02 1.725668666589087760e-05
8.662331165582791073e+02 1.735030843311423862e-05
8.671335667833916432e+02 1.739281570086634481e-05
8.680340170085041791e+02 1.741225648553101061e-05
8.689344672336167150e+02 1.741075524420296951e-05
8.698349174587293646e+02 1.738097286348558158e-05
8.707353676838419005e+02 1.736252254486270034e-05
8.716358179089544365e+02 1.744085190493053957e-05
8.725362681340669724e+02 1.770128572426842869e-05
8.734367183591795083e+02 1.814940522360123778e-05
8.743371685842921579e+02 1.870058884473117146e-05
8.752376188094046938e+02 1.923819797821681922e-05
8.761380690345172297e+02 1.963353147940676946e-05
8.770385192596297657e+02 1.983045005237036578e-05
8.779389694847423016e+02 1.987382073525987281e-05
8.788394197098548375e+02 1.977087765882837021e-05
8.797398699349674871e+02 1.950641754969066743e-05
8.806403201600800230e+02 1.916181333346614685e-05
8.815407703851925589e+02 1.889066254818947229e-05
8.824412206103050949e+02 1.874769846546530053e-05
8.833416708354176308e+02 1.866681415230863025e-05
8.842421210605301667e+02 1.859182007971573957e-05
8.851425712856428163e+02 1.851890897664365039e-05
8.860430215107553522e+02 1.845845703635454085e-05
8.869434717358678881e+02 1.843430111383285273e-05
8.878439219609804240e+02 1.848189818737938300e-05
8.887443721860929600e+02 1.860496740072113174e-05
8.896448224112056096e+02 1.876844841495796401e-05
8.905452726363181455e+02 1.894179978087458450e-05
8.914457228614306814e+02 1.910609582090594112e-05
8.923461730865432173e+02 1.925668049485653621e-05
8.932466233116557532e+02 1.940836747660972707e-05
8.941470735367682892e+02 1.958781796507726015e-05
8.950475237618809388e+02 1.981410305137094443e-05
8.959479739869934747e+02 2.009673570639855519e-05
8.968484242121060106e+02 2.045719207828823244e-05
8.977488744372185465e+02 2.090882783673627513e-05
8.986493246623310824e+02 2.139185990306539860e-05
8.995497748874437320e+02 2.180459305366930055e-05
9.004502251125562680e+02 2.210203373869208657e-05
9.013506753376688039e+02 2.231697347372223341e-05
9.022511255627813398e+02 2.251512253733425670e-05
9.031515757878938757e+02 2.272056041916282375e-05
9.040520260130064116e+02 2.290654449530932471e-05
9.049524762381190612e+02 2.306046168922809407e-05
9.058529264632315972e+02 2.321448321783182853e-05
9.067533766883441331e+02 2.337779689375908010e-05
9.076538269134566690e+02 2.352151749984021187e-05
9.085542771385692049e+02 2.365348831239161271e-05
9.094547273636817408e+02 2.381261981381887954e-05
9.103551775887943904e+02 2.400794788121115650e-05
9.112556278139069263e+02 2.421210877792932622e-05
9.121560780390194623e+02 2.436541265259037291e-05
9.130565282641319982e+02 2.447271461087409880e-05
9.139569784892445341e+02 2.464542412719350503e-05
9.148574287143571837e+02 2.495381994540401660e-05
9.157578789394697196e+02 2.534521800766510787e-05
9.166583291645822555e+02 2.570726910934471190e-05
9.175587793896947915e+02 2.598695990088651419e-05
9.184592296148073274e+02 2.621770748708198378e-05
9.193596798399198633e+02 2.641565290799639253e-05
9.202601300650325129e+02 2.656403004998735852e-05
9.211605802901450488e+02 2.670266072981466814e-05
9.220610305152575847e+02 2.690726492569922189e-05
9.229614807403701207e+02 2.719608723452457134e-05
9.238619309654826566e+02 2.749375037059465890e-05
9.247623811905953062e+02 2.775174501375452795e-05
9.256628314157078421e+02 2.803103259444347095e-05
9.265632816408203780e+02 2.838333022685884393e-05
9.274637318659329139e+02 2.878843327757313791e-05
9.283641820910454499e+02 2.921281013497410375e-05
9.292646323161579858e+02 2.963443650331621724e-05
9.301650825412706354e+02 3.007679548646850716e-05
9.310655327663831713e+02 3.058117820383454618e-05
9.319659829914957072e+02 3.115969460752398944e-05
9.328664332166082431e+02 3.176803317831627325e-05
9.337668834417207790e+02 3.237450335728137165e-05
9.346673336668334287e+02 3.298807418625500891e-05
9.355677838919459646e+02 3.355814132555542457e-05
9.364682341170585005e+02 3.400505604262434153e-05
9.373686843421710364e+02 3.431491680776628484e-05
9.382691345672835723e+02 3.454418925392694229e-05
9.391695847923961082e+02 3.474064131451014639e-05
9.400700350175087578e+02 3.496491187428789051e-05
9.409704852426212938e+02 3.535333681173356504e-05
9.418709354677338297e+02 3.596873283058305335e-05
9.427713856928463656e+02 3.665449177653950591e-05
9.436718359179589015e+02 3.716601869121038661e-05
9.445722861430714374e+02 3.751479297328631849e-05
9.454727363681840870e+02 3.798087998055323431e-05
9.463731865932966230e+02 3.861089204707213288e-05
9.472736368184091589e+02 3.911337081297183667e-05
9.481740870435216948e+02 3.928568224721559814e-05
9.490745372686342307e+02 3.924675874676390779e-05
9.499749874937468803e+02 3.929044204170327481e-05
9.508754377188594162e+02 3.969642463764346240e-05
9.517758879439719522e+02 4.055860609084054784e-05
9.526763381690844881e+02 4.160355857207139656e-05
9.535767883941970240e+02 4.249963499883128889e-05
9.544772386193095599e+02 4.312428723184833456e-05
9.553776888444222095e+02 4.333246618984171254e-05
9.562781390695347454e+02 4.304900139163009797e-05
9.571785892946472813e+02 4.257412404611692075e-05
9.580790395197598173e+02 4.233023669367314815e-05
9.589794897448723532e+02 4.245700517503959293e-05
9.598799399699850028e+02 4.284233324488130270e-05
9.607803901950975387e+02 4.331978679748761158e-05
9.616808404202100746e+02 4.373675894595890386e-05
9.625812906453226105e+02 4.403032863564122583e-05
9.634817408704351465e+02 4.426460297297648910e-05
9.643821910955476824e+02 4.453991197901948490e-05
9.652826413206603320e+02 4.488074023701453145e-05
9.661830915457728679e+02 4.519045912684056305e-05
9.670835417708854038e+02 4.544311252293793972e-05
9.679839919959979397e+02 4.573780461595725538e-05
9.688844422211104757e+02 4.618165009564459064e-05
9.697848924462230116e+02 4.669191144909831475e-05
9.706853426713356612e+02 4.704569356263106091e-05
9.715857928964481971e+02 4.722750862662124222e-05
9.724862431215607330e+02 4.734269594549242590e-05
9.733866933466732689e+02 4.734192608310820900e-05
9.742871435717858049e+02 4.717494331745593317e-05
9.751875937968984545e+02 4.703196898303588317e-05
9.760880440220109904e+02 4.715182969769082420e-05
9.769884942471235263e+02 4.767763018416632263e-05
9.778889444722360622e+02 4.870264844673404805e-05
9.787893946973485981e+02 5.014735117357433676e-05
9.796898449224611340e+02 5.175857925881618759e-05
9.805902951475737837e+02 5.336667468101490366e-05
9.814907453726863196e+02 5.493631007327744219e-05
9.823911955977988555e+02 5.640421396967696869e-05
9.832916458229113914e+02 5.760802798378450760e-05
9.841920960480239273e+02 5.839238282924504286e-05
9.850925462731365769e+02 5.874303394052670258e-05
9.859929964982491128e+02 5.875553634222050982e-05
9.868934467233616488e+02 5.861455122009720043e-05
9.877938969484741847e+02 5.858455590550785833e-05
9.886943471735867206e+02 5.875742061318592986e-05
9.895947973986992565e+02 5.899803513199164222e-05
9.904952476238119061e+02 5.936003459037184104e-05
9.913956978489244420e+02 6.017720002042896806e-05
9.922961480740369780e+02 6.167090017480917502e-05
9.931965982991495139e+02 6.369192926789414447e-05
9.940970485242620498e+02 6.587797658406659108e-05
9.949974987493745857e+02 6.798158556086680176e-05
9.958979489744872353e+02 6.986626082452049487e-05
9.967983991995997712e+02 7.140126944275875702e-05
9.976988494247123072e+02 7.248586392728528251e-05
9.985992996498248431e+02 7.324106477333669051e-05
9.994997498749373790e+02 7.411773599073657190e-05
1.000400200100050029e+03 7.542310876216534320e-05
1.001300650325162565e+03 7.684328205987535712e-05
1.002201100550275100e+03 7.790084122533224144e-05
1.003101550775387636e+03 7.858300568085195071e-05
1.004002001000500172e+03 7.916573459875918750e-05
1.004902451225612708e+03 7.998370139328677645e-05
1.005802901450725358e+03 8.127279838060605562e-05
1.006703351675837894e+03 8.293996846284919515e-05
1.007603801900950430e+03 8.460461715766490307e-05
1.008504252126062966e+03 8.603614428859862107e-05
1.009404702351175501e+03 8.728208040723487511e-05
1.010305152576288151e+03 8.835053797284334899e-05
1.011205602801400687e+03 8.921839773108600669e-05
1.012106053026513223e+03 8.999286428203004688e-05
1.013006503251625759e+03 9.074822353207887980e-05
1.013906953476738295e+03 9.138048002924950011e-05
1.014807403701850831e+03 9.163513299862289705e-05
1.015707853926963480e+03 9.135103726313498760e-05
1.016608304152076016e+03 9.066689002474523091e-05
1.017508754377188552e+03 9.004628740002107044e-05
1.018409204602301088e+03 8.992802951572509309e-05
1.019309654827413624e+03 9.045926609598406941e-05
1.020210105052526160e+03 9.142984641437400912e-05
1.021110555277638809e+03 9.238648330434540319e-05
1.022011005502751345e+03 9.305684052812728143e-05
1.022911455727863881e+03 9.358760100339918488e-05
1.023811905952976417e+03 9.452670006880228143e-05
1.024712356178089067e+03 9.653707392630969544e-05
1.025612806403201603e+03 9.989266674778106230e-05
1.026513256628314139e+03 1.042090455822766189e-04
1.027413706853426675e+03 1.086986296717895850e-04
1.028314157078539210e+03 1.127351824804857837e-04
1.029214607303651746e+03 1.160408406555461856e-04
1.030115057528764282e+03 1.187232052725356585e-04
1.031015507753876818e+03 1.211547995367363097e-04
1.031915957978989354e+03 1.234335399465246342e-04
1.032816408204101890e+03 1.255039324064288211e-04
1.033716858429214653e+03 1.274485700035331466e-04
1.034617308654327189e+03 1.293862362499958009e-04
1.035517758879439725e+03 1.315161335305680920e-04
1.036418209104552261e+03 1.340736737864158641e-04
1.037318659329664797e+03 1.373366916959187776e-04
1.038219109554777333e+03 1.414285195065242539e-04
1.039119559779889869e+03 1.461321201319209476e-04
1.040020010005002405e+03 1.509999802414607782e-04
1.040920460230114941e+03 1.553624136455700069e-04
1.041820910455227477e+03 1.590668273596534965e-04
1.042721360680340013e+03 1.627726518558995190e-04
1.043621810905452776e+03 1.668463206301732716e-04
1.044522261130565312e+03 1.709272759759999721e-04
1.045422711355677848e+03 1.747079446863304567e-04
1.046323161580790384e+03 1.781495149331673998e-04
1.047223611805902920e+03 1.811235779371503873e-04
1.048124062031015455e+03 1.837065175422751009e-04
1.049024512256127991e+03 1.864344853531977881e-04
1.049924962481240527e+03 1.898468436733661928e-04
1.050825412706353063e+03 1.942340873964445438e-04
1.051725862931465599e+03 1.995421670476317305e-04
1.052626313156578135e+03 2.049905664223624377e-04
1.053526763381690898e+03 2.097911664766983369e-04
1.054427213606803434e+03 2.141061292166317382e-04
1.055327663831915970e+03 2.186630644726930434e-04
1.056228114057028506e+03 2.236975643776809247e-04
1.057128564282141042e+03 2.288899835733052912e-04
1.058029014507253578e+03 2.344927101083480630e-04
1.058929464732366114e+03 2.415750375533487536e-04
1.059829914957478650e+03 2.506672231563347644e-04
1.060730365182591186e+03 2.609243516930559144e-04
1.061630815407703722e+03 2.704143842267117703e-04
1.062531265632816257e+03 2.776221354908684630e-04
1.063431715857929021e+03 2.824550167988932551e-04
1.064332166083041557e+03 2.860135561567756900e-04
1.065232616308154093e+03 2.892233608610785055e-04
1.066133066533266629e+03 2.922437610311946874e-04
1.067033516758379164e+03 2.955420708440676292e-04
1.067933966983491700e+03 3.001620510657140796e-04
1.068834417208604236e+03 3.064855254165224684e-04
1.069734867433716772e+03 3.137934212745594896e-04
1.070635317658829308e+03 3.213298773195144803e-04
1.071535767883941844e+03 3.288334729935203822e-04
1.072436218109054380e+03 3.367191650752414259e-04
1.073336668334167143e+03 3.456497611270323961e-04
1.074237118559279679e+03 3.551855376293505933e-04
1.075137568784392215e+03 3.642870441670412033e-04
1.076038019009504751e+03 3.727333618061792384e-04
1.076938469234617287e+03 3.811109235041106286e-04
1.077838919459729823e+03 3.896454272022706160e-04
1.078739369684842359e+03 3.978905842851421064e-04
1.079639819909954895e+03 4.055577174928941655e-04
1.080540270135067431e+03 4.124767680642759163e-04
1.081440720360179967e+03 4.193936145128571050e-04
1.082341170585292502e+03 4.275450435595573150e-04
1.083241620810405038e+03 4.370022689515474764e-04
1.084142071035517802e+03 4.470672367912650836e-04
1.085042521260630338e+03 4.579833556653630693e-04
1.085942971485742873e+03 4.698364898497182484e-04
1.086843421710855409e+03 4.804354695084503239e-04
1.087743871935967945e+03 4.865647659018024142e-04
1.088644322161080481e+03 4.868635984008558618e-04
1.089544772386193017e+03 4.817498351066485046e-04
1.090445222611305553e+03 4.733983139561863352e-04
1.091345672836418089e+03 4.665193999519514235e-04
1.092246123061530625e+03 4.651725513838231188e-04
1.093146573286643161e+03 4.689470846795481445e-04
1.094047023511755924e+03 4.746467067016429606e-04
1.094947473736868460e+03 4.807577013255648476e-04
1.095847923961980996e+03 4.874218479030097205e-04
1.096748374187093532e+03 4.948531181027703615e-04
1.097648824412206068e+03 5.043797750492856049e-04
1.098549274637318604e+03 5.171349793272672158e-04
1.099449724862431140e+03 5.309941889704400094e-04
1.100350175087543676e+03 5.422806414684309094e-04
1.101250625312656211e+03 5.501813806349053863e-04
1.102151075537768747e+03 5.562859550922616848e-04
1.103051525762881283e+03 5.609408239662782431e-04
1.103951975987994047e+03 5.631550672971861321e-04
1.104852426213106583e+03 5.621834764347331988e-04
1.105752876438219118e+03 5.588189625552948984e-04
1.106653326663331654e+03 5.545249085567333525e-04
1.107553776888444190e+03 5.496995842190233747e-04
1.108454227113556726e+03 5.446060992821944412e-04
1.109354677338669262e+03 5.403164091151187306e-04
1.110255127563781798e+03 5.379863451310940145e-04
1.111155577788894334e+03 5.376756539851769304e-04
1.112056028014006870e+03 5.382450849123808587e-04
1.112956478239119406e+03 5.373629974574009593e-04
1.113856928464232169e+03 5.327287188452221704e-04
1.114757378689344705e+03 5.252177475511603201e-04
1.115657828914457241e+03 5.172988651767701984e-04
1.116558279139569777e+03 5.089284806312656525e-04
1.117458729364682313e+03 4.975581501289983669e-04
1.118359179589794849e+03 4.808308913742901508e-04
1.119259629814907385e+03 4.603626919343539649e-04
1.120160080040019920e+03 4.409209226752079116e-04
1.121060530265132456e+03 4.262755054212084599e-04
1.121960980490244992e+03 4.180074088008955578e-04
1.122861430715357528e+03 4.141226413184961419e-04
1.123761880940470292e+03 4.100343359892636309e-04
1.124662331165582827e+03 4.021489279961634874e-04
1.125562781390695363e+03 3.892221721196075694e-04
1.126463231615807899e+03 3.719623963819930251e-04
1.127363681840920435e+03 3.516664201845301724e-04
1.128264132066032971e+03 3.295104066619320825e-04
1.129164582291145507e+03 3.070111731085057661e-04
1.130065032516258043e+03 2.856725236778916849e-04
1.130965482741370579e+03 2.658544945903850787e-04
1.131865932966483115e+03 2.470753878515354225e-04
1.132766383191595651e+03 2.293186849354097697e-04
1.133666833416708187e+03 2.134663926915757008e-04
1.134567283641820950e+03 2.003345336245177118e-04
1.135467733866933486e+03 1.894700871759257531e-04
1.136368184092046022e+03 1.790346939610734547e-04
1.137268634317158558e+03 1.678205030999068705e-04
1.138169084542271094e+03 1.570623702390480463e-04
1.139069534767383630e+03 1.482759366308305517e-04
1.139969984992496165e+03 1.407709944852916653e-04
1.140870435217608701e+03 1.332744088658164596e-04
1.141770885442721237e+03 1.259333271129467848e-04
1.142671335667833773e+03 1.196100138973320987e-04
1.143571785892946309e+03 1.146814457107699363e-04
1.144472236118059072e+03 1.110769794112324323e-04
1.145372686343171608e+03 1.086190124034986499e-04
1.146273136568284144e+03 1.069580758558940774e-04
1.147173586793396680e+03 1.055060521783617315e-04
1.148074037018509216e+03 1.037800892431737495e-04
1.148974487243621752e+03 1.018218186656139778e-04
1.149874937468734288e+03 1.000147381164439236e-04
1.150775387693846824e+03 9.832600420662496415e-05
1.151675837918959360e+03 9.622520159781479789e-05
1.152576288144071896e+03 9.338839873418657261e-05
1.153476738369184432e+03 8.993369066660605448e-05
1.154377188594297195e+03 8.621722420616724080e-05
1.155277638819409731e+03 8.262335612623600224e-05
1.156178089044522267e+03 7.949517115707082661e-05
1.157078539269634803e+03 7.717571541685439831e-05
1.157978989494747339e+03 7.560288504983895760e-05
1.158879439719859874e+03 7.428634188936436686e-05
1.159779889944972410e+03 7.288060673849296417e-05
1.160680340170084946e+03 7.141442217712079500e-05
1.161580790395197482e+03 7.002182859984846977e-05
1.162481240620310018e+03 6.874101778761301459e-05
1.163381690845422554e+03 6.758303884656196019e-05
1.164282141070535317e+03 6.670863353394352593e-05
1.165182591295647853e+03 6.618914407197956553e-05
1.166083041520760389e+03 6.573645774557720998e-05
1.166983491745872925e+03 6.516083800421673862e-05
1.167883941970985461e+03 6.477396978455987847e-05
1.168784392196097997e+03 6.501290682183414260e-05
1.169684842421210533e+03 6.599663717304400526e-05
1.170585292646323069e+03 6.746827912340411660e-05
1.171485742871435605e+03 6.905139309050930760e-05
1.172386193096548141e+03 7.058756050669180780e-05
1.173286643321660677e+03 7.213705355033264287e-05
1.174187093546773440e+03 7.372957201017102564e-05
1.175087543771885976e+03 7.527524757901481167e-05
1.175987993996998512e+03 7.659435951677754642e-05
1.176888444222111048e+03 7.730669476900766020e-05
1.177788894447223583e+03 7.718405682472580416e-05
1.178689344672336119e+03 7.649586059111439479e-05
1.179589794897448655e+03 7.570046364949936516e-05
1.180490245122561191e+03 7.505156331444712791e-05
1.181390695347673727e+03 7.448686513414386678e-05
1.182291145572786263e+03 7.399211735153427114e-05
1.183191595797898799e+03 7.385681038915341225e-05
1.184092046023011562e+03 7.435390906093263409e-05
1.184992496248124098e+03 7.553595360673833435e-05
1.185892946473236634e+03 7.731146522529453238e-05
1.186793396698349170e+03 7.944225754113043295e-05
1.187693846923461706e+03 8.163603067911509386e-05
1.188594297148574242e+03 8.394679838510634351e-05
1.189494747373686778e+03 8.665252628809514519e-05
1.190395197598799314e+03 8.966526521226975100e-05
1.191295647823911850e+03 9.257544347682676795e-05
1.192196098049024386e+03 9.520144326920045095e-05
1.193096548274136921e+03 9.773187945500967470e-05
1.193996998499249457e+03 1.003872252405239992e-04
1.194897448724362221e+03 1.030094971091851308e-04
1.195797898949474757e+03 1.050804265834963001e-04
1.196698349174587293e+03 1.064163805276872063e-04
1.197598799399699828e+03 1.075482464239188758e-04
1.198499249624812364e+03 1.092280218372524027e-04
1.199399699849924900e+03 1.117412909747795083e-04
1.200300150075037436e+03 1.147533707941834067e-04
1.201200600300149972e+03 1.177431269733748625e-04
1.202101050525262508e+03 1.204290475650762217e-04
1.203001500750375044e+03 1.227473305644403317e-04
1.203901950975487580e+03 1.249014805742290277e-04
1.204802401200600343e+03 1.274739602976967937e-04
1.205702851425712879e+03 1.310066106120854972e-04
1.206603301650825415e+03 1.357463472137501671e-04
1.207503751875937951e+03 1.416842615315081139e-04
1.208404202101050487e+03 1.486123320713637669e-04
1.209304652326163023e+03 1.561660382352157565e-04
1.210205102551275559e+03 1.634573077608738234e-04
1.211105552776388095e+03 1.694247812368082054e-04
1.212006003001500630e+03 1.738203992592932828e-04
1.212906453226613166e+03 1.768203388803525763e-04
1.213806903451725702e+03 1.781099660711194486e-04
1.214707353676838466e+03 1.773476721592716907e-04
1.215607803901951002e+03 1.750700643519864294e-04
1.216508254127063537e+03 1.723780008492523314e-04
1.217408704352176073e+03 1.701857340666837926e-04
1.218309154577288609e+03 1.693636575037591862e-04
1.219209604802401145e+03 1.706974900981864899e-04
1.220110055027513681e+03 1.740293317025824716e-04
1.221010505252626217e+03 1.782238592665268866e-04
1.221910955477738753e+03 1.822134165053087564e-04
1.222811405702851289e+03 1.859866379551425612e-04
1.223711855927963825e+03 1.904375149683388115e-04
1.224612306153076588e+03 1.963943356278675023e-04
1.225512756378189124e+03 2.043092843319800373e-04
1.226413206603301660e+03 2.143632560116160888e-04
1.227313656828414196e+03 2.254055223785981696e-04
1.228214107053526732e+03 2.353903090442386128e-04
1.229114557278639268e+03 2.438344813825349725e-04
1.230015007503751804e+03 2.517597211025288171e-04
1.230915457728864340e+03 2.604812135081825577e-04
1.231815907953976875e+03 2.705260365407846580e-04
1.232716358179089411e+03 2.804304357088122069e-04
1.233616808404201947e+03 2.881979018237765906e-04
1.234517258629314711e+03 2.941696651197535936e-04
1.235417708854427246e+03 3.007222328961893249e-04
1.236318159079539782e+03 3.096590366919161588e-04
1.237218609304652318e+03 3.209335662332557298e-04
1.238119059529764854e+03 3.339171645630854704e-04
1.239019509754877390e+03 3.485623874621012093e-04
1.239919959979989926e+03 3.644712045196599431e-04
1.240820410205102462e+03 3.802462772384358129e-04
1.241720860430214998e+03 3.951061765077226035e-04
1.242621310655327534e+03 4.103536345837114989e-04
1.243521760880440070e+03 4.279543433126985034e-04
1.244422211105552606e+03 4.484278537456502334e-04
1.245322661330665369e+03 4.702532593532075421e-04
1.246223111555777905e+03 4.905231429914703144e-04
1.247123561780890441e+03 5.067165136604189326e-04
1.248024012006002977e+03 5.178060093743589234e-04
1.248924462231115513e+03 5.239173720120130374e-04
1.249824912456228049e+03 5.262355754145849095e-04
1.250725362681340584e+03 5.261071528790022597e-04
1.251625812906453120e+03 5.237542941538019838e-04
1.252526263131565656e+03 5.184871106379950606e-04
1.253426713356678192e+03 5.107517353285787780e-04
1.254327163581790728e+03 5.030865716874301707e-04
1.255227613806903491e+03 4.988169218691811601e-04
1.256128064032016027e+03 5.001324554958161157e-04
1.257028514257128563e+03 5.067417520349447400e-04
1.257928964482241099e+03 5.165592395924664031e-04
1.258829414707353635e+03 5.274838322043983070e-04
1.259729864932466171e+03 5.377563401696135257e-04
1.260630315157578707e+03 5.456787829837425824e-04
1.261530765382691243e+03 5.503641808455487323e-04
1.262431215607803779e+03 5.529164058951330186e-04
1.263331665832916315e+03 5.556983913841562900e-04
1.264232116058028851e+03 5.604800931796179121e-04
1.265132566283141614e+03 5.674246256352123317e-04
1.266033016508254150e+03 5.746235398421392160e-04
1.266933466733366686e+03 5.799213304542181948e-04
1.267833916958479222e+03 5.840483055033478688e-04
1.268734367183591758e+03 5.898821609479476926e-04
1.269634817408704293e+03 5.986173298954355860e-04
1.270535267633816829e+03 6.089885256815414597e-04
1.271435717858929365e+03 6.193257608272735755e-04
1.272336168084041901e+03 6.292125322024842097e-04
1.273236618309154437e+03 6.393579206569782909e-04
1.274137068534266973e+03 6.504734347299532529e-04
1.275037518759379736e+03 6.622172308839827147e-04
1.275937968984492272e+03 6.733745406340057920e-04
1.276838419209604808e+03 6.841021215827553827e-04
1.277738869434717344e+03 6.955675373776756864e-04
1.278639319659829880e+03 7.080327907895706940e-04
1.279539769884942416e+03 7.212195460481052181e-04
1.280440220110054952e+03 7.347540404595831725e-04
1.281340670335167488e+03 7.485083208163969366e-04
1.282241120560280024e+03 7.630497382224710190e-04
1.283141570785392560e+03 7.791813689079454168e-04
1.284042021010505096e+03 7.968429550218786078e-04
1.284942471235617859e+03 8.143657893123151066e-04
1.285842921460730395e+03 8.293262724298939865e-04
1.286743371685842931e+03 8.401392895298257337e-04
1.287643821910955467e+03 8.475482607226891493e-04
1.288544272136068003e+03 8.534875709258546569e-04
1.289444722361180538e+03 8.587839522475619516e-04
1.290345172586293074e+03 8.634763867956239160e-04
1.291245622811405610e+03 8.684294300424075979e-04
1.292146073036518146e+03 8.745533194120784113e-04
1.293046523261630682e+03 8.820722558689900791e-04
1.293946973486743218e+03 8.904171174567900721e-04
1.294847423711855754e+03 8.987356269381845337e-04
1.295747873936968517e+03 9.078086292531534554e-04
1.296648324162081053e+03 9.193117892047558215e-04
1.297548774387193589e+03 9.333943018176797234e-04
1.298449224612306125e+03 9.488152768610440616e-04
1.299349674837418661e+03 9.644812023539517344e-04
1.300250125062531197e+03 9.794777275489725387e-04
1.301150575287643733e+03 9.928997414244233703e-04
1.302051025512756269e+03 1.004021073743256200e-03
1.302951475737868805e+03 1.013371994047737893e-03
1.303851925962981340e+03 1.022570251775236500e-03
1.304752376188093876e+03 1.032263101906743087e-03
1.305652826413206640e+03 1.042339391444252646e-03
1.306553276638319176e+03 1.052960430891967860e-03
1.307453726863431712e+03 1.064730257941142247e-03
1.308354177088544247e+03 1.077829122347057382e-03
1.309254627313656783e+03 1.091746315448437329e-03
1.310155077538769319e+03 1.106806093934818583e-03
1.311055527763881855e+03 1.125274513449951068e-03
1.311955977988994391e+03 1.149896856283120009e-03
1.312856428214106927e+03 1.180842692599706843e-03
1.313756878439219463e+03 1.215452374138937175e-03
1.314657328664331999e+03 1.251167005050113400e-03
1.315557778889444762e+03 1.287152899693110551e-03
1.316458229114557298e+03 1.322896786959501091e-03
1.317358679339669834e+03 1.358237226518143421e-03
1.318259129564782370e+03 1.394557917514053494e-03
1.319159579789894906e+03 1.434940806545613283e-03
1.320060030015007442e+03 1.482480821043293462e-03
1.320960480240119978e+03 1.536856006867163811e-03
1.321860930465232514e+03 1.596110564850443956e-03
1.322761380690345050e+03 1.660047847516607890e-03
1.323661830915457585e+03 1.727827397003814727e-03
1.324562281140570121e+03 1.796778541523137490e-03
1.325462731365682885e+03 1.864199976669072851e-03
1.326363181590795421e+03 1.927429822008901736e-03
1.327263631815907956e+03 1.984250132171164541e-03
1.328164082041020492e+03 2.037517293438787565e-03
1.329064532266133028e+03 2.095971937073551426e-03
1.329964982491245564e+03 2.166100060410323241e-03
1.330865432716358100e+03 2.247974090591397037e-03
1.331765882941470636e+03 2.337930629493556456e-03
1.332666333166583172e+03 2.429684988809231207e-03
1.333566783391695708e+03 2.518605581684795099e-03
1.334467233616808244e+03 2.605078762216090412e-03
1.335367683841921007e+03 2.691243593867831928e-03
1.336268134067033543e+03 2.779447199318472745e-03
1.337168584292146079e+03 2.872991738942714830e-03
1.338069034517258615e+03 2.972299462211460807e-03
1.338969484742371151e+03 3.071127519538503249e-03
1.339869934967483687e+03 3.163283640593191146e-03
1.340770385192596223e+03 3.247609902065343255e-03
1.341670835417708759e+03 3.329694977589586335e-03
1.342571285642821294e+03 3.420918705182268271e-03
1.343471735867933830e+03 3.527433613718830921e-03
1.344372186093046366e+03 3.648620802847368436e-03
1.345272636318158902e+03 3.781412013338286259e-03
1.346173086543271666e+03 3.921355944987064794e-03
1.347073536768384201e+03 4.061598904070504688e-03
1.347973986993496737e+03 4.196316335863853504e-03
1.348874437218609273e+03 4.326771324977610883e-03
1.349774887443721809e+03 4.454557905335551800e-03
1.350675337668834345e+03 4.582376539414599777e-03
1.351575787893946881e+03 4.718621254080659390e-03
1.352476238119059417e+03 4.875143022682277248e-03
1.353376688344171953e+03 5.057081831431938651e-03
1.354277138569284489e+03 5.261592314275316540e-03
1.355177588794397025e+03 5.486222306878111264e-03
1.356078039019509788e+03 5.722738973350348021e-03
1.356978489244622324e+03 5.958259830907893309e-03
1.357878939469734860e+03 6.188340281604735697e-03
1.358779389694847396e+03 6.418870081704394250e-03
1.359679839919959932e+03 6.662282938038006919e-03
1.360580290145072468e+03 6.930601563926158150e-03
1.361480740370185003e+03 7.228604272283055930e-03
1.362381190595297539e+03 7.554146503128528721e-03
1.363281640820410075e+03 7.896674045278056706e-03
1.364182091045522611e+03 8.242843909525839757e-03
1.365082541270635147e+03 8.605261348158175366e-03
1.365982991495747910e+03 9.022302177578081853e-03
1.366883441720860446e+03 9.517141902090398703e-03
1.367783891945972982e+03 1.008156247336872841e-02
1.368684342171085518e+03 1.069755177622575340e-02
1.369584792396198054e+03 1.135006336337556800e-02
1.370485242621310590e+03 1.200588255262230279e-02
1.371385692846423126e+03 1.261444641544894225e-02
1.372286143071535662e+03 1.314378689516808307e-02
1.373186593296648198e+03 1.361811441375266815e-02
1.374087043521760734e+03 1.411196680263338867e-02
1.374987493746873270e+03 1.469358787665154230e-02
1.375887943971986033e+03 1.541073860248253977e-02
1.376788394197098569e+03 1.629798599339935330e-02
1.377688844422211105e+03 1.735417338393034983e-02
1.378589294647323641e+03 1.852493233089770250e-02
1.379489744872436177e+03 1.976605566138922576e-02
1.380390195097548713e+03 2.109375733765454786e-02
1.381290645322661248e+03 2.255606231107285670e-02
1.382191095547773784e+03 2.415803737152099132e-02
1.383091545772886320e+03 2.579872305110120223e-02
1.383991995997998856e+03 2.732147046768812135e-02
1.384892446223111392e+03 2.867710437905079610e-02
1.385792896448224155e+03 3.000750962920864170e-02
1.386693346673336691e+03 3.155015353627858149e-02
1.387593796898449227e+03 3.345848906729510103e-02
1.388494247123561763e+03 3.569694143758175148e-02
1.389394697348674299e+03 3.807885960475169973e-02
1.390295147573786835e+03 4.046230347596072724e-02
1.391195597798899371e+03 4.285871219217234074e-02
1.392096048024011907e+03 4.524534170112823328e-02
1.392996498249124443e+03 4.754963065517886500e-02
1.393896948474236979e+03 4.977758731532377912e-02
1.394797398699349515e+03 5.179794063341192772e-02
1.395697848924462278e+03 5.327273305882490595e-02
1.396598299149574814e+03 5.398605610367104846e-02
1.397498749374687350e+03 5.401680735772717429e-02
1.398399199599799886e+03 5.351743459306176898e-02
1.399299649824912422e+03 5.254525039771223982e-02
1.400200100050024957e+03 5.115286896469158073e-02
1.401100550275137493e+03 4.920236682460681077e-02
1.402001000500250029e+03 4.643811716745786106e-02
1.402901450725362565e+03 4.294998003126800773e-02
1.403801900950475101e+03 3.914631480703267830e-02
1.404702351175587637e+03 3.534912258265144464e-02
1.405602801400700173e+03 3.168017221988760762e-02
1.406503251625812936e+03 2.823973983210195660e-02
1.407403701850925472e+03 2.513901045040333945e-02
1.408304152076038008e+03 2.240394377477971863e-02
1.409204602301150544e+03 1.999042002799427536e-02
1.410105052526263080e+03 1.785364885851766989e-02
1.411005502751375616e+03 1.597547145591430087e-02
1.411905952976488152e+03 1.433961374749951299e-02
1.412806403201600688e+03 1.291642660335182158e-02
1.413706853426713224e+03 1.166864347885007876e-02
1.414607303651825760e+03 1.056391852360958825e-02
1.415507753876938295e+03 9.584473433418177687e-03
1.416408204102051059e+03 8.724104276146870882e-03
1.417308654327163595e+03 7.976234870278086156e-03
1.418209104552276131e+03 7.333028906654967365e-03
1.419109554777388666e+03 6.788638903671201721e-03
1.420010005002501202e+03 6.336156466885679329e-03
1.420910455227613738e+03 5.956788955682698096e-03
1.421810905452726274e+03 5.615448542669410591e-03
1.422711355677838810e+03 5.282412012678879866e-03
1.423611805902951346e+03 4.955112089364303515e-03
1.424512256128063882e+03 4.643033918825981848e-03
1.425412706353176418e+03 4.350479487298149726e-03
1.426313156578289181e+03 4.081623485437588933e-03
1.427213606803401717e+03 3.842040488376873789e-03
1.428114057028514253e+03 3.629883809881484773e-03
1.429014507253626789e+03 3.440069019143715285e-03
1.429914957478739325e+03 3.267065066492335496e-03
1.430815407703851861e+03 3.103335624065047937e-03
1.431715857928964397e+03 2.949405898504705095e-03
1.432616308154076933e+03 2.814746731622843820e-03
1.433516758379189469e+03 2.704963370891047807e-03
1.434417208604302004e+03 2.614330060495077476e-03
1.435317658829414540e+03 2.532146482877050721e-03
1.436218109054527304e+03 2.451233647139379555e-03
1.437118559279639840e+03 2.369002486322796096e-03
1.438019009504752376e+03 2.284815787992252982e-03
1.438919459729864911e+03 2.198513758181472929e-03
1.439819909954977447e+03 2.113366393142917295e-03
1.440720360180089983e+03 2.036083821170395734e-03
1.441620810405202519e+03 1.969743175460394839e-03
1.442521260630315055e+03 1.911204822512758972e-03
1.443421710855427591e+03 1.855411074783907101e-03
1.444322161080540127e+03 1.800105538477257336e-03
1.445222611305652663e+03 1.746893786462825650e-03
1.446123061530765426e+03 1.697676806805156931e-03
1.447023511755877962e+03 1.653145359978820152e-03
1.447923961980990498e+03 1.613972401889725034e-03
1.448824412206103034e+03 1.582036830812510574e-03
1.449724862431215570e+03 1.557866844686358167e-03
1.450625312656328106e+03 1.538406157850096684e-03
1.451525762881440642e+03 1.519419015397397267e-03
1.452426213106553178e+03 1.495613652602123186e-03
1.453326663331665713e+03 1.464077828950826428e-03
1.454227113556778249e+03 1.428722787215542210e-03
1.455127563781890785e+03 1.395394499086895397e-03
1.456028014007003321e+03 1.366719217372043505e-03
1.456928464232116085e+03 1.341005345924971975e-03
1.457828914457228620e+03 1.313947004618626216e-03
1.458729364682341156e+03 1.283317445950992244e-03
1.459629814907453692e+03 1.250819778320285845e-03
1.460530265132566228e+03 1.218167479933522212e-03
1.461430715357678764e+03 1.184332400088546023e-03
1.462331165582791300e+03 1.148841101602413386e-03
1.463231615807903836e+03 1.114012289807613182e-03
1.464132066033016372e+03 1.082622347808730699e-03
1.465032516258128908e+03 1.056105351769467396e-03
1.465932966483241444e+03 1.034695426972796067e-03
1.466833416708354207e+03 1.017960107259596649e-03
1.467733866933466743e+03 1.004318731758488360e-03
1.468634317158579279e+03 9.920265749060021634e-04
1.469534767383691815e+03 9.811810665395863645e-04
1.470435217608804351e+03 9.726573510345791528e-04
1.471335667833916887e+03 9.656855757570307914e-04
1.472236118059029423e+03 9.577811520280893332e-04
1.473136568284141958e+03 9.474973787378203468e-04
1.474037018509254494e+03 9.364310547272751677e-04
1.474937468734367030e+03 9.271942421857703532e-04
1.475837918959479566e+03 9.187004144119507694e-04
1.476738369184592329e+03 9.065669168038974820e-04
1.477638819409704865e+03 8.886078748252903593e-04
1.478539269634817401e+03 8.663398150108597316e-04
1.479439719859929937e+03 8.414512103658700190e-04
1.480340170085042473e+03 8.147751299465826871e-04
1.481240620310155009e+03 7.888170119590929294e-04
1.482141070535267545e+03 7.659639419091322180e-04
1.483041520760380081e+03 7.466735733903866017e-04
1.483941970985492617e+03 7.308672238314181972e-04
1.484842421210605153e+03 7.183741025389521863e-04
1.485742871435717689e+03 7.086328711170333805e-04
1.486643321660830452e+03 7.007331292285516209e-04
1.487543771885942988e+03 6.944088290517329547e-04
1.488444222111055524e+03 6.904448779064413554e-04
1.489344672336168060e+03 6.885335747780355672e-04
1.490245122561280596e+03 6.866959605555789494e-04
1.491145572786393132e+03 6.831050544624837169e-04
1.492046023011505667e+03 6.765514469228405946e-04
1.492946473236618203e+03 6.662327776722337929e-04
1.493846923461730739e+03 6.522681982511476049e-04
1.494747373686843275e+03 6.358010947709590585e-04
1.495647823911955811e+03 6.187415403361785958e-04
1.496548274137068574e+03 6.037115491905693711e-04
1.497448724362181110e+03 5.929349047727708495e-04
1.498349174587293646e+03 5.860584861233179019e-04
1.499249624812406182e+03 5.804458204734090111e-04
1.500150075037518718e+03 5.748245164596617503e-04
1.501050525262631254e+03 5.700338970780902603e-04
1.501950975487743790e+03 5.665793435540095657e-04
1.502851425712856326e+03 5.638048936512556411e-04
1.503751875937968862e+03 5.610621917769871700e-04
1.504652326163081398e+03 5.572044762031710258e-04
1.505552776388193934e+03 5.504046527245610304e-04
1.506453226613306470e+03 5.397750156735272968e-04
1.507353676838419233e+03 5.261538247341818967e-04
1.508254127063531769e+03 5.110231110045286920e-04
1.509154577288644305e+03 4.959287558983519134e-04
1.510055027513756841e+03 4.829240305834244375e-04
1.510955477738869376e+03 4.735569661860048233e-04
1.511855927963981912e+03 4.682567459262757816e-04
1.512756378189094448e+03 4.662955760927982828e-04
1.513656828414206984e+03 4.648302714963067255e-04
1.514557278639319520e+03 4.600718528665630105e-04
1.515457728864432056e+03 4.516180038193255914e-04
1.516358179089544592e+03 4.427106454036020575e-04
1.517258629314657355e+03 4.363412570855513357e-04
1.518159079539769891e+03 4.332888130256750932e-04
1.519059529764882427e+03 4.321774459273172676e-04
1.519959979989994963e+03 4.307241226651856852e-04
1.520860430215107499e+03 4.276306475501403235e-04
1.521760880440220035e+03 4.229675274668846818e-04
1.522661330665332571e+03 4.172286687477430654e-04
1.523561780890445107e+03 4.111311578066937831e-04
1.524462231115557643e+03 4.051584261201805629e-04
1.525362681340670179e+03 3.994644630702631066e-04
1.526263131565782714e+03 3.941396629336629365e-04
1.527163581790895478e+03 3.887492035183487404e-04
1.528064032016008014e+03 3.831461519932239496e-04
1.528964482241120550e+03 3.782270743959566489e-04
1.529864932466233086e+03 3.747750415747990393e-04
1.530765382691345621e+03 3.733109680874699583e-04
1.531665832916458157e+03 3.740428931975942235e-04
1.532566283141570693e+03 3.757951351110265363e-04
1.533466733366683229e+03 3.763907206371862563e-04
1.534367183591795765e+03 3.745308699309779824e-04
1.535267633816908301e+03 3.706838627335469439e-04
1.536168084042020837e+03 3.659220150895310490e-04
1.537068534267133600e+03 3.609034485944677081e-04
1.537968984492246136e+03 3.562105531805942471e-04
1.538869434717358672e+03 3.522976862595972227e-04
1.539769884942471208e+03 3.492375876972580637e-04
1.540670335167583744e+03 3.467543560744874485e-04
1.541570785392696280e+03 3.451457290169539986e-04
1.542471235617808816e+03 3.452854460777834609e-04
1.543371685842921352e+03 3.472043916171518928e-04
1.544272136068033888e+03 3.495143388400163086e-04
1.545172586293146423e+03 3.505738819099847841e-04
1.546073036518258959e+03 3.500933660832092624e-04
1.546973486743371723e+03 3.484531710509547377e-04
1.547873936968484259e+03 3.458066273896605574e-04
1.548774387193596795e+03 3.427106261992755691e-04
1.549674837418709330e+03 3.404845556558192638e-04
1.550575287643821866e+03 3.403955776668262214e-04
1.551475737868934402e+03 3.430200165296456321e-04
1.552376188094046938e+03 3.484053013409328203e-04
1.553276638319159474e+03 3.554093090298641425e-04
1.554177088544272010e+03 3.613859243812425409e-04
1.555077538769384546e+03 3.644889896418873165e-04
1.555977988994497082e+03 3.662906962693205379e-04
1.556878439219609618e+03 3.703419538752032139e-04
1.557778889444722381e+03 3.783739362208325663e-04
1.558679339669834917e+03 3.889618952374830001e-04
1.559579789894947453e+03 4.003753242045746054e-04
1.560480240120059989e+03 4.125646121934817018e-04
1.561380690345172525e+03 4.263937956021095384e-04
1.562281140570285061e+03 4.420576358639089843e-04
1.563181590795397597e+03 4.579937115132486189e-04
1.564082041020510133e+03 4.719821288421508377e-04
1.564982491245622668e+03 4.821702003423005561e-04
1.565882941470735204e+03 4.878867184791951762e-04
1.566783391695847740e+03 4.892854984832484960e-04
1.567683841920960504e+03 4.841031904127945235e-04
1.568584292146073039e+03 4.674494987891400261e-04
1.569484742371185575e+03 4.369414122609041151e-04
1.570385192596298111e+03 3.958549659934062050e-04
1.571285642821410647e+03 3.501783509973217909e-04
1.572186093046523183e+03 3.050761997313141067e-04
1.573086543271635719e+03 2.639604199743352973e-04
1.573986993496748255e+03 2.282872372912847709e-04
1.574887443721860791e+03 1.976224975408516439e-04
1.575787893946973327e+03 1.713844340793035188e-04
1.576688344172085863e+03 1.498227949002426643e-04
1.577588794397198626e+03 1.328773533827501407e-04
1.578489244622311162e+03 1.197904559813843273e-04
1.579389694847423698e+03 1.096177257133765091e-04
1.580290145072536234e+03 1.015681370995637580e-04
1.581190595297648770e+03 9.506507262937682239e-05
1.582091045522761306e+03 8.970546019516918549e-05
1.582991495747873842e+03 8.520807284986780898e-05
1.583891945972986377e+03 8.137397679717605758e-05
1.584792396198098913e+03 7.805975789420328034e-05
1.585692846423211449e+03 7.515996052706006058e-05
1.586593296648323985e+03 7.259556097647697345e-05
1.587493746873436749e+03 7.030630142231493788e-05
1.588394197098549284e+03 6.824550043092271533e-05
1.589294647323661820e+03 6.637647304469872483e-05
1.590195097548774356e+03 6.467001512620554782e-05
1.591095547773886892e+03 6.310260433977568498e-05
1.591995997998999428e+03 6.165509248068437055e-05
1.592896448224111964e+03 6.031174054286804069e-05
1.593796898449224500e+03 5.905949676463561671e-05
1.594697348674337036e+03 5.788744954516906479e-05
1.595597798899449572e+03 5.678640798705771351e-05
1.596498249124562108e+03 5.574857679809408511e-05
1.597398699349674871e+03 5.476730179849420126e-05
1.598299149574787407e+03 5.383686885011185641e-05
1.599199599799899943e+03 5.295234362556408298e-05
1.600100050025012479e+03 5.210944289974238564e-05
1.601000500250125015e+03 5.130443039055936186e-05
1.601900950475237551e+03 5.053403187871134840e-05
1.602801400700350086e+03 4.979536558639196327e-05
1.603701850925462622e+03 4.908588472194440908e-05
1.604602301150575158e+03 4.840332979136377072e-05
1.605502751375687694e+03 4.774568880153674745e-05
1.606403201600800230e+03 4.711116387914968812e-05
1.607303651825912766e+03 4.649814313538476457e-05
1.608204102051025529e+03 4.590517684328130607e-05
1.609104552276138065e+03 4.533095717896437290e-05
1.610005002501250601e+03 4.477430092238977134e-05
1.610905452726363137e+03 4.423413462720529544e-05
1.611805902951475673e+03 4.370948185969937653e-05
1.612706353176588209e+03 4.319945217894792842e-05
1.613606803401700745e+03 4.270323158811919313e-05
1.614507253626813281e+03 4.222007423355446951e-05
1.615407703851925817e+03 4.174929516604208976e-05
1.616308154077038353e+03 4.129026400948708909e-05
1.617208604302150889e+03 4.084239940733663772e-05
1.618109054527263652e+03 4.040516413779867973e-05
1.619009504752376188e+03 3.997806080593640610e-05
1.619909954977488724e+03 3.956062803482903790e-05
1.620810405202601260e+03 3.915243708972408179e-05
1.621710855427713796e+03 3.875308887888018720e-05
1.622611305652826331e+03 3.836221128299669618e-05
1.623511755877938867e+03 3.797945677198956606e-05
1.624412206103051403e+03 3.760450027368151101e-05
1.625312656328163939e+03 3.723703726385206814e-05
1.626213106553276475e+03 3.687678205125766666e-05
1.627113556778389011e+03 3.652346623475553764e-05
1.628014007003501774e+03 3.617683731266620374e-05
1.628914457228614310e+03 3.583665742709675077e-05
1.629814907453726846e+03 3.550270222812634238e-05
1.630715357678839382e+03 3.517475984467600887e-05
1.631615807903951918e+03 3.485262995049539765e-05
1.632516258129064454e+03 3.453612291511325063e-05
1.633416708354176990e+03 3.422505903082434194e-05
1.634317158579289526e+03 3.391926780782955403e-05
1.635217608804402062e+03 3.361858733057429414e-05
1.636118059029514598e+03 3.332286366912266660e-05
1.637018509254627133e+03 3.303195034011580181e-05
1.637918959479739897e+03 3.274570781245382978e-05
1.638819409704852433e+03 3.246400305339659895e-05
1.639719859929964969e+03 3.218670911123004165e-05
1.640620310155077505e+03 3.191370473107416728e-05
1.641520760380190040e+03 3.164487400075739797e-05
1.642421210605302576e+03 3.138010602401525875e-05
1.643321660830415112e+03 3.111929461854594079e-05
1.644222111055527648e+03 3.086233803671591184e-05
1.645122561280640184e+03 3.060913870692028959e-05
1.646023011505752720e+03 3.035960299381113822e-05
1.646923461730865256e+03 3.011364097577746111e-05
1.647823911955978019e+03 2.987116623821645600e-05
1.648724362181090555e+03 2.963209568128020053e-05
1.649624812406203091e+03 2.939634934090303530e-05
1.650525262631315627e+03 2.916385022202667185e-05
1.651425712856428163e+03 2.893452414304434697e-05
1.652326163081540699e+03 2.870829959056881106e-05
1.653226613306653235e+03 2.848510758371777519e-05
1.654127063531765771e+03 2.826488154717203099e-05
1.655027513756878307e+03 2.804755719233858482e-05
1.655927963981990843e+03 2.783307240600326068e-05
1.656828414207103378e+03 2.762136714590846833e-05
1.657728864432216142e+03 2.741238334274799811e-05
1.658629314657328678e+03 2.720606480810543580e-05
1.659529764882441214e+03 2.700235714790646724e-05
1.660430215107553749e+03 2.680120768099326562e-05
1.661330665332666285e+03 2.660256536245355266e-05
1.662231115557778821e+03 2.640638071137712124e-05
1.663131565782891357e+03 2.621260574272783704e-05
1.664032016008003893e+03 2.602119390305538283e-05
1.664932466233116429e+03 2.583210000978022482e-05
1.665832916458228965e+03 2.564528019381903296e-05
1.666733366683341501e+03 2.546069184532429925e-05
1.667633816908454037e+03 2.527829356233696667e-05
1.668534267133566800e+03 2.509804510216136106e-05
1.669434717358679336e+03 2.491990733529059676e-05
1.670335167583791872e+03 2.474384220171602769e-05
1.671235617808904408e+03 2.456981266947654149e-05
1.672136068034016944e+03 2.439778269530391120e-05
1.673036518259129480e+03 2.422771718723736649e-05
1.673936968484242016e+03 2.405958196908899619e-05
1.674837418709354552e+03 2.389334374664432831e-05
1.675737868934467087e+03 2.372897007549874414e-05
1.676638319159579623e+03 2.356642933043213471e-05
1.677538769384692159e+03 2.340569067622917817e-05
1.678439219609804923e+03 2.324672403986748051e-05
1.679339669834917459e+03 2.308950008398725348e-05
1.680240120060029994e+03 2.293399018157937815e-05
1.681140570285142530e+03 2.278016639181411362e-05
1.682041020510255066e+03 2.262800143695436361e-05
1.682941470735367602e+03 2.247746868028991930e-05
1.683841920960480138e+03 2.232854210503834976e-05
1.684742371185592674e+03 2.218119629415983747e-05
1.685642821410705210e+03 2.203540641103855571e-05
1.686543271635817746e+03 2.189114818098213746e-05
1.687443721860930282e+03 2.174839787350014693e-05
1.688344172086043045e+03 2.160713228531605795e-05
1.689244622311155581e+03 2.146732872408161911e-05
1.690145072536268117e+03 2.132896499275014964e-05
1.691045522761380653e+03 2.119201937458376145e-05
1.691945972986493189e+03 2.105647061875442921e-05
1.692846423211605725e+03 2.092229792651748873e-05
1.693746873436718261e+03 2.078948093792361103e-05
1.694647323661830796e+03 2.065799971904593520e-05
1.695547773886943332e+03 2.052783474969711145e-05
1.696448224112055868e+03 2.039896691161197177e-05
1.697348674337168404e+03 2.027137747707587884e-05
1.698249124562281168e+03 2.014504809797455854e-05
1.699149574787393703e+03 2.001996079525044048e-05
1.700050025012506239e+03 1.989609794874230467e-05
1.700950475237618775e+03 1.977344228739294710e-05
1.701850925462731311e+03 1.965197687980924145e-05
1.702751375687843847e+03 1.953168512515625709e-05
1.703651825912956383e+03 1.941255074437292437e-05
1.704552276138068919e+03 1.929455777169357018e-05
1.705452726363181455e+03 1.917769054646269641e-05
1.706353176588293991e+03 1.906193370523065147e-05
1.707253626813406527e+03 1.894727217411678119e-05
1.708154077038519290e+03 1.883369116143115523e-05
1.709054527263631826e+03 1.872117615054079464e-05
1.709954977488744362e+03 1.860971289297335993e-05
1.710855427713856898e+03 1.849928740174532673e-05
1.711755877938969434e+03 1.838988594490929552e-05
1.712656328164081970e+03 1.828149503930697121e-05
1.713556778389194506e+03 1.817410144452369245e-05
1.714457228614307041e+03 1.806769215703372299e-05
1.715357678839419577e+03 1.796225440452968458e-05
1.716258129064532113e+03 1.785777564042902312e-05
1.717158579289644649e+03 1.775424353855014573e-05
1.718059029514757185e+03 1.765164598795243155e-05
1.718959479739869948e+03 1.754997108793228972e-05
1.719859929964982484e+03 1.744920714317155119e-05
1.720760380190095020e+03 1.734934265903007974e-05
1.721660830415207556e+03 1.725036633697900058e-05
1.722561280640320092e+03 1.715226707016881055e-05
1.723461730865432628e+03 1.705503393912578328e-05
1.724362181090545164e+03 1.695865620757553772e-05
1.725262631315657700e+03 1.686312331838478467e-05
1.726163081540770236e+03 1.676842488962196974e-05
1.727063531765882772e+03 1.667455071072586543e-05
1.727963981990995308e+03 1.658149073878586663e-05
1.728864432216108071e+03 1.648923509492505152e-05
1.729764882441220607e+03 1.639777406078243342e-05
1.730665332666333143e+03 1.630709807509491175e-05
1.731565782891445679e+03 1.621719773037011311e-05
1.732466233116558215e+03 1.612806376965178929e-05
1.733366683341670750e+03 1.603968708337137543e-05
1.734267133566783286e+03 1.595205870628451926e-05
1.735167583791895822e+03 1.586516981448927771e-05
1.736068034017008358e+03 1.577901172252248126e-05
1.736968484242120894e+03 1.569357588053347293e-05
1.737868934467233430e+03 1.560885387153062784e-05
1.738769384692346193e+03 1.552483740870033463e-05
1.739669834917458729e+03 1.544151833279380063e-05
1.740570285142571265e+03 1.535888860958169405e-05
1.741470735367683801e+03 1.527694032737292708e-05
1.742371185592796337e+03 1.519566569459674944e-05
1.743271635817908873e+03 1.511505703744493564e-05
1.744172086043021409e+03 1.503510679757297823e-05
1.745072536268133945e+03 1.495580752985843710e-05
1.745972986493246481e+03 1.487715190021439341e-05
1.746873436718359017e+03 1.479913268345634956e-05
1.747773886943471553e+03 1.472174276122150464e-05
1.748674337168584316e+03 1.464497511993726104e-05
1.749574787393696852e+03 1.456882284884035498e-05
1.750475237618809388e+03 1.449327913804170973e-05
1.751375687843921924e+03 1.441833727663740817e-05
1.752276138069034459e+03 1.434399065086621144e-05
1.753176588294146995e+03 1.427023274230750997e-05
1.754077038519259531e+03 1.419705712612349624e-05
1.754977488744372067e+03 1.412445746934142270e-05
1.755877938969484603e+03 1.405242752917544989e-05
1.756778389194597139e+03 1.398096115138673984e-05
1.757678839419709675e+03 1.391005226868236560e-05
1.758579289644822438e+03 1.383969489914857302e-05
1.759479739869934974e+03 1.376988314472115615e-05
1.760380190095047510e+03 1.370061118968929719e-05
1.761280640320160046e+03 1.363187329923277281e-05
1.762181090545272582e+03 1.356366381799282318e-05
1.763081540770385118e+03 1.349597716867241310e-05
1.763981990995497654e+03 1.342880785067010509e-05
1.764882441220610190e+03 1.336215043874113069e-05
1.765782891445722726e+03 1.329599958168967319e-05
1.766683341670835262e+03 1.323035000108808104e-05
1.767583791895947797e+03 1.316519649002436357e-05
1.768484242121060333e+03 1.310053391187659700e-05
1.769384692346173097e+03 1.303635719911310737e-05
1.770285142571285633e+03 1.297266135211826263e-05
1.771185592796398169e+03 1.290944143804321497e-05
1.772086043021510704e+03 1.284669258968066835e-05
1.772986493246623240e+03 1.278441000436309192e-05
1.773886943471735776e+03 1.272258894288425737e-05
1.774787393696848312e+03 1.266122472844240269e-05
1.775687843921960848e+03 1.260031274560623530e-05
1.776588294147073384e+03 1.253984843930103365e-05
1.777488744372185920e+03 1.247982731381644469e-05
1.778389194597298456e+03 1.242024493183365633e-05
1.779289644822411219e+03 1.236109691347288011e-05
1.780190095047523755e+03 1.230237893535971591e-05
1.781090545272636291e+03 1.224408672971024966e-05
1.781990995497748827e+03 1.218621608343464850e-05
1.782891445722861363e+03 1.212876283725810661e-05
1.783791895947973899e+03 1.207172288486011069e-05
1.784692346173086435e+03 1.201509217202940257e-05
1.785592796398198971e+03 1.195886669583649921e-05
1.786493246623311506e+03 1.190304250382230628e-05
1.787393696848424042e+03 1.184761569320194953e-05
1.788294147073536578e+03 1.179258241008452362e-05
1.789194597298649342e+03 1.173793884870777754e-05
1.790095047523761878e+03 1.168368125068746211e-05
1.790995497748874413e+03 1.162980590428112118e-05
1.791895947973986949e+03 1.157630914366579611e-05
1.792796398199099485e+03 1.152318734822918627e-05
1.793696848424212021e+03 1.147043694187530391e-05
1.794597298649324557e+03 1.141805439234171823e-05
1.795497748874437093e+03 1.136603621053049584e-05
1.796398199099549629e+03 1.131437894985143690e-05
1.797298649324662165e+03 1.126307920557772015e-05
1.798199099549774701e+03 1.121213361421291861e-05
1.799099549774887464e+03 1.116153885287036500e-05
1.800000000000000000e+03 1.111129163866349973e-05
