0.000000000000000000e+00 9.934638254645931487e-04
9.004502251125562351e-01 1.300558893761215480e-03
1.800900450225112470e+00 1.723782568852912350e-03
2.701350675337668594e+00 2.260638401779637915e-03
3.601800900450224940e+00 2.805823895627420142e-03
4.502251125562780842e+00 3.144143974853014570e-03
5.402701350675337189e+00 3.197278609111838237e-03
6.303151575787893535e+00 3.144289252183433622e-03
7.203601800900449881e+00 3.087832256894477035e-03
8.104052026013006227e+00 2.892959024091647149e-03
9.004502251125561685e+00 2.466469795186789025e-03
9.904952476238118919e+00 1.943278008891612162e-03
1.080540270135067438e+01 1.479191889333390493e-03
1.170585292646323161e+01 1.124853495545296298e-03
1.260630315157578707e+01 8.687233849516426756e-04
1.350675337668834430e+01 6.850262113577984882e-04
1.440720360180089976e+01 5.515904835623139119e-04
1.530765382691345522e+01 4.526518367148417129e-04
1.620810405202601245e+01 3.776551443569894310e-04
1.710855427713856969e+01 3.196750696192394688e-04
1.800900450225112337e+01 2.740984561474358130e-04
1.890945472736368060e+01 2.377650366374090603e-04
1.980990495247623784e+01 2.084448695320511105e-04
2.071035517758879507e+01 1.844542981289534018e-04
2.161080540270134875e+01 1.643937954551636890e-04
2.251125562781390599e+01 1.471792732616743508e-04
2.341170585292646322e+01 1.322446246516488500e-04
2.431215607803901690e+01 1.193506688980130293e-04
2.521260630315157414e+01 1.082600441876170632e-04
2.611305652826413137e+01 9.869453252211212780e-05
2.701350675337668861e+01 9.039682743787142772e-05
2.791395697848924229e+01 8.315625618676876756e-05
2.881440720360179952e+01 7.680621995876740988e-05
2.971485742871435676e+01 7.121551236871543646e-05
3.061530765382691044e+01 6.627868734121988815e-05
3.151575787893946767e+01 6.190115425406595741e-05
3.241620810405202491e+01 5.797746552187278349e-05
3.331665832916458214e+01 5.439591513535760623e-05
3.421710855427713938e+01 5.109736559077120702e-05
3.511755877938969661e+01 4.808806678808929825e-05
3.601800900450224674e+01 4.536285894141617932e-05
3.691845922961480397e+01 4.286595703946730529e-05
3.781890945472736121e+01 4.054510551917910700e-05
3.871935967983991844e+01 3.840666980913291334e-05
3.961980990495247568e+01 3.647606439054236477e-05
4.052026013006503291e+01 3.475176965557240838e-05
4.142071035517759015e+01 3.319245784251841763e-05
4.232116058029014027e+01 3.171469499468447127e-05
4.322161080540269751e+01 3.025245443514059437e-05
4.412206103051525474e+01 2.883042076461874451e-05
4.502251125562781198e+01 2.750983172294804173e-05
4.592296148074036921e+01 2.631940505127157291e-05
4.682341170585292645e+01 2.525935015840269363e-05
4.772386193096548368e+01 2.431707758061336203e-05
4.862431215607803381e+01 2.346247311111129569e-05
4.952476238119059104e+01 2.264220162062793282e-05
5.042521260630314828e+01 2.182351838925214904e-05
5.132566283141570551e+01 2.103908479151540543e-05
5.222611305652826275e+01 2.034040083515931320e-05
5.312656328164081998e+01 1.975406155805382470e-05
5.402701350675337721e+01 1.927936141457630895e-05
5.492746373186592734e+01 1.887311737217684830e-05
5.582791395697848458e+01 1.843455077945348866e-05
5.672836418209104181e+01 1.787866726207572947e-05
5.762881440720359905e+01 1.723786482648074101e-05
5.852926463231615628e+01 1.660762425079478596e-05
5.942971485742871351e+01 1.605500801586283983e-05
6.033016508254127075e+01 1.561189845983420378e-05
6.123061530765382088e+01 1.528774455778489030e-05
6.213106553276637811e+01 1.506725205609978416e-05
6.303151575787893535e+01 1.488771615328516744e-05
6.393196598299149258e+01 1.464504461910455832e-05
6.483241620810404982e+01 1.428304789087889341e-05
6.573286643321659994e+01 1.384673865436736979e-05
6.663331665832916428e+01 1.342947970784351617e-05
6.753376688344171441e+01 1.310874784677885493e-05
6.843421710855427875e+01 1.291945702044412910e-05
6.933466733366682888e+01 1.284996451784831592e-05
7.023511755877939322e+01 1.283429610774156850e-05
7.113556778389194335e+01 1.279212758709914193e-05
7.203601800900449348e+01 1.271162794799863515e-05
7.293646823411705782e+01 1.261211931887231847e-05
7.383691845922960795e+01 1.247119029471009045e-05
7.473736868434217229e+01 1.226565461211832313e-05
7.563781890945472242e+01 1.199491904368300318e-05
7.653826913456728676e+01 1.163823638644034053e-05
7.743871935967983688e+01 1.118221930745487374e-05
7.833916958479238701e+01 1.067055299930426125e-05
7.923961980990495135e+01 1.018369812842368969e-05
8.014007003501750148e+01 9.785294191349938042e-06
8.104052026013006582e+01 9.497190443834731120e-06
8.194097048524261595e+01 9.313337915970187986e-06
8.284142071035518029e+01 9.213663383862258604e-06
8.374187093546773042e+01 9.166361270520967118e-06
8.464232116058028055e+01 9.126527745707771358e-06
8.554277138569284489e+01 9.037205746076586963e-06
8.644322161080539502e+01 8.866984679714732317e-06
8.734367183591795936e+01 8.646460208665338241e-06
8.824412206103050949e+01 8.442065462581840800e-06
8.914457228614307382e+01 8.308754067878281157e-06
9.004502251125562395e+01 8.262572087463503586e-06
9.094547273636817408e+01 8.274640040810779008e-06
9.184592296148073842e+01 8.281295075425505143e-06
9.274637318659328855e+01 8.233348082796268722e-06
9.364682341170585289e+01 8.158547497930898244e-06
9.454727363681840302e+01 8.125082434499040422e-06
9.544772386193096736e+01 8.151310168634878119e-06
9.634817408704351749e+01 8.183647512172611196e-06
9.724862431215606762e+01 8.120967810927346662e-06
9.814907453726863196e+01 7.905339019342006197e-06
9.904952476238118209e+01 7.604303090815923298e-06
9.994997498749374643e+01 7.335307797002518341e-06
1.008504252126062966e+02 7.163403294680649610e-06
1.017508754377188609e+02 7.086115443654754794e-06
1.026513256628314110e+02 7.049427874244346034e-06
1.035517758879439612e+02 6.987671164059870866e-06
1.044522261130565255e+02 6.894767438920909759e-06
1.053526763381690756e+02 6.815452152619452430e-06
1.062531265632816400e+02 6.788735552335626759e-06
1.071535767883941901e+02 6.841054804142845734e-06
1.080540270135067544e+02 6.992112574392019151e-06
1.089544772386193046e+02 7.246699279863472201e-06
1.098549274637318547e+02 7.579285321281102299e-06
1.107553776888444190e+02 7.917626264495300603e-06
1.116558279139569692e+02 8.133862538203270556e-06
1.125562781390695335e+02 8.137995880926506803e-06
1.134567283641820836e+02 8.011688207874663993e-06
1.143571785892946480e+02 7.902073967532907624e-06
1.152576288144071981e+02 7.864952965565645673e-06
1.161580790395197482e+02 7.863264566527325612e-06
1.170585292646323126e+02 7.805832744922449438e-06
1.179589794897448627e+02 7.589211414681961699e-06
1.188594297148574270e+02 7.220826005006732814e-06
1.197598799399699772e+02 6.846689010070837969e-06
1.206603301650825415e+02 6.590418463432352078e-06
1.215607803901950916e+02 6.469374087415285824e-06
1.224612306153076418e+02 6.429795171065138736e-06
1.233616808404202061e+02 6.418586207378322491e-06
1.242621310655327562e+02 6.433921928208100176e-06
1.251625812906453206e+02 6.501753657619904531e-06
1.260630315157578707e+02 6.612295491778995071e-06
1.269634817408704350e+02 6.713081549000194848e-06
1.278639319659829852e+02 6.764805128681024633e-06
1.287643821910955353e+02 6.728826932976404237e-06
1.296648324162080996e+02 6.577126854173845356e-06
1.305652826413206640e+02 6.349310688469520682e-06
1.314657328664331999e+02 6.101301985792245408e-06
1.323661830915457642e+02 5.847930858671812612e-06
1.332666333166583286e+02 5.612438710964215576e-06
1.341670835417708929e+02 5.442233160011057350e-06
1.350675337668834288e+02 5.366504914018854983e-06
1.359679839919959932e+02 5.382945999058711508e-06
1.368684342171085575e+02 5.456013522088762774e-06
1.377688844422210934e+02 5.516359152102056756e-06
1.386693346673336578e+02 5.515753147683605737e-06
1.395697848924462221e+02 5.476091886401705767e-06
1.404702351175587864e+02 5.435893190458409980e-06
1.413706853426713224e+02 5.412505683596265271e-06
1.422711355677838867e+02 5.428665480639134997e-06
1.431715857928964510e+02 5.523695504147478540e-06
1.440720360180089870e+02 5.730895462408244789e-06
1.449724862431215513e+02 6.044971587795599510e-06
1.458729364682341156e+02 6.401032596782453751e-06
1.467733866933466800e+02 6.695312072697478099e-06
1.476738369184592159e+02 6.822404912669422132e-06
1.485742871435717802e+02 6.733690671263473138e-06
1.494747373686843446e+02 6.483620378515434027e-06
1.503751875937968805e+02 6.178136446746318663e-06
1.512756378189094448e+02 5.878656201036187765e-06
1.521760880440220092e+02 5.593165735879799553e-06
1.530765382691345735e+02 5.341347456001357150e-06
1.539769884942471094e+02 5.151598301300279556e-06
1.548774387193596738e+02 5.026660346656461994e-06
1.557778889444722381e+02 4.957500515027396259e-06
1.566783391695847740e+02 4.924748879649483271e-06
1.575787893946973384e+02 4.894365384870723502e-06
1.584792396198099027e+02 4.844596651624908706e-06
1.593796898449224670e+02 4.783466610275514224e-06
1.602801400700350030e+02 4.749334490587276702e-06
1.611805902951475673e+02 4.781873131483196674e-06
1.620810405202601316e+02 4.894842751465981506e-06
1.629814907453726676e+02 5.071821039942034534e-06
1.638819409704852319e+02 5.279597409779392760e-06
1.647823911955977962e+02 5.500533439854902693e-06
1.656828414207103606e+02 5.725930924808105475e-06
1.665832916458228965e+02 5.921131657484043653e-06
1.674837418709354608e+02 6.052342831830910201e-06
1.683841920960480252e+02 6.129447235782644526e-06
1.692846423211605611e+02 6.175785118693225985e-06
1.701850925462731254e+02 6.170676152110466597e-06
1.710855427713856898e+02 6.057475938910148533e-06
1.719859929964982541e+02 5.821410249552054660e-06
1.728864432216107900e+02 5.533328895545390458e-06
1.737868934467233544e+02 5.292869837133062448e-06
1.746873436718359187e+02 5.166477155317427113e-06
1.755877938969484546e+02 5.181253890087938193e-06
1.764882441220610190e+02 5.313256439021720121e-06
1.773886943471735833e+02 5.476525117254039951e-06
1.782891445722861476e+02 5.574688550495468891e-06
1.791895947973986836e+02 5.580178976960356983e-06
1.800900450225112479e+02 5.523715288110327444e-06
1.809904952476238122e+02 5.453209129304589788e-06
1.818909454727363482e+02 5.405511542458708896e-06
1.827913956978489125e+02 5.369193372786517817e-06
1.836918459229614768e+02 5.310883105096073297e-06
1.845922961480740412e+02 5.242904602071866287e-06
1.854927463731865771e+02 5.209759061509287997e-06
1.863931965982991414e+02 5.230214984611982635e-06
1.872936468234117058e+02 5.292171751877950112e-06
1.881940970485242417e+02 5.375126588854932265e-06
1.890945472736368060e+02 5.474461814947339889e-06
1.899949974987493704e+02 5.600729107970023225e-06
1.908954477238619347e+02 5.751327326441850202e-06
1.917958979489744706e+02 5.903207001320229235e-06
1.926963481740870350e+02 6.054071073695753473e-06
1.935967983991995993e+02 6.218953563162967749e-06
1.944972486243121352e+02 6.391398853597956436e-06
1.953976988494246996e+02 6.573043800014250550e-06
1.962981490745372639e+02 6.775283218798606444e-06
1.971985992996498283e+02 6.987273127266831081e-06
1.980990495247623642e+02 7.171650750018375268e-06
1.989994997498749285e+02 7.270312859369542514e-06
1.998999499749874929e+02 7.221820053908628169e-06
2.008004002001000288e+02 7.042742020748113787e-06
2.017008504252125931e+02 6.825494506448418709e-06
2.026013006503251574e+02 6.660393094369604037e-06
2.035017508754377218e+02 6.588617255273973999e-06
2.044022011005502577e+02 6.580222676684570125e-06
2.053026513256628220e+02 6.580665235192393942e-06
2.062031015507753864e+02 6.585433229529375927e-06
2.071035517758879223e+02 6.617299795105638077e-06
2.080040020010004866e+02 6.643475348397553162e-06
2.089044522261130510e+02 6.600281726835261869e-06
2.098049024512256153e+02 6.479584896449713538e-06
2.107053526763381512e+02 6.304826052514680329e-06
2.116058029014507156e+02 6.121285741832490237e-06
2.125062531265632799e+02 6.016776179183823750e-06
2.134067033516758158e+02 6.060062957655292636e-06
2.143071535767883802e+02 6.251116446712940756e-06
2.152076038019009445e+02 6.547540923830093027e-06
2.161080540270135089e+02 6.891750015109414074e-06
2.170085042521260448e+02 7.207258268330357496e-06
2.179089544772386091e+02 7.415389953411688140e-06
2.188094047023511735e+02 7.500045825686074536e-06
2.197098549274637094e+02 7.514808909003904454e-06
2.206103051525762737e+02 7.525708385498147732e-06
2.215107553776888381e+02 7.560449680914131798e-06
2.224112056028014024e+02 7.604547535370695449e-06
2.233116558279139383e+02 7.630456499036576473e-06
2.242121060530265027e+02 7.601602766659146074e-06
2.251125562781390670e+02 7.503631234348576975e-06
2.260130065032516029e+02 7.375880796538919820e-06
2.269134567283641672e+02 7.258765360667592814e-06
2.278139069534767316e+02 7.154850715419814874e-06
2.287143571785892959e+02 7.070812623168301923e-06
2.296148074037018318e+02 7.013291045173498462e-06
2.305152576288143962e+02 6.952531970869505220e-06
2.314157078539269605e+02 6.850917837729536912e-06
2.323161580790394964e+02 6.739279533773312473e-06
2.332166083041520608e+02 6.685935620743244147e-06
2.341170585292646251e+02 6.705661411572208776e-06
2.350175087543771895e+02 6.753200918930801259e-06
2.359179589794897254e+02 6.781442909672639556e-06
2.368184092046022897e+02 6.760061065720244380e-06
2.377188594297148541e+02 6.658989656939073946e-06
2.386193096548273900e+02 6.472007559780097898e-06
2.395197598799399543e+02 6.231470545893865140e-06
2.404202101050525187e+02 5.990411735514173740e-06
2.413206603301650830e+02 5.811909374666810290e-06
2.422211105552776189e+02 5.728036737986787250e-06
2.431215607803901833e+02 5.703118182862338588e-06
2.440220110055027476e+02 5.671600754145544003e-06
2.449224612306152835e+02 5.612071362354840846e-06
2.458229114557278479e+02 5.562784239615362260e-06
2.467233616808404122e+02 5.568085442748877520e-06
2.476238119059529765e+02 5.644564234792227998e-06
2.485242621310655124e+02 5.795325161670492987e-06
2.494247123561780768e+02 6.034669242069333910e-06
2.503251625812906411e+02 6.372867361176490411e-06
2.512256128064031770e+02 6.772588941184218418e-06
2.521260630315157414e+02 7.136407245322594935e-06
2.530265132566283057e+02 7.376055674197152344e-06
2.539269634817408701e+02 7.490952796725297601e-06
2.548274137068534060e+02 7.554774587793815880e-06
2.557278639319659703e+02 7.635452514675579401e-06
2.566283141570785347e+02 7.714548464747530336e-06
2.575287643821910706e+02 7.697766240992325092e-06
2.584292146073036633e+02 7.527491861962456799e-06
2.593296648324161993e+02 7.237510193659989200e-06
2.602301150575287352e+02 6.906459371504885813e-06
2.611305652826413279e+02 6.607417898505715053e-06
2.620310155077538639e+02 6.380520803148466575e-06
2.629314657328663998e+02 6.243390741064526539e-06
2.638319159579789925e+02 6.215754769970917013e-06
2.647323661830915285e+02 6.287713463847965724e-06
2.656328164082040644e+02 6.407823447354907558e-06
2.665332666333166571e+02 6.551166437666256810e-06
2.674337168584291931e+02 6.726311775724765776e-06
2.683341670835417858e+02 6.920719517528063252e-06
2.692346173086543217e+02 7.096680256910416124e-06
2.701350675337668577e+02 7.226840963910092471e-06
2.710355177588794504e+02 7.299653162145012778e-06
2.719359679839919863e+02 7.308480612954945756e-06
2.728364182091045222e+02 7.264875089159710022e-06
2.737368684342171150e+02 7.181813512071548337e-06
2.746373186593296509e+02 7.038126431697564093e-06
2.755377688844421868e+02 6.817733629829301033e-06
2.764382191095547796e+02 6.551532964016668352e-06
2.773386693346673155e+02 6.309008031459995731e-06
2.782391195597798514e+02 6.158200763330882497e-06
2.791395697848924442e+02 6.114168574857423902e-06
2.800400200100049801e+02 6.135729045929953855e-06
2.809404702351175729e+02 6.173706046607684288e-06
2.818409204602301088e+02 6.200244997009149663e-06
2.827413706853426447e+02 6.212833361479799526e-06
2.836418209104552375e+02 6.253127562512509283e-06
2.845422711355677734e+02 6.374806741982705744e-06
2.854427213606803093e+02 6.575275548072193667e-06
2.863431715857929021e+02 6.792624180277892904e-06
2.872436218109054380e+02 6.961066393408575342e-06
2.881440720360179739e+02 7.050392983795955099e-06
2.890445222611305667e+02 7.063026090627018212e-06
2.899449724862431026e+02 7.023768180255786768e-06
2.908454227113556385e+02 6.954695609874876765e-06
2.917458729364682313e+02 6.870698862848370865e-06
2.926463231615807672e+02 6.805615251587803657e-06
2.935467733866933600e+02 6.773309805482585065e-06
2.944472236118058959e+02 6.756692057965445955e-06
2.953476738369184318e+02 6.770402515650868932e-06
2.962481240620310246e+02 6.845548756786579549e-06
2.971485742871435605e+02 6.990544443299446255e-06
2.980490245122560964e+02 7.202981402516339836e-06
2.989494747373686891e+02 7.457097304456879088e-06
2.998499249624812251e+02 7.701207014501220191e-06
3.007503751875937610e+02 7.896082107185191983e-06
3.016508254127063537e+02 8.031114210391955761e-06
3.025512756378188897e+02 8.106674172551235215e-06
3.034517258629314256e+02 8.133109438830695204e-06
3.043521760880440183e+02 8.129613818194453349e-06
3.052526263131565543e+02 8.105106752969261971e-06
3.061530765382691470e+02 8.044281708050329355e-06
3.070535267633816829e+02 7.940855548491694758e-06
3.079539769884942189e+02 7.827744699114629894e-06
3.088544272136068116e+02 7.733032373654733519e-06
3.097548774387193475e+02 7.637745404345727199e-06
3.106553276638318835e+02 7.517490823672991267e-06
3.115557778889444762e+02 7.376022601759040108e-06
3.124562281140570121e+02 7.229900848918801752e-06
3.133566783391695481e+02 7.111735249714155810e-06
3.142571285642821408e+02 7.079094693781851889e-06
3.151575787893946767e+02 7.187099243219601003e-06
3.160580290145072127e+02 7.439142846771433829e-06
3.169584792396198054e+02 7.755593326070964050e-06
3.178589294647323413e+02 8.037193827181231644e-06
3.187593796898449341e+02 8.267688543979670790e-06
3.196598299149574700e+02 8.464230832108748262e-06
3.205602801400700059e+02 8.598328240821253779e-06
3.214607303651825987e+02 8.626841863492952910e-06
3.223611805902951346e+02 8.529102327169194698e-06
3.232616308154076705e+02 8.317214417836682903e-06
3.241620810405202633e+02 8.030168731859934923e-06
3.250625312656327992e+02 7.726886871258804987e-06
3.259629814907453351e+02 7.476252474016878900e-06
3.268634317158579279e+02 7.324091395401583526e-06
3.277638819409704638e+02 7.267918847891544297e-06
3.286643321660829997e+02 7.256431831225111340e-06
3.295647823911955925e+02 7.236486312167064105e-06
3.304652326163081284e+02 7.193902903882592137e-06
3.313656828414207212e+02 7.143734249319469421e-06
3.322661330665332571e+02 7.108261013604444525e-06
3.331665832916457930e+02 7.089203449868302735e-06
3.340670335167583858e+02 7.082130810393933089e-06
3.349674837418709217e+02 7.106211988733684383e-06
3.358679339669834576e+02 7.179627634864112436e-06
3.367683841920960504e+02 7.312404643407414880e-06
3.376688344172085863e+02 7.515868291338048912e-06
3.385692846423211222e+02 7.765548607285882354e-06
3.394697348674337150e+02 7.990147461154902908e-06
3.403701850925462509e+02 8.130238451225192531e-06
3.412706353176587868e+02 8.182931609561824916e-06
3.421710855427713796e+02 8.165878521193200106e-06
3.430715357678839155e+02 8.080172712539069829e-06
3.439719859929965082e+02 7.948628625996066258e-06
3.448724362181090441e+02 7.807707529673631229e-06
3.457728864432215801e+02 7.682436462625432869e-06
3.466733366683341728e+02 7.598151128383839024e-06
3.475737868934467087e+02 7.558751353300321867e-06
3.484742371185592447e+02 7.543556458469586061e-06
3.493746873436718374e+02 7.540739013945227390e-06
3.502751375687843733e+02 7.556665684937705742e-06
3.511755877938969093e+02 7.608055183850608065e-06
3.520760380190095020e+02 7.721927271870850727e-06
3.529764882441220379e+02 7.896157449247028699e-06
3.538769384692345739e+02 8.090123996163878919e-06
3.547773886943471666e+02 8.270870149839310451e-06
3.556778389194597025e+02 8.420231861234814190e-06
3.565782891445722953e+02 8.523896341885454358e-06
3.574787393696848312e+02 8.584775861812080929e-06
3.583791895947973671e+02 8.616463459102543620e-06
3.592796398199099599e+02 8.611237986822957910e-06
3.601800900450224958e+02 8.548961151090385207e-06
3.610805402701350317e+02 8.442923639988102869e-06
3.619809904952476245e+02 8.324346873637279807e-06
3.628814407203601604e+02 8.208712562798611785e-06
3.637818909454726963e+02 8.128052043799238206e-06
3.646823411705852891e+02 8.140977535833692174e-06
3.655827913956978250e+02 8.282713629591459932e-06
3.664832416208103609e+02 8.526806934404643939e-06
3.673836918459229537e+02 8.796155234330330761e-06
3.682841420710354896e+02 9.053301052904276494e-06
3.691845922961480824e+02 9.308525160847010613e-06
3.700850425212606183e+02 9.535095533219170813e-06
3.709854927463731542e+02 9.676519020677881719e-06
3.718859429714857470e+02 9.678985852480176120e-06
3.727863931965982829e+02 9.519834114359628776e-06
3.736868434217108188e+02 9.236330401170855480e-06
3.745872936468234116e+02 8.903781542622466250e-06
3.754877438719359475e+02 8.608374566016225646e-06
3.763881940970484834e+02 8.406138871233615021e-06
3.772886443221610762e+02 8.299675811687222342e-06
3.781890945472736121e+02 8.251326130493449857e-06
3.790895447723861480e+02 8.232605217536792240e-06
3.799899949974987408e+02 8.249742062597362663e-06
3.808904452226112767e+02 8.318425663905845276e-06
3.817908954477238694e+02 8.420230267711295146e-06
3.826913456728364054e+02 8.521068913398771071e-06
3.835917958979489413e+02 8.630628674212752275e-06
3.844922461230615340e+02 8.779098808121347906e-06
3.853926963481740700e+02 8.941664461393294359e-06
3.862931465732866059e+02 9.041559124168343058e-06
3.871935967983991986e+02 9.047434280996197804e-06
3.880940470235117346e+02 8.991395464915493183e-06
3.889944972486242705e+02 8.906560601337917975e-06
3.898949474737368632e+02 8.800460564253730783e-06
3.907953976988493991e+02 8.680434005991908129e-06
3.916958479239619351e+02 8.550306280050405259e-06
3.925962981490745278e+02 8.398400686994321048e-06
3.934967483741870637e+02 8.241929837154287418e-06
3.943971985992996565e+02 8.145591157785066127e-06
3.952976488244121924e+02 8.173181468719313144e-06
3.961980990495247283e+02 8.326515657536110200e-06
3.970985492746373211e+02 8.555804976960226771e-06
3.979989994997498570e+02 8.826120697311950466e-06
3.988994497248623929e+02 9.118412185532030143e-06
3.997998999499749857e+02 9.374766823129491902e-06
4.007003501750875216e+02 9.524703023983785679e-06
4.016008004002000575e+02 9.540260350743968000e-06
4.025012506253126503e+02 9.448731576669078139e-06
4.034017008504251862e+02 9.306133448772288145e-06
4.043021510755377221e+02 9.153049086419245568e-06
4.052026013006503149e+02 9.002382735774144211e-06
4.061030515257628508e+02 8.856122057600222447e-06
4.070035017508754436e+02 8.722323771577660643e-06
4.079039519759879795e+02 8.630828382272632225e-06
4.088044022011005154e+02 8.620376802751224206e-06
4.097048524262131082e+02 8.703583657623679138e-06
4.106053026513256441e+02 8.872460034748268738e-06
4.115057528764381800e+02 9.106309697121814646e-06
4.124062031015507728e+02 9.363974925699327379e-06
4.133066533266633087e+02 9.602197654202953656e-06
4.142071035517758446e+02 9.806509732757809233e-06
4.151075537768884374e+02 9.995492872545738068e-06
4.160080040020009733e+02 1.018923692962556879e-05
4.169084542271135092e+02 1.036274825766865198e-05
4.178089044522261020e+02 1.045042439261611345e-05
4.187093546773386379e+02 1.040028626896763766e-05
4.196098049024512306e+02 1.019204113850492898e-05
4.205102551275637666e+02 9.857855098202878422e-06
4.214107053526763025e+02 9.491391943637219900e-06
4.223111555777888952e+02 9.187676223721404379e-06
4.232116058029014312e+02 9.004139946126998788e-06
4.241120560280139671e+02 8.961413611856088374e-06
4.250125062531265598e+02 9.039413157641311078e-06
4.259129564782390958e+02 9.196586070032769842e-06
4.268134067033516317e+02 9.401662888171287183e-06
4.277138569284642244e+02 9.625191263329328892e-06
4.286143071535767604e+02 9.844756011881967075e-06
4.295147573786892963e+02 1.006409494541303667e-05
4.304152076038018890e+02 1.029389202137550452e-05
4.313156578289144250e+02 1.051219419313281680e-05
4.322161080540270177e+02 1.065979907107123431e-05
4.331165582791395536e+02 1.068129924941869330e-05
4.340170085042520896e+02 1.058596248540972267e-05
4.349174587293646823e+02 1.044804962664683246e-05
4.358179089544772182e+02 1.034094932332868165e-05
4.367183591795897541e+02 1.031328399074346088e-05
4.376188094047023469e+02 1.037183344359727494e-05
4.385192596298148828e+02 1.049203161274226894e-05
4.394197098549274187e+02 1.066670417218392576e-05
4.403201600800400115e+02 1.089470330491616796e-05
4.412206103051525474e+02 1.116344555182377627e-05
4.421210605302650833e+02 1.144803936227961635e-05
4.430215107553776761e+02 1.170086819858214722e-05
4.439219609804902120e+02 1.188937051753717276e-05
4.448224112056028048e+02 1.200578011264197661e-05
4.457228614307153407e+02 1.205567533851386328e-05
4.466233116558278766e+02 1.206876131624610398e-05
4.475237618809404694e+02 1.205261542712754090e-05
4.484242121060530053e+02 1.198684965727689865e-05
4.493246623311655412e+02 1.185923374571900964e-05
4.502251125562781340e+02 1.168895722129201964e-05
4.511255627813906699e+02 1.155345058505473040e-05
4.520260130065032058e+02 1.154004425769281151e-05
4.529264632316157986e+02 1.168252734701133727e-05
4.538269134567283345e+02 1.194403954416444276e-05
4.547273636818408704e+02 1.225170889470913537e-05
4.556278139069534632e+02 1.254772349693586283e-05
4.565282641320659991e+02 1.278261506553236882e-05
4.574287143571785919e+02 1.291898398588365794e-05
4.583291645822911278e+02 1.295759649568824638e-05
4.592296148074036637e+02 1.293652252815939564e-05
4.601300650325162565e+02 1.289427125968637830e-05
4.610305152576287924e+02 1.283590851536449000e-05
4.619309654827413283e+02 1.277360173098502913e-05
4.628314157078539210e+02 1.274483602753850698e-05
4.637318659329664570e+02 1.276181115825953637e-05
4.646323161580789929e+02 1.280773648345889756e-05
4.655327663831915856e+02 1.286767783543133270e-05
4.664332166083041216e+02 1.292725930224234867e-05
4.673336668334167143e+02 1.297606682740055277e-05
4.682341170585292502e+02 1.302313358859480703e-05
4.691345672836417862e+02 1.310920086048791294e-05
4.700350175087543789e+02 1.325848258901867754e-05
4.709354677338669148e+02 1.343559018248166266e-05
4.718359179589794508e+02 1.358849373976636476e-05
4.727363681840920435e+02 1.370847604395321418e-05
4.736368184092045794e+02 1.382136564751695600e-05
4.745372686343171154e+02 1.390352030776700192e-05
4.754377188594297081e+02 1.390929586694068515e-05
4.763381690845422440e+02 1.383674890795912301e-05
4.772386193096547800e+02 1.372528455283118621e-05
4.781390695347673727e+02 1.365139473042988321e-05
4.790395197598799086e+02 1.367395426405628108e-05
4.799399699849925014e+02 1.376944108875386336e-05
4.808404202101050373e+02 1.387009650417198962e-05
4.817408704352175732e+02 1.393743563547428546e-05
4.826413206603301660e+02 1.398704630397150107e-05
4.835417708854427019e+02 1.403334688876580398e-05
4.844422211105552378e+02 1.404967333330708509e-05
4.853426713356678306e+02 1.401147215144196390e-05
4.862431215607803665e+02 1.392157530511553565e-05
4.871435717858929024e+02 1.381084726423994443e-05
4.880440220110054952e+02 1.373319392136761859e-05
4.889444722361180311e+02 1.374207668127574788e-05
4.898449224612305670e+02 1.385518636496263855e-05
4.907453726863431598e+02 1.402275024098674906e-05
4.916458229114556957e+02 1.415354845733889789e-05
4.925462731365682885e+02 1.419956543406789661e-05
4.934467233616808244e+02 1.420237018013549605e-05
4.943471735867933603e+02 1.423672128916851301e-05
4.952476238119059531e+02 1.434631358881115086e-05
4.961480740370184890e+02 1.454220369773710294e-05
4.970485242621310249e+02 1.479888813912289533e-05
4.979489744872436177e+02 1.506703741839007891e-05
4.988494247123561536e+02 1.531655732307244451e-05
4.997498749374686895e+02 1.551769583789248784e-05
5.006503251625812823e+02 1.564937429733390280e-05
5.015507753876938182e+02 1.574177121821655772e-05
5.024512256128063541e+02 1.584613091883171131e-05
5.033516758379189469e+02 1.597355161744298805e-05
5.042521260630314828e+02 1.608883174944686313e-05
5.051525762881440755e+02 1.614842883845063937e-05
5.060530265132566115e+02 1.613151885213706500e-05
5.069534767383691474e+02 1.605520394691074566e-05
5.078539269634817401e+02 1.595729886570052515e-05
5.087543771885942760e+02 1.587476166124434336e-05
5.096548274137068120e+02 1.583872195986576445e-05
5.105552776388194047e+02 1.587025493674417215e-05
5.114557278639319406e+02 1.596040484020326788e-05
5.123561780890445334e+02 1.606492828803834713e-05
5.132566283141570693e+02 1.614520133431726211e-05
5.141570785392696052e+02 1.622287916213085700e-05
5.150575287643821412e+02 1.637628033294066189e-05
5.159579789894946771e+02 1.664019212198014931e-05
5.168584292146073267e+02 1.694724424229447556e-05
5.177588794397198626e+02 1.718913377496672824e-05
5.186593296648323985e+02 1.729760363590701383e-05
5.195597798899449344e+02 1.726068447480550629e-05
5.204602301150574704e+02 1.712026935212434360e-05
5.213606803401700063e+02 1.694774243574191557e-05
5.222611305652826559e+02 1.681435813957094614e-05
5.231615807903951918e+02 1.676092028833505216e-05
5.240620310155077277e+02 1.678095762208128440e-05
5.249624812406202636e+02 1.686468377972380088e-05
5.258629314657327996e+02 1.700715180405720062e-05
5.267633816908454492e+02 1.718131556616365446e-05
5.276638319159579851e+02 1.733613055496293628e-05
5.285642821410705210e+02 1.741978787933125535e-05
5.294647323661830569e+02 1.740368277898785801e-05
5.303651825912955928e+02 1.729778841085034558e-05
5.312656328164081287e+02 1.716483025280450894e-05
5.321660830415207784e+02 1.707935709532022272e-05
5.330665332666333143e+02 1.705542110147838938e-05
5.339669834917458502e+02 1.707038392367881251e-05
5.348674337168583861e+02 1.712642033105387998e-05
5.357678839419709220e+02 1.725356203322491106e-05
5.366683341670835716e+02 1.746471929548141377e-05
5.375687843921961075e+02 1.771030229750966464e-05
5.384692346173086435e+02 1.792435230143449862e-05
5.393696848424211794e+02 1.810839800108374019e-05
5.402701350675337153e+02 1.830475470242067792e-05
5.411705852926462512e+02 1.853741408275898621e-05
5.420710355177589008e+02 1.878347391547869491e-05
5.429714857428714367e+02 1.900778289092928654e-05
5.438719359679839727e+02 1.920694687233851381e-05
5.447723861930965086e+02 1.939394192193492518e-05
5.456728364182090445e+02 1.961135135529613099e-05
5.465732866433215804e+02 1.992550225814891982e-05
5.474737368684342300e+02 2.035552357981232604e-05
5.483741870935467659e+02 2.083429207791926845e-05
5.492746373186593019e+02 2.127239948005717351e-05
5.501750875437718378e+02 2.165134995506825706e-05
5.510755377688843737e+02 2.202353130522609478e-05
5.519759879939970233e+02 2.244926510654012897e-05
5.528764382191095592e+02 2.293006380852795231e-05
5.537768884442220951e+02 2.341255381311880331e-05
5.546773386693346310e+02 2.387150755353548474e-05
5.555777888944471670e+02 2.431088055750342146e-05
5.564782391195597029e+02 2.473889966394454481e-05
5.573786893446723525e+02 2.520408055239132031e-05
5.582791395697848884e+02 2.572398017146736808e-05
5.591795897948974243e+02 2.621765298456835345e-05
5.600800400200099602e+02 2.659344382935304826e-05
5.609804902451224962e+02 2.686714256246751289e-05
5.618809404702351458e+02 2.713572984846172352e-05
5.627813906953476817e+02 2.748256183043319543e-05
5.636818409204602176e+02 2.788999435002741998e-05
5.645822911455727535e+02 2.825017370433085918e-05
5.654827413706852894e+02 2.850249663493996573e-05
5.663831915957978254e+02 2.874476481961764967e-05
5.672836418209104750e+02 2.908125214561392956e-05
5.681840920460230109e+02 2.943744760567983224e-05
5.690845422711355468e+02 2.966990353157302255e-05
5.699849924962480827e+02 2.971690841978143636e-05
5.708854427213606186e+02 2.963819088968825210e-05
5.717858929464731546e+02 2.955401105726346118e-05
5.726863431715858042e+02 2.949521178893161521e-05
5.735867933966983401e+02 2.940448183099203462e-05
5.744872436218108760e+02 2.924989464990112919e-05
5.753876938469234119e+02 2.909803219873720838e-05
5.762881440720359478e+02 2.903006414933957251e-05
5.771885942971485974e+02 2.904122916274147188e-05
5.780890445222611334e+02 2.911771834545067475e-05
5.789894947473736693e+02 2.929381654512428344e-05
5.798899449724862052e+02 2.960423495969665718e-05
5.807903951975987411e+02 2.997025321738976055e-05
5.816908454227112770e+02 3.026930121056957288e-05
5.825912956478239266e+02 3.051268370361865165e-05
5.834917458729364625e+02 3.074887233863864578e-05
5.843921960980489985e+02 3.097664927837215181e-05
5.852926463231615344e+02 3.118992672491025306e-05
5.861930965482740703e+02 3.137632431885418793e-05
5.870935467733867199e+02 3.150616110415588745e-05
5.879939969984992558e+02 3.162469130472020883e-05
5.888944472236117917e+02 3.183987695543335160e-05
5.897948974487243277e+02 3.220704573381423573e-05
5.906953476738368636e+02 3.268585845777286110e-05
5.915957978989493995e+02 3.316923962617841770e-05
5.924962481240620491e+02 3.361619620736705624e-05
5.933966983491745850e+02 3.405941815497689237e-05
5.942971485742871209e+02 3.451180564350826794e-05
5.951975987993996569e+02 3.489634516545411319e-05
5.960980490245121928e+02 3.511122446916607005e-05
5.969984992496247287e+02 3.515478464329738689e-05
5.978989494747373783e+02 3.509209547626895577e-05
5.987993996998499142e+02 3.495509941856828745e-05
5.996998499249624501e+02 3.475529216396020882e-05
6.006003001500749860e+02 3.459987975653137633e-05
6.015007503751875220e+02 3.465435922239022074e-05
6.024012006003001716e+02 3.499650237385389676e-05
6.033016508254127075e+02 3.558001356344865813e-05
6.042021010505252434e+02 3.628754802641464698e-05
6.051025512756377793e+02 3.701076496431907493e-05
6.060030015007503152e+02 3.763646463107683489e-05
6.069034517258628512e+02 3.807941410530128436e-05
6.078039019509755008e+02 3.837455974469376724e-05
6.087043521760880367e+02 3.853882255979534488e-05
6.096048024012005726e+02 3.860404102567012343e-05
6.105052526263131085e+02 3.875721144877742773e-05
6.114057028514256444e+02 3.911611873065072771e-05
6.123061530765382940e+02 3.962820670795212706e-05
6.132066033016508300e+02 4.012839101431624824e-05
6.141070535267633659e+02 4.044159907034077347e-05
6.150075037518759018e+02 4.056826322614848088e-05
6.159079539769884377e+02 4.059761673645586851e-05
6.168084042021009736e+02 4.055697457884344462e-05
6.177088544272136232e+02 4.042926817842625888e-05
6.186093046523261592e+02 4.026867360601429848e-05
6.195097548774386951e+02 4.016798601576728183e-05
6.204102051025512310e+02 4.012579386782823168e-05
6.213106553276637669e+02 4.015124998219846370e-05
6.222111055527763028e+02 4.030885792080887183e-05
6.231115557778889524e+02 4.062054274389349594e-05
6.240120060030014884e+02 4.107150924148824555e-05
6.249124562281140243e+02 4.168884808680556038e-05
6.258129064532265602e+02 4.242710448662072298e-05
6.267133566783390961e+02 4.316504970302148124e-05
6.276138069034517457e+02 4.388535380533177012e-05
6.285142571285642816e+02 4.464060104835184263e-05
6.294147073536768175e+02 4.533794597106511487e-05
6.303151575787893535e+02 4.568400616382079486e-05
6.312156078039018894e+02 4.543281887453547586e-05
6.321160580290144253e+02 4.465592451448363066e-05
6.330165082541270749e+02 4.379044148825210389e-05
6.339169584792396108e+02 4.328093218620528750e-05
6.348174087043521467e+02 4.321516393791072387e-05
6.357178589294646827e+02 4.340939180414706624e-05
6.366183091545772186e+02 4.370196686900625890e-05
6.375187593796898682e+02 4.407417996436342408e-05
6.384192096048024041e+02 4.449140599094135738e-05
6.393196598299149400e+02 4.488969287946445946e-05
6.402201100550274759e+02 4.525863868965281409e-05
6.411205602801400119e+02 4.545113604116527377e-05
6.420210105052525478e+02 4.523399761978545876e-05
6.429214607303651974e+02 4.466319829143760710e-05
6.438219109554777333e+02 4.408445668306773215e-05
6.447223611805902692e+02 4.380604665833292546e-05
6.456228114057028051e+02 4.389035863687270337e-05
6.465232616308153411e+02 4.420190128201630331e-05
6.474237118559278770e+02 4.455760522112125306e-05
6.483241620810405266e+02 4.471926017163108889e-05
6.492246123061530625e+02 4.444760329357953853e-05
6.501250625312655984e+02 4.376075475020630410e-05
6.510255127563781343e+02 4.294055676272093411e-05
6.519259629814906702e+02 4.232513275772059380e-05
6.528264132066033198e+02 4.198904763901027063e-05
6.537268634317158558e+02 4.171314949202401678e-05
6.546273136568283917e+02 4.138872226901731084e-05
6.555277638819409276e+02 4.115391980349967989e-05
6.564282141070534635e+02 4.121812798976763961e-05
6.573286643321659994e+02 4.169393516736954954e-05
6.582291145572786490e+02 4.244218606292696536e-05
6.591295647823911850e+02 4.313761157609897134e-05
6.600300150075037209e+02 4.358929594372992278e-05
6.609304652326162568e+02 4.385891861676150135e-05
6.618309154577287927e+02 4.401931973886314596e-05
6.627313656828414423e+02 4.407021104148777581e-05
6.636318159079539782e+02 4.406436352896700345e-05
6.645322661330665142e+02 4.409079820353319041e-05
6.654327163581790501e+02 4.410711073028649500e-05
6.663331665832915860e+02 4.398235781227809101e-05
6.672336168084041219e+02 4.362923722865701863e-05
6.681340670335167715e+02 4.300443088419267552e-05
6.690345172586293074e+02 4.213225854406229436e-05
6.699349674837418434e+02 4.118389730728010974e-05
6.708354177088543793e+02 4.040530637146586598e-05
6.717358679339669152e+02 3.989035432494332707e-05
6.726363181590794511e+02 3.953991614493786194e-05
6.735367683841921007e+02 3.925516933541681907e-05
6.744372186093046366e+02 3.910759165395129240e-05
6.753376688344171725e+02 3.925079649489891088e-05
6.762381190595297085e+02 3.969485234846531626e-05
6.771385692846422444e+02 4.024404293501162129e-05
6.780390195097548940e+02 4.060566681104401169e-05
6.789394697348674299e+02 4.066420393495316226e-05
6.798399199599799658e+02 4.055935551348848291e-05
6.807403701850925017e+02 4.040829990034976269e-05
6.816408204102050377e+02 4.025324245249113734e-05
6.825412706353175736e+02 4.015998701928767830e-05
6.834417208604302232e+02 4.017219741360593724e-05
6.843421710855427591e+02 4.024864597964049112e-05
6.852426213106552950e+02 4.026619300476163128e-05
6.861430715357678309e+02 4.014741588495411990e-05
6.870435217608803669e+02 3.994034964227590037e-05
6.879439719859930165e+02 3.969170296934546396e-05
6.888444222111055524e+02 3.937638201081422758e-05
6.897448724362180883e+02 3.895710214980888190e-05
6.906453226613306242e+02 3.844686826095401738e-05
6.915457728864431601e+02 3.790499805609922755e-05
6.924462231115556961e+02 3.743351315935535315e-05
6.933466733366683457e+02 3.711300779302248199e-05
6.942471235617808816e+02 3.695856622941523067e-05
6.951475737868934175e+02 3.691340660434774969e-05
6.960480240120059534e+02 3.687332486619133206e-05
6.969484742371184893e+02 3.679595124796074078e-05
6.978489244622311389e+02 3.679213136375678245e-05
6.987493746873436749e+02 3.698052097303389994e-05
6.996498249124562108e+02 3.735040874274740539e-05
7.005502751375687467e+02 3.774291767426055441e-05
7.014507253626812826e+02 3.789842871290889805e-05
7.023511755877938185e+02 3.766685758555800913e-05
7.032516258129064681e+02 3.724592034429460353e-05
7.041520760380190040e+02 3.697353820558678687e-05
7.050525262631315400e+02 3.694080371307297087e-05
7.059529764882440759e+02 3.701336871683046412e-05
7.068534267133566118e+02 3.702303924597484536e-05
7.077538769384691477e+02 3.682100719176787079e-05
7.086543271635817973e+02 3.637102792451341087e-05
7.095547773886943332e+02 3.581964676269368448e-05
7.104552276138068692e+02 3.530758647362023658e-05
7.113556778389194051e+02 3.487838818851843965e-05
7.122561280640319410e+02 3.452778043426937084e-05
7.131565782891445906e+02 3.418490285355294347e-05
7.140570285142571265e+02 3.378037950000938505e-05
7.149574787393696624e+02 3.328612398984640464e-05
7.158579289644821984e+02 3.267965084450809933e-05
7.167583791895947343e+02 3.196532669617998585e-05
7.176588294147072702e+02 3.124786135470985560e-05
7.185592796398199198e+02 3.066306094800495152e-05
7.194597298649324557e+02 3.033775765081010294e-05
7.203601800900449916e+02 3.028933162030092601e-05
7.212606303151575275e+02 3.029856004065103439e-05
7.221610805402700635e+02 3.012451617594635780e-05
7.230615307653827131e+02 2.977501838374291802e-05
7.239619809904952490e+02 2.942015504430731452e-05
7.248624312156077849e+02 2.914825573595201689e-05
7.257628814407203208e+02 2.892432370737064458e-05
7.266633316658328567e+02 2.875032899884336380e-05
7.275637818909453927e+02 2.866725723826414558e-05
7.284642321160580423e+02 2.862403721052660373e-05
7.293646823411705782e+02 2.851462920184153662e-05
7.302651325662831141e+02 2.832907326309249139e-05
7.311655827913956500e+02 2.814338547253890989e-05
7.320660330165081859e+02 2.800671688941057936e-05
7.329664832416207219e+02 2.790169883304155748e-05
7.338669334667333715e+02 2.781033997757075368e-05
7.347673836918459074e+02 2.775413708117377315e-05
7.356678339169584433e+02 2.776510089001906924e-05
7.365682841420709792e+02 2.788020696049737875e-05
7.374687343671835151e+02 2.806227231419940846e-05
7.383691845922961647e+02 2.814492940326508629e-05
7.392696348174087007e+02 2.800626730571463761e-05
7.401700850425212366e+02 2.773259216417117793e-05
7.410705352676337725e+02 2.752595630336839068e-05
7.419709854927463084e+02 2.755754851726589013e-05
7.428714357178588443e+02 2.783355341136019767e-05
7.437718859429714939e+02 2.817528667082892801e-05
7.446723361680840299e+02 2.835413369748137632e-05
7.455727863931965658e+02 2.823150262707563256e-05
7.464732366183091017e+02 2.780686118194685769e-05
7.473736868434216376e+02 2.717918522822345063e-05
7.482741370685342872e+02 2.649259463990432284e-05
7.491745872936468231e+02 2.587615219942679919e-05
7.500750375187593590e+02 2.539364993883005581e-05
7.509754877438718950e+02 2.502628613056907472e-05
7.518759379689844309e+02 2.471666773271399232e-05
7.527763881940969668e+02 2.441258439820211836e-05
7.536768384192096164e+02 2.411148968570663644e-05
7.545772886443221523e+02 2.385446468482015601e-05
7.554777388694346882e+02 2.365923209230850840e-05
7.563781890945472242e+02 2.352828128289879701e-05
7.572786393196597601e+02 2.347726405462657222e-05
7.581790895447722960e+02 2.349348367604933639e-05
7.590795397698849456e+02 2.348596706291429526e-05
7.599799899949974815e+02 2.336102719999920974e-05
7.608804402201100174e+02 2.315173062158290668e-05
7.617808904452225534e+02 2.300647927549078801e-05
7.626813406703350893e+02 2.302887585885355357e-05
7.635817908954477389e+02 2.317107615215585560e-05
7.644822411205602748e+02 2.331503931277633434e-05
7.653826913456728107e+02 2.336124923414947477e-05
7.662831415707853466e+02 2.325274287598845351e-05
7.671835917958978825e+02 2.296690152918215804e-05
7.680840420210104185e+02 2.255024412062342097e-05
7.689844922461230681e+02 2.213979611518093277e-05
7.698849424712356040e+02 2.184974432041030619e-05
7.707853926963481399e+02 2.167485385698967679e-05
7.716858429214606758e+02 2.153205726573619990e-05
7.725862931465732117e+02 2.134523752839206950e-05
7.734867433716858613e+02 2.109808572240111176e-05
7.743871935967983973e+02 2.085987117601947795e-05
7.752876438219109332e+02 2.073628042128959550e-05
7.761880940470234691e+02 2.075242009046133603e-05
7.770885442721360050e+02 2.081814565066719260e-05
7.779889944972485409e+02 2.081923570987926627e-05
7.788894447223611905e+02 2.071227074922082442e-05
7.797898949474737265e+02 2.050270852656741469e-05
7.806903451725862624e+02 2.021564263611943770e-05
7.815907953976987983e+02 1.988982306297249180e-05
7.824912456228113342e+02 1.956233458383227559e-05
7.833916958479238701e+02 1.930447778419765628e-05
7.842921460730365197e+02 1.922212422033760566e-05
7.851925962981490557e+02 1.935503242406812693e-05
7.860930465232615916e+02 1.958194069521945142e-05
7.869934967483741275e+02 1.971997578775721487e-05
7.878939469734866634e+02 1.970493936979291939e-05
7.887943971985993130e+02 1.958073512320554951e-05
7.896948474237118489e+02 1.940142695657942837e-05
7.905952976488243849e+02 1.920564389114296947e-05
7.914957478739369208e+02 1.901706940152683064e-05
7.923961980990494567e+02 1.884179943887661349e-05
7.932966483241619926e+02 1.867656222984560160e-05
7.941970985492746422e+02 1.851019318285986663e-05
7.950975487743871781e+02 1.835668189392854145e-05
7.959979989994997140e+02 1.824860403912070898e-05
7.968984492246122500e+02 1.819383325055703375e-05
7.977988994497247859e+02 1.815360341842856356e-05
7.986993496748374355e+02 1.808545756752227016e-05
7.995997998999499714e+02 1.799699371106607828e-05
8.005002501250625073e+02 1.791746153258546640e-05
8.014007003501750432e+02 1.784147723420496459e-05
8.023011505752875792e+02 1.772406672891890778e-05
8.032016008004001151e+02 1.755351466457225079e-05
8.041020510255127647e+02 1.740452729009938542e-05
8.050025012506253006e+02 1.737759059095183488e-05
8.059029514757378365e+02 1.752452648524099689e-05
8.068034017008503724e+02 1.782386511079192456e-05
8.077038519259629084e+02 1.821425235139686108e-05
8.086043021510754443e+02 1.860584522592939998e-05
8.095047523761880939e+02 1.887596412648315933e-05
8.104052026013006298e+02 1.898873519350540091e-05
8.113056528264131657e+02 1.902636111423905031e-05
8.122061030515257016e+02 1.900507274331208788e-05
8.131065532766382375e+02 1.881594566635501944e-05
8.140070035017508872e+02 1.842280471400744286e-05
8.149074537268634231e+02 1.791782468640385745e-05
8.158079039519759590e+02 1.741302250167983136e-05
8.167083541770884949e+02 1.699794056768743226e-05
8.176088044022010308e+02 1.672248376900587277e-05
8.185092546273135667e+02 1.655756152584739353e-05
8.194097048524262163e+02 1.643580089356509125e-05
8.203101550775387523e+02 1.634178601734726695e-05
8.212106053026512882e+02 1.629986617447659315e-05
8.221110555277638241e+02 1.632501216175729567e-05
8.230115057528763600e+02 1.643053449612127251e-05
8.239119559779890096e+02 1.659284030452614665e-05
8.248124062031015455e+02 1.670814575115633582e-05
8.257128564282140815e+02 1.667080898890733884e-05
8.266133066533266174e+02 1.647488684231645652e-05
8.275137568784391533e+02 1.621373865334196478e-05
8.284142071035516892e+02 1.600614083521182171e-05
8.293146573286643388e+02 1.591244448456126807e-05
8.302151075537768747e+02 1.589518587399500090e-05
8.311155577788894107e+02 1.587623836888669355e-05
8.320160080040019466e+02 1.582410489518395216e-05
8.329164582291144825e+02 1.576275622161198850e-05
8.338169084542270184e+02 1.576300640376008516e-05
8.347173586793396680e+02 1.587287642442332348e-05
8.356178089044522039e+02 1.604512034188335955e-05
8.365182591295647399e+02 1.620384936690807555e-05
8.374187093546772758e+02 1.632864948397969341e-05
8.383191595797898117e+02 1.644656962759629367e-05
8.392196098049024613e+02 1.659918400851614529e-05
8.401200600300149972e+02 1.678205128143011782e-05
8.410205102551275331e+02 1.694481821672678981e-05
8.419209604802400690e+02 1.706745105451461844e-05
8.428214107053526050e+02 1.716137218928862599e-05
8.437218609304651409e+02 1.722285030400756573e-05
8.446223111555777905e+02 1.724964989573374592e-05
8.455227613806903264e+02 1.726732570060574999e-05
8.464232116058028623e+02 1.729872094599599992e-05
8.473236618309153982e+02 1.734171975668996721e-05
8.482241120560279342e+02 1.740443250185609770e-05
8.491245622811405838e+02 1.750432962898491865e-05
8.500250125062531197e+02 1.763889524668067453e-05
8.509254627313656556e+02 1.779624174366438669e-05
8.518259129564781915e+02 1.793232723554525124e-05
8.527263631815907274e+02 1.799184896912038405e-05
8.536268134067032634e+02 1.797741258784395319e-05
8.545272636318159130e+02 1.792645025675275076e-05
8.554277138569284489e+02 1.787027525269873298e-05
8.563281640820409848e+02 1.784550862471819205e-05
8.572286143071535207e+02 1.788392105760501746e-05
8.581290645322660566e+02 1.797312076792404473e-05
8.590295147573785925e+02 1.809512918844013291e-05
8.599299649824912422e+02 1.824116220651773222e-05
8.608304152076037781e+02 1.834662264109752493e-05
8.617308654327163140e+02 1.835414598763936695e-05
8.626313156578288499e+02 1.829270962958436664e-05
8.635317658829413858e+02 1.821310729688875054e-05
8.644322161080540354e+02 1.813322235773423609e-05
8.653326663331665713e+02 1.808725889206220185e-05
8.662331165582791073e+02 1.812625171563683141e-05
8.671335667833916432e+02 1.824956110271408379e-05
8.680340170085041791e+02 1.843374571113563424e-05
8.689344672336167150e+02 1.865616917733099050e-05
8.698349174587293646e+02 1.885428985712310523e-05
8.707353676838419005e+02 1.895304810034168213e-05
8.716358179089544365e+02 1.893624228691564805e-05
8.725362681340669724e+02 1.885919631590189958e-05
8.734367183591795083e+02 1.877223915230926291e-05
8.743371685842921579e+02 1.868167457161954402e-05
8.752376188094046938e+02 1.858173459922243524e-05
8.761380690345172297e+02 1.846665716954707794e-05
8.770385192596297657e+02 1.834648084836809807e-05
8.779389694847423016e+02 1.824443028349797324e-05
8.788394197098548375e+02 1.821669118164190242e-05
8.797398699349674871e+02 1.829959725655564630e-05
8.806403201600800230e+02 1.844734111474906875e-05
8.815407703851925589e+02 1.857371208648952209e-05
8.824412206103050949e+02 1.857960759604809959e-05
8.833416708354176308e+02 1.842251630021909064e-05
8.842421210605301667e+02 1.822326130778196643e-05
8.851425712856428163e+02 1.815936198003845263e-05
8.860430215107553522e+02 1.828844283950422449e-05
8.869434717358678881e+02 1.852694000748298029e-05
8.878439219609804240e+02 1.874774644532231288e-05
8.887443721860929600e+02 1.889666276191997749e-05
8.896448224112056096e+02 1.901702621074299209e-05
8.905452726363181455e+02 1.914101495797930491e-05
8.914457228614306814e+02 1.926085196644265109e-05
8.923461730865432173e+02 1.938567043718785409e-05
8.932466233116557532e+02 1.952923826899584440e-05
8.941470735367682892e+02 1.968723548173902736e-05
8.950475237618809388e+02 1.982805608888965724e-05
8.959479739869934747e+02 1.991680186613409403e-05
8.968484242121060106e+02 1.995545299554975365e-05
8.977488744372185465e+02 1.997093965629955780e-05
8.986493246623310824e+02 2.002196259189644741e-05
8.995497748874437320e+02 2.015243196950569030e-05
9.004502251125562680e+02 2.033247101108936507e-05
9.013506753376688039e+02 2.053604797157121872e-05
9.022511255627813398e+02 2.077393581079482136e-05
9.031515757878938757e+02 2.106282712280979408e-05
9.040520260130064116e+02 2.144891521119795665e-05
9.049524762381190612e+02 2.193032747141937462e-05
9.058529264632315972e+02 2.238336691206593146e-05
9.067533766883441331e+02 2.264512017682559090e-05
9.076538269134566690e+02 2.267642920949907248e-05
9.085542771385692049e+02 2.263131994912382256e-05
9.094547273636817408e+02 2.267045603540466142e-05
9.103551775887943904e+02 2.280148407539723651e-05
9.112556278139069263e+02 2.296962929007276565e-05
9.121560780390194623e+02 2.314946389592301268e-05
9.130565282641319982e+02 2.336108237384606156e-05
9.139569784892445341e+02 2.365489703144194560e-05
9.148574287143571837e+02 2.404377486725177003e-05
9.157578789394697196e+02 2.448522586132535669e-05
9.166583291645822555e+02 2.489436474798603885e-05
9.175587793896947915e+02 2.521267561623259491e-05
9.184592296148073274e+02 2.544290903031511732e-05
9.193596798399198633e+02 2.561286238057986132e-05
9.202601300650325129e+02 2.578014266677283568e-05
9.211605802901450488e+02 2.601823183970465789e-05
9.220610305152575847e+02 2.634258788052078304e-05
9.229614807403701207e+02 2.673913558487196605e-05
9.238619309654826566e+02 2.721700982393769109e-05
9.247623811905953062e+02 2.777562714009786985e-05
9.256628314157078421e+02 2.834482507349031166e-05
9.265632816408203780e+02 2.883132848540308888e-05
9.274637318659329139e+02 2.919954698833660952e-05
9.283641820910454499e+02 2.948794161827296163e-05
9.292646323161579858e+02 2.977586301489960712e-05
9.301650825412706354e+02 3.011908735005222067e-05
9.310655327663831713e+02 3.050211564319372474e-05
9.319659829914957072e+02 3.083310352555805454e-05
9.328664332166082431e+02 3.105306694520795833e-05
9.337668834417207790e+02 3.121668593010979754e-05
9.346673336668334287e+02 3.134927193919032388e-05
9.355677838919459646e+02 3.141850487998134483e-05
9.364682341170585005e+02 3.146980392767947899e-05
9.373686843421710364e+02 3.166580357327487941e-05
9.382691345672835723e+02 3.218209729731947753e-05
9.391695847923961082e+02 3.301424480532570916e-05
9.400700350175087578e+02 3.393975411589391831e-05
9.409704852426212938e+02 3.475859007773225647e-05
9.418709354677338297e+02 3.538662184524589925e-05
9.427713856928463656e+02 3.578508432037630761e-05
9.436718359179589015e+02 3.596069038320350795e-05
9.445722861430714374e+02 3.592522931940396664e-05
9.454727363681840870e+02 3.568266867701954564e-05
9.463731865932966230e+02 3.534445747293642377e-05
9.472736368184091589e+02 3.513175300841979827e-05
9.481740870435216948e+02 3.512186382859179865e-05
9.490745372686342307e+02 3.522679787951147495e-05
9.499749874937468803e+02 3.542417553106181125e-05
9.508754377188594162e+02 3.576022014796496510e-05
9.517758879439719522e+02 3.616446667665076839e-05
9.526763381690844881e+02 3.646476217098819611e-05
9.535767883941970240e+02 3.655344254090580377e-05
9.544772386193095599e+02 3.648470646380549032e-05
9.553776888444222095e+02 3.643261307362742721e-05
9.562781390695347454e+02 3.658423587325538331e-05
9.571785892946472813e+02 3.698181489704199999e-05
9.580790395197598173e+02 3.751665732270997991e-05
9.589794897448723532e+02 3.812200836288296904e-05
9.598799399699850028e+02 3.880653450616285545e-05
9.607803901950975387e+02 3.955271168509499462e-05
9.616808404202100746e+02 4.039329404623387914e-05
9.625812906453226105e+02 4.145020261097716763e-05
9.634817408704351465e+02 4.267111337450329940e-05
9.643821910955476824e+02 4.378239662237007389e-05
9.652826413206603320e+02 4.462641569357227942e-05
9.661830915457728679e+02 4.530275007990118634e-05
9.670835417708854038e+02 4.596852734374833770e-05
9.679839919959979397e+02 4.670037121806425309e-05
9.688844422211104757e+02 4.746808380848243199e-05
9.697848924462230116e+02 4.825701783786377709e-05
9.706853426713356612e+02 4.919306685856968711e-05
9.715857928964481971e+02 5.040103488031285185e-05
9.724862431215607330e+02 5.173316112801135201e-05
9.733866933466732689e+02 5.274719588313313409e-05
9.742871435717858049e+02 5.308678729495596685e-05
9.751875937968984545e+02 5.286537267040242085e-05
9.760880440220109904e+02 5.242720792272430362e-05
9.769884942471235263e+02 5.201184913461129897e-05
9.778889444722360622e+02 5.175524430433110708e-05
9.787893946973485981e+02 5.166982420735463807e-05
9.796898449224611340e+02 5.168766364956497137e-05
9.805902951475737837e+02 5.177055525422271460e-05
9.814907453726863196e+02 5.196083385858067200e-05
9.823911955977988555e+02 5.231111456577969537e-05
9.832916458229113914e+02 5.284522898137944381e-05
9.841920960480239273e+02 5.354243631781587182e-05
9.850925462731365769e+02 5.428987867264254796e-05
9.859929964982491128e+02 5.499296044022939327e-05
9.868934467233616488e+02 5.555889746383757912e-05
9.877938969484741847e+02 5.584754632992034536e-05
9.886943471735867206e+02 5.591538022047580026e-05
9.895947973986992565e+02 5.601721587415745349e-05
9.904952476238119061e+02 5.626801978355718177e-05
9.913956978489244420e+02 5.659389803134131161e-05
9.922961480740369780e+02 5.689804197450913089e-05
9.931965982991495139e+02 5.707444257539715703e-05
9.940970485242620498e+02 5.712261975325357884e-05
9.949974987493745857e+02 5.723041753558707757e-05
9.958979489744872353e+02 5.759883954632894095e-05
9.967983991995997712e+02 5.833854366894825608e-05
9.976988494247123072e+02 5.937200206585445237e-05
9.985992996498248431e+02 6.049940321428267997e-05
9.994997498749373790e+02 6.164119603258551099e-05
1.000400200100050029e+03 6.291789496232661296e-05
1.001300650325162565e+03 6.451230499725036434e-05
1.002201100550275100e+03 6.642735333859722455e-05
1.003101550775387636e+03 6.850284105007142734e-05
1.004002001000500172e+03 7.066246628416603191e-05
1.004902451225612708e+03 7.289522928995903473e-05
1.005802901450725358e+03 7.491390735614770167e-05
1.006703351675837894e+03 7.640437124698879401e-05
1.007603801900950430e+03 7.747233797547904417e-05
1.008504252126062966e+03 7.850407067380364798e-05
1.009404702351175501e+03 7.984012741131253340e-05
1.010305152576288151e+03 8.159152465828931934e-05
1.011205602801400687e+03 8.357418067221347388e-05
1.012106053026513223e+03 8.536677084836382767e-05
1.013006503251625759e+03 8.673093870124124057e-05
1.013906953476738295e+03 8.784687214261188552e-05
1.014807403701850831e+03 8.882616239132917703e-05
1.015707853926963480e+03 8.946335389856605849e-05
1.016608304152076016e+03 8.978966436988822253e-05
1.017508754377188552e+03 9.019526369679694178e-05
1.018409204602301088e+03 9.087883547323247321e-05
1.019309654827413624e+03 9.190379296522138968e-05
1.020210105052526160e+03 9.339470229945713564e-05
1.021110555277638809e+03 9.523351444259192037e-05
1.022011005502751345e+03 9.716466639876057568e-05
1.022911455727863881e+03 9.893911599995188161e-05
1.023811905952976417e+03 1.002050267833053576e-04
1.024712356178089067e+03 1.009208960379396225e-04
1.025612806403201603e+03 1.013587033731375939e-04
1.026513256628314139e+03 1.017623554150060255e-04
1.027413706853426675e+03 1.025462740200689277e-04
1.028314157078539210e+03 1.040494998188988134e-04
1.029214607303651746e+03 1.058698376605239920e-04
1.030115057528764282e+03 1.071917199116714114e-04
1.031015507753876818e+03 1.078881372980724417e-04
1.031915957978989354e+03 1.085814343000634781e-04
1.032816408204101890e+03 1.098289940805836706e-04
1.033716858429214653e+03 1.117085956230469998e-04
1.034617308654327189e+03 1.138538252180715384e-04
1.035517758879439725e+03 1.157870349415278556e-04
1.036418209104552261e+03 1.171525284531517138e-04
1.037318659329664797e+03 1.179356747600209172e-04
1.038219109554777333e+03 1.184486038418998237e-04
1.039119559779889869e+03 1.191300743312474081e-04
1.040020010005002405e+03 1.206270998833598387e-04
1.040920460230114941e+03 1.235906746915262273e-04
1.041820910455227477e+03 1.279700753483517539e-04
1.042721360680340013e+03 1.329339165358309368e-04
1.043621810905452776e+03 1.375463611309706686e-04
1.044522261130565312e+03 1.412785126702682424e-04
1.045422711355677848e+03 1.442242866359163167e-04
1.046323161580790384e+03 1.472745641325199403e-04
1.047223611805902920e+03 1.513413386689530838e-04
1.048124062031015455e+03 1.564453854608143467e-04
1.049024512256127991e+03 1.619222191926023816e-04
1.049924962481240527e+03 1.671802530071874750e-04
1.050825412706353063e+03 1.719077784065772656e-04
1.051725862931465599e+03 1.759795276437169304e-04
1.052626313156578135e+03 1.797446122661715111e-04
1.053526763381690898e+03 1.842063174801458964e-04
1.054427213606803434e+03 1.900064328351002503e-04
1.055327663831915970e+03 1.965249648894933413e-04
1.056228114057028506e+03 2.025408429175499093e-04
1.057128564282141042e+03 2.073540449590079323e-04
1.058029014507253578e+03 2.114760338988394572e-04
1.058929464732366114e+03 2.160773407426289485e-04
1.059829914957478650e+03 2.219382135325316649e-04
1.060730365182591186e+03 2.289798665686707208e-04
1.061630815407703722e+03 2.365180743636485273e-04
1.062531265632816257e+03 2.440494607837411672e-04
1.063431715857929021e+03 2.511278099452528170e-04
1.064332166083041557e+03 2.569502480221386729e-04
1.065232616308154093e+03 2.610969965824063831e-04
1.066133066533266629e+03 2.640782705955638612e-04
1.067033516758379164e+03 2.671435314614398118e-04
1.067933966983491700e+03 2.716489164937921927e-04
1.068834417208604236e+03 2.781539746575144236e-04
1.069734867433716772e+03 2.863400642248536791e-04
1.070635317658829308e+03 2.953373784564780787e-04
1.071535767883941844e+03 3.039601585329325330e-04
1.072436218109054380e+03 3.112136728091019055e-04
1.073336668334167143e+03 3.168690815118505510e-04
1.074237118559279679e+03 3.217327214486408746e-04
1.075137568784392215e+03 3.266312749724973783e-04
1.076038019009504751e+03 3.307348050507426577e-04
1.076938469234617287e+03 3.330826278848613526e-04
1.077838919459729823e+03 3.351491196843546841e-04
1.078739369684842359e+03 3.391863643345039195e-04
1.079639819909954895e+03 3.450973235135907464e-04
1.080540270135067431e+03 3.510579040626072168e-04
1.081440720360179967e+03 3.564132590649808706e-04
1.082341170585292502e+03 3.628220317635989160e-04
1.083241620810405038e+03 3.723815386258644213e-04
1.084142071035517802e+03 3.849865439740304015e-04
1.085042521260630338e+03 3.981293687063417125e-04
1.085942971485742873e+03 4.085682205887573794e-04
1.086843421710855409e+03 4.142862829677687749e-04
1.087743871935967945e+03 4.161278263067962296e-04
1.088644322161080481e+03 4.168619717439703168e-04
1.089544772386193017e+03 4.188645241960102950e-04
1.090445222611305553e+03 4.232805122892612502e-04
1.091345672836418089e+03 4.298649675368751790e-04
1.092246123061530625e+03 4.372749681344850975e-04
1.093146573286643161e+03 4.442506471996735028e-04
1.094047023511755924e+03 4.502886792105895413e-04
1.094947473736868460e+03 4.557018106997783383e-04
1.095847923961980996e+03 4.601159738409910105e-04
1.096748374187093532e+03 4.619944609325859044e-04
1.097648824412206068e+03 4.606847067762479290e-04
1.098549274637318604e+03 4.579348125765648017e-04
1.099449724862431140e+03 4.568869740003695507e-04
1.100350175087543676e+03 4.590088197709528417e-04
1.101250625312656211e+03 4.643596121803185536e-04
1.102151075537768747e+03 4.727615343617408731e-04
1.103051525762881283e+03 4.833025608650202412e-04
1.103951975987994047e+03 4.961261432600234727e-04
1.104852426213106583e+03 5.125167748891918448e-04
1.105752876438219118e+03 5.315236629697221975e-04
1.106653326663331654e+03 5.490823087625744262e-04
1.107553776888444190e+03 5.626119938446581250e-04
1.108454227113556726e+03 5.730134980614389178e-04
1.109354677338669262e+03 5.813693817317803917e-04
1.110255127563781798e+03 5.876235796919071150e-04
1.111155577788894334e+03 5.927062684974162762e-04
1.112056028014006870e+03 5.975829102390128921e-04
1.112956478239119406e+03 6.016118873319139431e-04
1.113856928464232169e+03 6.029501151585145522e-04
1.114757378689344705e+03 6.005883832842797386e-04
1.115657828914457241e+03 5.950269469464145294e-04
1.116558279139569777e+03 5.860122858845814289e-04
1.117458729364682313e+03 5.731510430346375279e-04
1.118359179589794849e+03 5.585970048675909004e-04
1.119259629814907385e+03 5.455695072841069537e-04
1.120160080040019920e+03 5.346289506051786575e-04
1.121060530265132456e+03 5.230661110379664558e-04
1.121960980490244992e+03 5.088569812714436799e-04
1.122861430715357528e+03 4.917281712756730932e-04
1.123761880940470292e+03 4.723157359976704766e-04
1.124662331165582827e+03 4.514966689646146753e-04
1.125562781390695363e+03 4.295919798261122824e-04
1.126463231615807899e+03 4.073143070240631118e-04
1.127363681840920435e+03 3.857349452633670821e-04
1.128264132066032971e+03 3.651747264512764774e-04
1.129164582291145507e+03 3.458649476165956329e-04
1.130065032516258043e+03 3.281252097865019384e-04
1.130965482741370579e+03 3.117276058989847717e-04
1.131865932966483115e+03 2.964572352528883209e-04
1.132766383191595651e+03 2.824861025607322920e-04
1.133666833416708187e+03 2.704055619608349459e-04
1.134567283641820950e+03 2.606666997009322319e-04
1.135467733866933486e+03 2.530021920992851564e-04
1.136368184092046022e+03 2.457199081408258687e-04
1.137268634317158558e+03 2.362345657210547338e-04
1.138169084542271094e+03 2.234729561629827520e-04
1.139069534767383630e+03 2.085825881658807078e-04
1.139969984992496165e+03 1.932491493443430641e-04
1.140870435217608701e+03 1.786817386839790621e-04
1.141770885442721237e+03 1.656283196616876844e-04
1.142671335667833773e+03 1.541597847299878174e-04
1.143571785892946309e+03 1.438922699932585283e-04
1.144472236118059072e+03 1.349137429642020835e-04
1.145372686343171608e+03 1.279134194504136181e-04
1.146273136568284144e+03 1.230953745124892577e-04
1.147173586793396680e+03 1.195985712106130053e-04
1.148074037018509216e+03 1.160855598669922959e-04
1.148974487243621752e+03 1.122112227203018233e-04
1.149874937468734288e+03 1.085499020033232908e-04
1.150775387693846824e+03 1.051678747190072058e-04
1.151675837918959360e+03 1.016434718936800588e-04
1.152576288144071896e+03 9.768345690348465785e-05
1.153476738369184432e+03 9.357269257989393881e-05
1.154377188594297195e+03 8.986595701220473397e-05
1.155277638819409731e+03 8.665310405838584867e-05
1.156178089044522267e+03 8.365747669701397728e-05
1.157078539269634803e+03 8.075671849260805809e-05
1.157978989494747339e+03 7.811616744847185896e-05
1.158879439719859874e+03 7.582783230616487011e-05
1.159779889944972410e+03 7.379257720975505061e-05
1.160680340170084946e+03 7.201785150130226004e-05
1.161580790395197482e+03 7.059521475426028432e-05
1.162481240620310018e+03 6.949974750087037172e-05
1.163381690845422554e+03 6.863332828761775769e-05
1.164282141070535317e+03 6.785411137381749459e-05
1.165182591295647853e+03 6.707208430016490933e-05
1.166083041520760389e+03 6.624174947529095638e-05
1.166983491745872925e+03 6.525026128600831929e-05
1.167883941970985461e+03 6.404200429078084616e-05
1.168784392196097997e+03 6.273812518456239071e-05
1.169684842421210533e+03 6.156969221875632054e-05
1.170585292646323069e+03 6.075193284579312588e-05
1.171485742871435605e+03 6.035606559490181398e-05
1.172386193096548141e+03 6.035671206962206671e-05
1.173286643321660677e+03 6.069365132827857993e-05
1.174187093546773440e+03 6.127263189319908038e-05
1.175087543771885976e+03 6.203933565528424075e-05
1.175987993996998512e+03 6.301643597505536803e-05
1.176888444222111048e+03 6.423178482626051464e-05
1.177788894447223583e+03 6.563623294956936300e-05
1.178689344672336119e+03 6.708971523243921378e-05
1.179589794897448655e+03 6.849330278580412960e-05
1.180490245122561191e+03 6.992799876585434620e-05
1.181390695347673727e+03 7.153671176455231350e-05
1.182291145572786263e+03 7.333484578220023000e-05
1.183191595797898799e+03 7.524706898160087411e-05
1.184092046023011562e+03 7.711268499008014994e-05
1.184992496248124098e+03 7.857587545679496079e-05
1.185892946473236634e+03 7.947135860659291910e-05
1.186793396698349170e+03 8.023807243561536704e-05
1.187693846923461706e+03 8.150990839028800694e-05
1.188594297148574242e+03 8.355382150997308960e-05
1.189494747373686778e+03 8.622960293396647027e-05
1.190395197598799314e+03 8.914478717566670348e-05
1.191295647823911850e+03 9.180908095145827951e-05
1.192196098049024386e+03 9.411042561776541569e-05
1.193096548274136921e+03 9.656158119596444211e-05
1.193996998499249457e+03 9.949456330081671057e-05
1.194897448724362221e+03 1.026035854830934917e-04
1.195797898949474757e+03 1.054406864353730274e-04
1.196698349174587293e+03 1.078703601455297136e-04
1.197598799399699828e+03 1.098032072407965372e-04
1.198499249624812364e+03 1.110187451493987678e-04
1.199399699849924900e+03 1.116394962355713989e-04
1.200300150075037436e+03 1.123885661008738282e-04
1.201200600300149972e+03 1.139647586933296866e-04
1.202101050525262508e+03 1.165585803892736600e-04
1.203001500750375044e+03 1.198882861385173413e-04
1.203901950975487580e+03 1.234677305310234936e-04
1.204802401200600343e+03 1.268441719438384606e-04
1.205702851425712879e+03 1.299958038872334914e-04
1.206603301650825415e+03 1.333830006341092948e-04
1.207503751875937951e+03 1.372204861269610233e-04
1.208404202101050487e+03 1.411014161307932112e-04
1.209304652326163023e+03 1.446559662480145325e-04
1.210205102551275559e+03 1.478098276377345444e-04
1.211105552776388095e+03 1.507404512956224917e-04
1.212006003001500630e+03 1.539743279267804024e-04
1.212906453226613166e+03 1.574652699270345790e-04
1.213806903451725702e+03 1.601622064473464844e-04
1.214707353676838466e+03 1.612408791420262891e-04
1.215607803901951002e+03 1.609931835374278587e-04
1.216508254127063537e+03 1.599296280068545609e-04
1.217408704352176073e+03 1.582912181819159133e-04
1.218309154577288609e+03 1.564218690118138828e-04
1.219209604802401145e+03 1.550118677739786073e-04
1.220110055027513681e+03 1.548852456467468726e-04
1.221010505252626217e+03 1.565569158265512023e-04
1.221910955477738753e+03 1.596568116199417633e-04
1.222811405702851289e+03 1.632314319979314419e-04
1.223711855927963825e+03 1.669652480277350535e-04
1.224612306153076588e+03 1.714074726257806011e-04
1.225512756378189124e+03 1.768850617119455560e-04
1.226413206603301660e+03 1.833024835363735805e-04
1.227313656828414196e+03 1.909794548174243388e-04
1.228214107053526732e+03 2.004508911966032699e-04
1.229114557278639268e+03 2.112065904126884355e-04
1.230015007503751804e+03 2.217577486483127472e-04
1.230915457728864340e+03 2.312637449318520957e-04
1.231815907953976875e+03 2.402846527039969758e-04
1.232716358179089411e+03 2.496410599873287342e-04
1.233616808404201947e+03 2.592953956137238991e-04
1.234517258629314711e+03 2.688077354457897475e-04
1.235417708854427246e+03 2.780663509702129520e-04
1.236318159079539782e+03 2.874552616007622569e-04
1.237218609304652318e+03 2.975842350180470585e-04
1.238119059529764854e+03 3.089468342709520646e-04
1.239019509754877390e+03 3.221498737418115768e-04
1.239919959979989926e+03 3.372622471136130034e-04
1.240820410205102462e+03 3.532825186979499988e-04
1.241720860430214998e+03 3.692721469179951013e-04
1.242621310655327534e+03 3.851885539854332774e-04
1.243521760880440070e+03 4.013174801645560041e-04
1.244422211105552606e+03 4.178307610197326397e-04
1.245322661330665369e+03 4.350980705441490548e-04
1.246223111555777905e+03 4.532429847880818327e-04
1.247123561780890441e+03 4.704094989364886702e-04
1.248024012006002977e+03 4.834532903426710829e-04
1.248924462231115513e+03 4.907343439646129173e-04
1.249824912456228049e+03 4.931770179335867154e-04
1.250725362681340584e+03 4.927127427606012560e-04
1.251625812906453120e+03 4.912486630683524048e-04
1.252526263131565656e+03 4.907702569081544373e-04
1.253426713356678192e+03 4.922406148936549989e-04
1.254327163581790728e+03 4.951927878905477108e-04
1.255227613806903491e+03 4.987922834541523662e-04
1.256128064032016027e+03 5.029311413493405165e-04
1.257028514257128563e+03 5.079105096905266355e-04
1.257928964482241099e+03 5.138280881732933472e-04
1.258829414707353635e+03 5.200396094289380048e-04
1.259729864932466171e+03 5.260100386716193331e-04
1.260630315157578707e+03 5.317982692105200802e-04
1.261530765382691243e+03 5.371466495795122059e-04
1.262431215607803779e+03 5.423967659951763618e-04
1.263331665832916315e+03 5.487519486036186072e-04
1.264232116058028851e+03 5.569523108924838385e-04
1.265132566283141614e+03 5.667146837334216146e-04
1.266033016508254150e+03 5.769824306348164070e-04
1.266933466733366686e+03 5.866745693318468858e-04
1.267833916958479222e+03 5.955836343172556287e-04
1.268734367183591758e+03 6.046834990191508278e-04
1.269634817408704293e+03 6.146262606069441805e-04
1.270535267633816829e+03 6.249842416705025981e-04
1.271435717858929365e+03 6.350936874552002816e-04
1.272336168084041901e+03 6.447111797995390414e-04
1.273236618309154437e+03 6.539162991309942176e-04
1.274137068534266973e+03 6.628035710432876376e-04
1.275037518759379736e+03 6.716519601992309955e-04
1.275937968984492272e+03 6.808826588514206362e-04
1.276838419209604808e+03 6.906939763471723085e-04
1.277738869434717344e+03 7.007688196710761810e-04
1.278639319659829880e+03 7.111621939216266871e-04
1.279539769884942416e+03 7.222891577373355453e-04
1.280440220110054952e+03 7.338414613091018626e-04
1.281340670335167488e+03 7.456968060088901753e-04
1.282241120560280024e+03 7.582493294762155268e-04
1.283141570785392560e+03 7.713290935161847732e-04
1.284042021010505096e+03 7.841825035205845151e-04
1.284942471235617859e+03 7.961661792284140723e-04
1.285842921460730395e+03 8.071455517652126191e-04
1.286743371685842931e+03 8.175122600645631484e-04
1.287643821910955467e+03 8.285729776693323946e-04
1.288544272136068003e+03 8.423896292994726949e-04
1.289444722361180538e+03 8.592490010492707768e-04
1.290345172586293074e+03 8.773279330049916364e-04
1.291245622811405610e+03 8.952922095380042499e-04
1.292146073036518146e+03 9.125166920933823218e-04
1.293046523261630682e+03 9.274514111771583287e-04
1.293946973486743218e+03 9.392623997255613059e-04
1.294847423711855754e+03 9.496147566722451441e-04
1.295747873936968517e+03 9.608481317991978982e-04
1.296648324162081053e+03 9.744360644909470532e-04
1.297548774387193589e+03 9.904940847943561819e-04
1.298449224612306125e+03 1.007929464019061095e-03
1.299349674837418661e+03 1.024811356761291554e-03
1.300250125062531197e+03 1.038590223290844191e-03
1.301150575287643733e+03 1.047495430002485508e-03
1.302051025512756269e+03 1.052288798012949739e-03
1.302951475737868805e+03 1.056468249515043903e-03
1.303851925962981340e+03 1.063493268960293914e-03
1.304752376188093876e+03 1.074781017282946038e-03
1.305652826413206640e+03 1.090286953338769679e-03
1.306553276638319176e+03 1.107682958195647200e-03
1.307453726863431712e+03 1.124165224904960861e-03
1.308354177088544247e+03 1.139072738031931880e-03
1.309254627313656783e+03 1.152977179620055933e-03
1.310155077538769319e+03 1.167322682258010872e-03
1.311055527763881855e+03 1.184163600367397953e-03
1.311955977988994391e+03 1.203980521670533922e-03
1.312856428214106927e+03 1.226161690770410624e-03
1.313756878439219463e+03 1.250067142811068415e-03
1.314657328664331999e+03 1.275377134273021802e-03
1.315557778889444762e+03 1.302854512444383576e-03
1.316458229114557298e+03 1.334906024315388748e-03
1.317358679339669834e+03 1.372549634309528548e-03
1.318259129564782370e+03 1.413149579393615379e-03
1.319159579789894906e+03 1.454685378348597510e-03
1.320060030015007442e+03 1.498224683410955688e-03
1.320960480240119978e+03 1.545802060801070976e-03
1.321860930465232514e+03 1.598706386843743756e-03
1.322761380690345050e+03 1.658016270134467316e-03
1.323661830915457585e+03 1.722465963702552068e-03
1.324562281140570121e+03 1.788966119133644046e-03
1.325462731365682885e+03 1.857965230058957829e-03
1.326363181590795421e+03 1.933189767452096535e-03
1.327263631815907956e+03 2.016986183213948479e-03
1.328164082041020492e+03 2.103948204058918216e-03
1.329064532266133028e+03 2.185154863868348733e-03
1.329964982491245564e+03 2.261053836359497565e-03
1.330865432716358100e+03 2.339553642439478644e-03
1.331765882941470636e+03 2.424870694182089826e-03
1.332666333166583172e+03 2.514687911374548137e-03
1.333566783391695708e+03 2.605886427256140156e-03
1.334467233616808244e+03 2.699885195976727426e-03
1.335367683841921007e+03 2.798218839569734367e-03
1.336268134067033543e+03 2.898854440527176991e-03
1.337168584292146079e+03 3.003097722115277441e-03
1.338069034517258615e+03 3.117672922618110101e-03
1.338969484742371151e+03 3.247239905216598582e-03
1.339869934967483687e+03 3.385144248383470996e-03
1.340770385192596223e+03 3.514957930802108978e-03
1.341670835417708759e+03 3.625931366884824376e-03
1.342571285642821294e+03 3.722696293487421596e-03
1.343471735867933830e+03 3.819405997241560706e-03
1.344372186093046366e+03 3.926907403557065683e-03
1.345272636318158902e+03 4.044216054732698191e-03
1.346173086543271666e+03 4.164432482872557073e-03
1.347073536768384201e+03 4.290113496529572579e-03
1.347973986993496737e+03 4.427392639352484630e-03
1.348874437218609273e+03 4.575970873673358870e-03
1.349774887443721809e+03 4.733007471958876507e-03
1.350675337668834345e+03 4.898627392753217118e-03
1.351575787893946881e+03 5.074883096484066047e-03
1.352476238119059417e+03 5.264473312262592936e-03
1.353376688344171953e+03 5.473707753201038397e-03
1.354277138569284489e+03 5.714110354979501198e-03
1.355177588794397025e+03 5.990670150882778516e-03
1.356078039019509788e+03 6.289186499414392215e-03
1.356978489244622324e+03 6.588369567468397095e-03
1.357878939469734860e+03 6.877249722205032965e-03
1.358779389694847396e+03 7.149650862348954847e-03
1.359679839919959932e+03 7.403623028978707256e-03
1.360580290145072468e+03 7.652813468196325089e-03
1.361480740370185003e+03 7.920443948623656291e-03
1.362381190595297539e+03 8.221966440629037420e-03
1.363281640820410075e+03 8.562581539336906397e-03
1.364182091045522611e+03 8.926213863527940676e-03
1.365082541270635147e+03 9.289479755376759199e-03
1.365982991495747910e+03 9.653381572849213318e-03
1.366883441720860446e+03 1.003545075832983774e-02
1.367783891945972982e+03 1.044759374386477514e-02
1.368684342171085518e+03 1.090080149765578973e-02
1.369584792396198054e+03 1.140907585551744104e-02
1.370485242621310590e+03 1.198239668177453372e-02
1.371385692846423126e+03 1.262648977485879460e-02
1.372286143071535662e+03 1.334556490111713997e-02
1.373186593296648198e+03 1.412964768705314567e-02
1.374087043521760734e+03 1.493625965104565523e-02
1.374987493746873270e+03 1.572160165745190366e-02
1.375887943971986033e+03 1.649729427282855751e-02
1.376788394197098569e+03 1.732025670141415855e-02
1.377688844422211105e+03 1.823953138455889841e-02
1.378589294647323641e+03 1.924002744715844204e-02
1.379489744872436177e+03 2.026870357609281831e-02
1.380390195097548713e+03 2.134070298858048442e-02
1.381290645322661248e+03 2.253156999456349882e-02
1.382191095547773784e+03 2.388173993881714460e-02
1.383091545772886320e+03 2.537219410498442809e-02
1.383991995997998856e+03 2.695107564875136655e-02
1.384892446223111392e+03 2.849911114178464017e-02
1.385792896448224155e+03 2.993580400937617333e-02
1.386693346673336691e+03 3.133975989595368800e-02
1.387593796898449227e+03 3.283567259305662789e-02
1.388494247123561763e+03 3.452038331824199696e-02
1.389394697348674299e+03 3.649527532222851534e-02
1.390295147573786835e+03 3.879176339834861098e-02
1.391195597798899371e+03 4.133943266628099106e-02
1.392096048024011907e+03 4.405344352932238222e-02
1.392996498249124443e+03 4.691702964694232508e-02
1.393896948474236979e+03 4.988568926394098407e-02
1.394797398699349515e+03 5.266948013650980809e-02
1.395697848924462278e+03 5.467497525814477705e-02
1.396598299149574814e+03 5.527705048123356807e-02
1.397498749374687350e+03 5.434819651494312426e-02
1.398399199599799886e+03 5.244782305715278009e-02
1.399299649824912422e+03 5.028979202557257860e-02
1.400200100050024957e+03 4.822200928415881771e-02
1.401100550275137493e+03 4.623439418097623210e-02
1.402001000500250029e+03 4.408945985827768255e-02
1.402901450725362565e+03 4.147965101944354332e-02
1.403801900950475101e+03 3.823581763803123035e-02
1.404702351175587637e+03 3.449173010506069448e-02
1.405602801400700173e+03 3.063342360864580033e-02
1.406503251625812936e+03 2.705703388922816449e-02
1.407403701850925472e+03 2.396489196569525498e-02
1.408304152076038008e+03 2.136514097515389288e-02
1.409204602301150544e+03 1.918651484193645979e-02
1.410105052526263080e+03 1.733959236947277965e-02
1.411005502751375616e+03 1.573265675018665349e-02
1.411905952976488152e+03 1.428085547969241108e-02
1.412806403201600688e+03 1.293782469206059341e-02
1.413706853426713224e+03 1.172991591754053708e-02
1.414607303651825760e+03 1.070194130279026462e-02
1.415507753876938295e+03 9.844770254081999447e-03
1.416408204102051059e+03 9.099046772717070408e-03
1.417308654327163595e+03 8.406759097576715564e-03
1.418209104552276131e+03 7.750739821081133185e-03
1.419109554777388666e+03 7.142298948278679588e-03
1.420010005002501202e+03 6.592727006840768886e-03
1.420910455227613738e+03 6.110546378013437079e-03
1.421810905452726274e+03 5.693871766087898502e-03
1.422711355677838810e+03 5.318368301557705423e-03
1.423611805902951346e+03 4.966219854246839080e-03
1.424512256128063882e+03 4.645161883721559554e-03
1.425412706353176418e+03 4.362078737656865414e-03
1.426313156578289181e+03 4.113964195865080567e-03
1.427213606803401717e+03 3.899184063227582007e-03
1.428114057028514253e+03 3.715271590246923411e-03
1.429014507253626789e+03 3.553560321077300042e-03
1.429914957478739325e+03 3.404951859845104217e-03
1.430815407703851861e+03 3.261157204480966652e-03
1.431715857928964397e+03 3.114453659795170856e-03
1.432616308154076933e+03 2.966379135117270562e-03
1.433516758379189469e+03 2.825972647580084120e-03
1.434417208604302004e+03 2.700381393030531693e-03
1.435317658829414540e+03 2.591177291736258478e-03
1.436218109054527304e+03 2.494856295769909589e-03
1.437118559279639840e+03 2.408510177065632113e-03
1.438019009504752376e+03 2.331675699751206265e-03
1.438919459729864911e+03 2.260319149707680497e-03
1.439819909954977447e+03 2.190713626308131174e-03
1.440720360180089983e+03 2.124568588687830543e-03
1.441620810405202519e+03 2.063921815882590900e-03
1.442521260630315055e+03 2.008810029087774920e-03
1.443421710855427591e+03 1.958697440847602909e-03
1.444322161080540127e+03 1.912464865090021324e-03
1.445222611305652663e+03 1.867365472260110746e-03
1.446123061530765426e+03 1.818364773973797860e-03
1.447023511755877962e+03 1.763978269765105900e-03
1.447923961980990498e+03 1.708888525329735862e-03
1.448824412206103034e+03 1.658627296299449577e-03
1.449724862431215570e+03 1.612628693942101113e-03
1.450625312656328106e+03 1.567911204914965596e-03
1.451525762881440642e+03 1.525975735544845896e-03
1.452426213106553178e+03 1.489571577820453024e-03
1.453326663331665713e+03 1.458824628313696919e-03
1.454227113556778249e+03 1.433318304192126615e-03
1.455127563781890785e+03 1.411087487666239527e-03
1.456028014007003321e+03 1.386744981612047373e-03
1.456928464232116085e+03 1.353954478602642638e-03
1.457828914457228620e+03 1.311327627921733642e-03
1.458729364682341156e+03 1.264171310672052018e-03
1.459629814907453692e+03 1.218941611970128297e-03
1.460530265132566228e+03 1.179236257927871508e-03
1.461430715357678764e+03 1.145804670150681742e-03
1.462331165582791300e+03 1.117907641990842447e-03
1.463231615807903836e+03 1.093201271939732259e-03
1.464132066033016372e+03 1.068484795182956344e-03
1.465032516258128908e+03 1.041896603541920055e-03
1.465932966483241444e+03 1.013879210725941119e-03
1.466833416708354207e+03 9.864614244513454904e-04
1.467733866933466743e+03 9.630531250202219954e-04
1.468634317158579279e+03 9.470893826034658619e-04
1.469534767383691815e+03 9.398669403076243293e-04
1.470435217608804351e+03 9.387935933561297958e-04
1.471335667833916887e+03 9.386605290904479013e-04
1.472236118059029423e+03 9.334996765384271289e-04
1.473136568284141958e+03 9.187757429983449626e-04
1.474037018509254494e+03 8.956060322665425908e-04
1.474937468734367030e+03 8.681823351544687428e-04
1.475837918959479566e+03 8.399658569415182057e-04
1.476738369184592329e+03 8.147609389466503420e-04
1.477638819409704865e+03 7.953851561087784804e-04
1.478539269634817401e+03 7.817121570934179716e-04
1.479439719859929937e+03 7.713292859635098846e-04
1.480340170085042473e+03 7.619478156550454732e-04
1.481240620310155009e+03 7.528671449138587450e-04
1.482141070535267545e+03 7.438918648500139749e-04
1.483041520760380081e+03 7.338217531893452637e-04
1.483941970985492617e+03 7.222231716524364327e-04
1.484842421210605153e+03 7.104401836222103269e-04
1.485742871435717689e+03 6.994887059711967121e-04
1.486643321660830452e+03 6.895554747840082314e-04
1.487543771885942988e+03 6.806651341435399202e-04
1.488444222111055524e+03 6.723948687189714194e-04
1.489344672336168060e+03 6.638203252214844785e-04
1.490245122561280596e+03 6.544838461785455015e-04
1.491145572786393132e+03 6.452998935335366604e-04
1.492046023011505667e+03 6.371198433019197331e-04
1.492946473236618203e+03 6.287887124131907477e-04
1.493846923461730739e+03 6.186262228128981732e-04
1.494747373686843275e+03 6.066820117833449056e-04
1.495647823911955811e+03 5.944780136777260077e-04
1.496548274137068574e+03 5.832471528852660328e-04
1.497448724362181110e+03 5.729845834738364271e-04
1.498349174587293646e+03 5.634571580291863717e-04
1.499249624812406182e+03 5.535904395017738049e-04
1.500150075037518718e+03 5.419786099355080591e-04
1.501050525262631254e+03 5.283773049946592073e-04
1.501950975487743790e+03 5.138215168348436116e-04
1.502851425712856326e+03 5.005375582477712606e-04
1.503751875937968862e+03 4.907033696084252402e-04
1.504652326163081398e+03 4.844563595517027265e-04
1.505552776388193934e+03 4.798241035931683916e-04
1.506453226613306470e+03 4.754839349913467304e-04
1.507353676838419233e+03 4.718966089938128128e-04
1.508254127063531769e+03 4.696842758402337901e-04
1.509154577288644305e+03 4.689230422920341286e-04
1.510055027513756841e+03 4.692980706483143929e-04
1.510955477738869376e+03 4.706233763181319127e-04
1.511855927963981912e+03 4.725867226972170574e-04
1.512756378189094448e+03 4.741432893443857485e-04
1.513656828414206984e+03 4.745068625362905738e-04
1.514557278639319520e+03 4.740206248700212506e-04
1.515457728864432056e+03 4.721026766067440623e-04
1.516358179089544592e+03 4.672628673006629552e-04
1.517258629314657355e+03 4.605980207911784005e-04
1.518159079539769891e+03 4.550017086959567535e-04
1.519059529764882427e+03 4.516173863874985172e-04
1.519959979989994963e+03 4.492521300121261473e-04
1.520860430215107499e+03 4.465512391198910979e-04
1.521760880440220035e+03 4.433318304704657667e-04
1.522661330665332571e+03 4.395858041734871735e-04
1.523561780890445107e+03 4.355687427973212113e-04
1.524462231115557643e+03 4.322043707376283656e-04
1.525362681340670179e+03 4.299043496681791729e-04
1.526263131565782714e+03 4.277031483256529018e-04
1.527163581790895478e+03 4.240185775489031437e-04
1.528064032016008014e+03 4.181866048676005838e-04
1.528964482241120550e+03 4.114284687215242998e-04
1.529864932466233086e+03 4.051758714173603858e-04
1.530765382691345621e+03 3.986654456547086443e-04
1.531665832916458157e+03 3.902509512307689296e-04
1.532566283141570693e+03 3.800343548084347085e-04
1.533466733366683229e+03 3.699790504641948239e-04
1.534367183591795765e+03 3.617383680898762994e-04
1.535267633816908301e+03 3.558214888137491150e-04
1.536168084042020837e+03 3.523090583670957475e-04
1.537068534267133600e+03 3.506937389913738026e-04
1.537968984492246136e+03 3.499942733123868931e-04
1.538869434717358672e+03 3.496537601924666551e-04
1.539769884942471208e+03 3.499790469010856538e-04
1.540670335167583744e+03 3.513456248368544894e-04
1.541570785392696280e+03 3.536085960291457907e-04
1.542471235617808816e+03 3.563169756433988292e-04
1.543371685842921352e+03 3.591719378237323351e-04
1.544272136068033888e+03 3.622667956507362994e-04
1.545172586293146423e+03 3.653059653633394105e-04
1.546073036518258959e+03 3.677841957836779671e-04
1.546973486743371723e+03 3.697040783138798455e-04
1.547873936968484259e+03 3.714821810443442486e-04
1.548774387193596795e+03 3.734677317705865029e-04
1.549674837418709330e+03 3.752757310505248586e-04
1.550575287643821866e+03 3.768131260902165950e-04
1.551475737868934402e+03 3.790391565692040679e-04
1.552376188094046938e+03 3.824806847521454857e-04
1.553276638319159474e+03 3.865927474165263490e-04
1.554177088544272010e+03 3.906223599962541353e-04
1.555077538769384546e+03 3.940423043356521037e-04
1.555977988994497082e+03 3.968090219486879048e-04
1.556878439219609618e+03 3.996739102548092109e-04
1.557778889444722381e+03 4.036580279890093206e-04
1.558679339669834917e+03 4.103612190221192719e-04
1.559579789894947453e+03 4.218279243613803518e-04
1.560480240120059989e+03 4.383914011217136418e-04
1.561380690345172525e+03 4.569944735348706669e-04
1.562281140570285061e+03 4.733206025719200426e-04
1.563181590795397597e+03 4.862525046758006675e-04
1.564082041020510133e+03 4.973403467359458147e-04
1.564982491245622668e+03 5.059849113788340673e-04
1.565882941470735204e+03 5.090072021533831315e-04
1.566783391695847740e+03 5.038008734576977657e-04
1.567683841920960504e+03 4.881911814424146566e-04
1.568584292146073039e+03 4.600825996547588492e-04
1.569484742371185575e+03 4.208670259673951797e-04
1.570385192596298111e+03 3.763584859138543234e-04
1.571285642821410647e+03 3.330083206623059874e-04
1.572186093046523183e+03 2.934585215747723260e-04
1.573086543271635719e+03 2.569721213695743355e-04
1.573986993496748255e+03 2.228773098703124207e-04
1.574887443721860791e+03 1.922262292951184952e-04
1.575787893946973327e+03 1.665160790872529848e-04
1.576688344172085863e+03 1.460682330760445060e-04
1.577588794397198626e+03 1.301921250832660407e-04
1.578489244622311162e+03 1.179032869465841823e-04
1.579389694847423698e+03 1.082879014379446497e-04
1.580290145072536234e+03 1.006255342461774414e-04
1.581190595297648770e+03 9.439453355050288316e-05
1.582091045522761306e+03 8.922884004029488670e-05
1.582991495747873842e+03 8.487156755567454400e-05
1.583891945972986377e+03 8.113989501805083976e-05
1.584792396198098913e+03 7.790124194548525127e-05
1.585692846423211449e+03 7.505756996943415446e-05
1.586593296648323985e+03 7.253502641708628777e-05
1.587493746873436749e+03 7.027702072714248722e-05
1.588394197098549284e+03 6.823951337944489371e-05
1.589294647323661820e+03 6.638774984243163597e-05
1.590195097548774356e+03 6.469395456298933388e-05
1.591095547773886892e+03 6.313567445591970024e-05
1.591995997998999428e+03 6.169456971679114097e-05
1.592896448224111964e+03 6.035551800357448341e-05
1.593796898449224500e+03 5.910594167867885200e-05
1.594697348674337036e+03 5.793529620453382147e-05
1.595597798899449572e+03 5.683467658143361088e-05
1.596498249124562108e+03 5.579651135894771137e-05
1.597398699349674871e+03 5.481432238849648749e-05
1.598299149574787407e+03 5.388253447095470719e-05
1.599199599799899943e+03 5.299632325965457103e-05
1.600100050025012479e+03 5.215149277320342287e-05
1.601000500250125015e+03 5.134437602932501610e-05
1.601900950475237551e+03 5.057175388212950057e-05
1.602801400700350086e+03 4.983078830196308289e-05
1.603701850925462622e+03 4.911896719701423742e-05
1.604602301150575158e+03 4.843405852127938613e-05
1.605502751375687694e+03 4.777407190204869386e-05
1.606403201600800230e+03 4.713722639298823159e-05
1.607303651825912766e+03 4.652192324571908990e-05
1.608204102051025529e+03 4.592672281503051320e-05
1.609104552276138065e+03 4.535032488626823585e-05
1.610005002501250601e+03 4.479155184958718444e-05
1.610905452726363137e+03 4.424933425337931794e-05
1.611805902951475673e+03 4.372269835469964964e-05
1.612706353176588209e+03 4.321075535289699217e-05
1.613606803401700745e+03 4.271269204758361399e-05
1.614507253626813281e+03 4.222776270647558020e-05
1.615407703851925817e+03 4.175528196463204503e-05
1.616308154077038353e+03 4.129461860601708645e-05
1.617208604302150889e+03 4.084519010234612959e-05
1.618109054527263652e+03 4.040645780397692340e-05
1.619009504752376188e+03 3.997792269393638621e-05
1.619909954977488724e+03 3.955912162973711010e-05
1.620810405202601260e+03 3.914962400889613058e-05
1.621710855427713796e+03 3.874902880350238700e-05
1.622611305652826331e+03 3.835696191705287045e-05
1.623511755877938867e+03 3.797307382343503303e-05
1.624412206103051403e+03 3.759703745350930778e-05
1.625312656328163939e+03 3.722854629949946288e-05
1.626213106553276475e+03 3.686731271140929590e-05
1.627113556778389011e+03 3.651306636311186545e-05
1.628014007003501774e+03 3.616555286867066156e-05
1.628914457228614310e+03 3.582453253195814097e-05
1.629814907453726846e+03 3.548977921477631294e-05
1.630715357678839382e+03 3.516107931053518766e-05
1.631615807903951918e+03 3.483823081212145773e-05
1.632516258129064454e+03 3.452104246398239379e-05
1.633416708354176990e+03 3.420933298962735127e-05
1.634317158579289526e+03 3.390293038678348617e-05
1.635217608804402062e+03 3.360167128334872410e-05
1.636118059029514598e+03 3.330540034806067938e-05
1.637018509254627133e+03 3.301396975049469937e-05
1.637918959479739897e+03 3.272723866558860129e-05
1.638819409704852433e+03 3.244507281843229924e-05
1.639719859929964969e+03 3.216734406551498287e-05
1.640620310155077505e+03 3.189393000902767555e-05
1.641520760380190040e+03 3.162471364118111644e-05
1.642421210605302576e+03 3.135958301581182549e-05
1.643321660830415112e+03 3.109843094483285094e-05
1.644222111055527648e+03 3.084115471733012555e-05
1.645122561280640184e+03 3.058765583932602025e-05
1.646023011505752720e+03 3.033783979243050938e-05
1.646923461730865256e+03 3.009161580977102538e-05
1.647823911955978019e+03 2.984889666774607136e-05
1.648724362181090555e+03 2.960959849229330575e-05
1.649624812406203091e+03 2.937364057847758925e-05
1.650525262631315627e+03 2.914094522232227644e-05
1.651425712856428163e+03 2.891143756390118362e-05
1.652326163081540699e+03 2.868504544080525335e-05
1.653226613306653235e+03 2.846169925116717264e-05
1.654127063531765771e+03 2.824133182551128842e-05
1.655027513756878307e+03 2.802387830675093978e-05
1.655927963981990843e+03 2.780927603772169332e-05
1.656828414207103378e+03 2.759746445568619829e-05
1.657728864432216142e+03 2.738838499329770867e-05
1.658629314657328678e+03 2.718198098555355796e-05
1.659529764882441214e+03 2.697819758230001337e-05
1.660430215107553749e+03 2.677698166590353969e-05
1.661330665332666285e+03 2.657828177371329489e-05
1.662231115557778821e+03 2.638204802499057594e-05
1.663131565782891357e+03 2.618823205198947483e-05
1.664032016008003893e+03 2.599678693491099251e-05
1.664932466233116429e+03 2.580766714046758682e-05
1.665832916458228965e+03 2.562082846381699038e-05
1.666733366683341501e+03 2.543622797364293551e-05
1.667633816908454037e+03 2.525382396017866469e-05
1.668534267133566800e+03 2.507357588598102470e-05
1.669434717358679336e+03 2.489544433928141454e-05
1.670335167583791872e+03 2.471939098974881551e-05
1.671235617808904408e+03 2.454537854651548686e-05
1.672136068034016944e+03 2.437337071832344562e-05
1.673036518259129480e+03 2.420333217566394035e-05
1.673936968484242016e+03 2.403522851478625554e-05
1.674837418709354552e+03 2.386902622346648436e-05
1.675737868934467087e+03 2.370469264842925918e-05
1.676638319159579623e+03 2.354219596432588477e-05
1.677538769384692159e+03 2.338150514418018986e-05
1.678439219609804923e+03 2.322258993121265378e-05
1.679339669834917459e+03 2.306542081197049865e-05
1.680240120060029994e+03 2.290996899068328580e-05
1.681140570285142530e+03 2.275620636478128172e-05
1.682041020510255066e+03 2.260410550150813980e-05
1.682941470735367602e+03 2.245363961556960834e-05
1.683841920960480138e+03 2.230478254776095131e-05
1.684742371185592674e+03 2.215750874452153470e-05
1.685642821410705210e+03 2.201179323836705085e-05
1.686543271635817746e+03 2.186761162915083900e-05
1.687443721860930282e+03 2.172494006611474544e-05
1.688344172086043045e+03 2.158375523068489172e-05
1.689244622311155581e+03 2.144403431997633474e-05
1.690145072536268117e+03 2.130575503097049131e-05
1.691045522761380653e+03 2.116889554533020576e-05
1.691945972986493189e+03 2.103343451482115749e-05
1.692846423211605725e+03 2.089935104731156174e-05
1.693746873436718261e+03 2.076662469331667517e-05
1.694647323661830796e+03 2.063523543307013212e-05
1.695547773886943332e+03 2.050516366408719029e-05
1.696448224112055868e+03 2.037639018920250455e-05
1.697348674337168404e+03 2.024889620505985040e-05
1.698249124562281168e+03 2.012266329103005314e-05
1.699149574787393703e+03 1.999767339853842353e-05
1.700050025012506239e+03 1.987390884078339397e-05
1.700950475237618775e+03 1.975135228282838448e-05
1.701850925462731311e+03 1.962998673204922260e-05
1.702751375687843847e+03 1.950979552892238906e-05
1.703651825912956383e+03 1.939076233813707056e-05
1.704552276138068919e+03 1.927287114002024883e-05
1.705452726363181455e+03 1.915610622225702472e-05
1.706353176588293991e+03 1.904045217189549794e-05
1.707253626813406527e+03 1.892589386762586186e-05
1.708154077038519290e+03 1.881241647231746383e-05
1.709054527263631826e+03 1.870000542580688548e-05
1.709954977488744362e+03 1.858864643792610601e-05
1.710855427713856898e+03 1.847832548175721968e-05
1.711755877938969434e+03 1.836902878711064806e-05
1.712656328164081970e+03 1.826074283421136318e-05
1.713556778389194506e+03 1.815345434758897463e-05
1.714457228614307041e+03 1.804715029016177024e-05
1.715357678839419577e+03 1.794181785750716159e-05
1.716258129064532113e+03 1.783744447231141935e-05
1.717158579289644649e+03 1.773401777899246751e-05
1.718059029514757185e+03 1.763152563848639567e-05
1.718959479739869948e+03 1.752995612319494130e-05
1.719859929964982484e+03 1.742929751208546182e-05
1.720760380190095020e+03 1.732953828593701296e-05
1.721660830415207556e+03 1.723066712272991116e-05
1.722561280640320092e+03 1.713267289317172589e-05
1.723461730865432628e+03 1.703554465635276295e-05
1.724362181090545164e+03 1.693927165552979873e-05
1.725262631315657700e+03 1.684384331403190242e-05
1.726163081540770236e+03 1.674924923128318942e-05
1.727063531765882772e+03 1.665547917893785403e-05
1.727963981990995308e+03 1.656252309712796599e-05
1.728864432216108071e+03 1.647037109081213164e-05
1.729764882441220607e+03 1.637901342622974626e-05
1.730665332666333143e+03 1.628844052745124233e-05
1.731565782891445679e+03 1.619864297302461831e-05
1.732466233116558215e+03 1.610961149271163099e-05
1.733366683341670750e+03 1.602133696431443056e-05
1.734267133566783286e+03 1.593381041058670254e-05
1.735167583791895822e+03 1.584702299622718530e-05
1.736068034017008358e+03 1.576096602495296453e-05
1.736968484242120894e+03 1.567563093665150798e-05
1.737868934467233430e+03 1.559100930460469107e-05
1.738769384692346193e+03 1.550709283278734802e-05
1.739669834917458729e+03 1.542387335323461547e-05
1.740570285142571265e+03 1.534134282347688293e-05
1.741470735367683801e+03 1.525949332404096093e-05
1.742371185592796337e+03 1.517831705601305198e-05
1.743271635817908873e+03 1.509780633866553032e-05
1.744172086043021409e+03 1.501795360714061169e-05
1.745072536268133945e+03 1.493875141019337312e-05
1.745972986493246481e+03 1.486019240798982632e-05
1.746873436718359017e+03 1.478226936995970111e-05
1.747773886943471553e+03 1.470497517270062665e-05
1.748674337168584316e+03 1.462830279793437821e-05
1.749574787393696852e+03 1.455224533051222294e-05
1.750475237618809388e+03 1.447679595646693727e-05
1.751375687843921924e+03 1.440194796111319488e-05
1.752276138069034459e+03 1.432769472719135331e-05
1.753176588294146995e+03 1.425402973305578601e-05
1.754077038519259531e+03 1.418094655090602341e-05
1.754977488744372067e+03 1.410843884505793333e-05
1.755877938969484603e+03 1.403650037025646173e-05
1.756778389194597139e+03 1.396512497002568720e-05
1.757678839419709675e+03 1.389430657505834186e-05
1.758579289644822438e+03 1.382403920164050802e-05
1.759479739869934974e+03 1.375431695011333517e-05
1.760380190095047510e+03 1.368513400336825716e-05
1.761280640320160046e+03 1.361648462537685980e-05
1.762181090545272582e+03 1.354836315975307120e-05
1.763081540770385118e+03 1.348076402834767157e-05
1.763981990995497654e+03 1.341368172987300647e-05
1.764882441220610190e+03 1.334711083855926050e-05
1.765782891445722726e+03 1.328104600283830871e-05
1.766683341670835262e+03 1.321548194405783761e-05
1.767583791895947797e+03 1.315041345522227808e-05
1.768484242121060333e+03 1.308583539976121952e-05
1.769384692346173097e+03 1.302174271032409546e-05
1.770285142571285633e+03 1.295813038760002785e-05
1.771185592796398169e+03 1.289499349916421557e-05
1.772086043021510704e+03 1.283232717834670505e-05
1.772986493246623240e+03 1.277012662312610419e-05
1.773886943471735776e+03 1.270838709504635773e-05
1.774787393696848312e+03 1.264710391815569273e-05
1.775687843921960848e+03 1.258627247796729394e-05
1.776588294147073384e+03 1.252588822044253050e-05
1.777488744372185920e+03 1.246594665099318845e-05
1.778389194597298456e+03 1.240644333350611731e-05
1.779289644822411219e+03 1.234737388938600835e-05
1.780190095047523755e+03 1.228873399661840334e-05
1.781090545272636291e+03 1.223051938885161589e-05
1.781990995497748827e+03 1.217272585449635063e-05
1.782891445722861363e+03 1.211534923584380136e-05
1.783791895947973899e+03 1.205838542820165536e-05
1.784692346173086435e+03 1.200183037904596953e-05
1.785592796398198971e+03 1.194568008719116275e-05
1.786493246623311506e+03 1.188993060197532436e-05
1.787393696848424042e+03 1.183457802246138928e-05
1.788294147073536578e+03 1.177961849665486745e-05
1.789194597298649342e+03 1.172504822073528344e-05
1.790095047523761878e+03 1.167086343830362327e-05
1.790995497748874413e+03 1.161706043964364030e-05
1.791895947973986949e+03 1.156363556099688827e-05
1.792796398199099485e+03 1.151058518385288732e-05
1.793696848424212021e+03 1.145790573425147716e-05
1.794597298649324557e+03 1.140559368209852292e-05
1.795497748874437093e+03 1.135364554049517678e-05
1.796398199099549629e+03 1.130205786507891521e-05
1.797298649324662165e+03 1.125082725337750352e-05
1.798199099549774701e+03 1.119995034417457497e-05
1.799099549774887464e+03 1.114942381688672441e-05
1.800000000000000000e+03 1.109924439095306014e-05
