0.000000000000000000e+00 1.322962766882330001e-03
9.004502251125562351e-01 1.761330915531791842e-03
1.800900450225112470e+00 2.371908951240304670e-03
2.701350675337668594e+00 3.150415813451046265e-03
3.601800900450224940e+00 3.923242638870873267e-03
4.502251125562780842e+00 4.282505977714035419e-03
5.402701350675337189e+00 3.949807500053047205e-03
6.303151575787893535e+00 3.182113960430836292e-03
7.203601800900449881e+00 2.398686094867922246e-03
8.104052026013006227e+00 1.783352209687798793e-03
9.004502251125561685e+00 1.341961377984045778e-03
9.904952476238118919e+00 1.030772955185330032e-03
1.080540270135067438e+01 8.085953697059022373e-04
1.170585292646323161e+01 6.469279215225094996e-04
1.260630315157578707e+01 5.271365512295881142e-04
1.350675337668834430e+01 4.367285831288652328e-04
1.440720360180089976e+01 3.672162382452176781e-04
1.530765382691345522e+01 3.127982269852865602e-04
1.620810405202601245e+01 2.694876680442702421e-04
1.710855427713856969e+01 2.345361961176953042e-04
1.800900450225112337e+01 2.060106213466912899e-04
1.890945472736368060e+01 1.825101010386146621e-04
1.980990495247623784e+01 1.629799265864572734e-04
2.071035517758879507e+01 1.465455824798097878e-04
2.161080540270134875e+01 1.324066981886519456e-04
2.251125562781390599e+01 1.199668611735724177e-04
2.341170585292646322e+01 1.089905840118163087e-04
2.431215607803901690e+01 9.939125894918472432e-05
2.521260630315157414e+01 9.102865192703334975e-05
2.611305652826413137e+01 8.372515487516110568e-05
2.701350675337668861e+01 7.731638437797621493e-05
2.791395697848924229e+01 7.166791004286799803e-05
2.881440720360179952e+01 6.667418743063526767e-05
2.971485742871435676e+01 6.225260519316676614e-05
3.061530765382691044e+01 5.833271600758766200e-05
3.151575787893946767e+01 5.483449710666796022e-05
3.241620810405202491e+01 5.164984113360115173e-05
3.331665832916458214e+01 4.869074085136022238e-05
3.421710855427713938e+01 4.596267356682754232e-05
3.511755877938969661e+01 4.350311593770472205e-05
3.601800900450224674e+01 4.128012499443062261e-05
3.691845922961480397e+01 3.918489690711611187e-05
3.781890945472736121e+01 3.714320486391722566e-05
3.871935967983991844e+01 3.520136553685002649e-05
3.961980990495247568e+01 3.343130360564477402e-05
4.052026013006503291e+01 3.185101505225089924e-05
4.142071035517759015e+01 3.042826634471566195e-05
4.232116058029014027e+01 2.909349824142340389e-05
4.322161080540269751e+01 2.778818658564190795e-05
4.412206103051525474e+01 2.652454346080068288e-05
4.502251125562781198e+01 2.534521840314739980e-05
4.592296148074036921e+01 2.426773857413811733e-05
4.682341170585292645e+01 2.328824157915469217e-05
4.772386193096548368e+01 2.239790584065170747e-05
4.862431215607803381e+01 2.159016229759958276e-05
4.952476238119059104e+01 2.086263888098258994e-05
5.042521260630314828e+01 2.021798031269698525e-05
5.132566283141570551e+01 1.966490970584352911e-05
5.222611305652826275e+01 1.921900078451739611e-05
5.312656328164081998e+01 1.889915395563693848e-05
5.402701350675337721e+01 1.870697197449394978e-05
5.492746373186592734e+01 1.857029447680234833e-05
5.582791395697848458e+01 1.829631468226560598e-05
5.672836418209104181e+01 1.771540991144250260e-05
5.762881440720359905e+01 1.691452462808868391e-05
5.852926463231615628e+01 1.611248293588109885e-05
5.942971485742871351e+01 1.543107320165337245e-05
6.033016508254127075e+01 1.489244274071180621e-05
6.123061530765382088e+01 1.448398085520435628e-05
6.213106553276637811e+01 1.417978117191868659e-05
6.303151575787893535e+01 1.392804983821298648e-05
6.393196598299149258e+01 1.365177477590692069e-05
6.483241620810404982e+01 1.330048590400624144e-05
6.573286643321659994e+01 1.289479837219957727e-05
6.663331665832916428e+01 1.250137789565830070e-05
6.753376688344171441e+01 1.217901673479322658e-05
6.843421710855427875e+01 1.195045952286065800e-05
6.933466733366682888e+01 1.180121417126709366e-05
7.023511755877939322e+01 1.168104670015236010e-05
7.113556778389194335e+01 1.154349309742864816e-05
7.203601800900449348e+01 1.139832267272028280e-05
7.293646823411705782e+01 1.126912762968547452e-05
7.383691845922960795e+01 1.114511619175858259e-05
7.473736868434217229e+01 1.100522504439773269e-05
7.563781890945472242e+01 1.084062470339198520e-05
7.653826913456728676e+01 1.062120370187151456e-05
7.743871935967983688e+01 1.032073998246908146e-05
7.833916958479238701e+01 9.971751302690560264e-06
7.923961980990495135e+01 9.645566974757165585e-06
8.014007003501750148e+01 9.402774224619808404e-06
8.104052026013006582e+01 9.270904712336269307e-06
8.194097048524261595e+01 9.257730404081199191e-06
8.284142071035518029e+01 9.352296551547903365e-06
8.374187093546773042e+01 9.493976001992506352e-06
8.464232116058028055e+01 9.558870078517611837e-06
8.554277138569284489e+01 9.449521661180451500e-06
8.644322161080539502e+01 9.182915076287547193e-06
8.734367183591795936e+01 8.850043394469143219e-06
8.824412206103050949e+01 8.551512048747863037e-06
8.914457228614307382e+01 8.354594741350501283e-06
9.004502251125562395e+01 8.279961167495520819e-06
9.094547273636817408e+01 8.299516225060041716e-06
9.184592296148073842e+01 8.329982815891624041e-06
9.274637318659328855e+01 8.290680375599516949e-06
9.364682341170585289e+01 8.211694307709173544e-06
9.454727363681840302e+01 8.189011782350429002e-06
9.544772386193096736e+01 8.249282124532176299e-06
9.634817408704351749e+01 8.306628269652424761e-06
9.724862431215606762e+01 8.223791848356893107e-06
9.814907453726863196e+01 7.965762765546370515e-06
9.904952476238118209e+01 7.638104549029259974e-06
9.994997498749374643e+01 7.363525245045244143e-06
1.008504252126062966e+02 7.192441520584053573e-06
1.017508754377188609e+02 7.097877972475694950e-06
1.026513256628314110e+02 7.025849375912025567e-06
1.035517758879439612e+02 6.968433628312396413e-06
1.044522261130565255e+02 6.941904780006157458e-06
1.053526763381690756e+02 6.910478775420333252e-06
1.062531265632816400e+02 6.830144327268359109e-06
1.071535767883941901e+02 6.740000044422806239e-06
1.080540270135067544e+02 6.712637951569867706e-06
1.089544772386193046e+02 6.762283212474873900e-06
1.098549274637318547e+02 6.839677906247908789e-06
1.107553776888444190e+02 6.893983804111171900e-06
1.116558279139569692e+02 6.906869402646438249e-06
1.125562781390695335e+02 6.889770829245251232e-06
1.134567283641820836e+02 6.907765159378996095e-06
1.143571785892946480e+02 7.035478741894729886e-06
1.152576288144071981e+02 7.276349105882702186e-06
1.161580790395197482e+02 7.514969999352392979e-06
1.170585292646323126e+02 7.559533780007662614e-06
1.179589794897448627e+02 7.300281648181174137e-06
1.188594297148574270e+02 6.834276377254040543e-06
1.197598799399699772e+02 6.358555995774649879e-06
1.206603301650825415e+02 5.991758575756372615e-06
1.215607803901950916e+02 5.758777254085489870e-06
1.224612306153076418e+02 5.649938039885325958e-06
1.233616808404202061e+02 5.654869984385545913e-06
1.242621310655327562e+02 5.765584161956979460e-06
1.251625812906453206e+02 5.960945701408461780e-06
1.260630315157578707e+02 6.197490683929183853e-06
1.269634817408704350e+02 6.434299042838653333e-06
1.278639319659829852e+02 6.637803691161536114e-06
1.287643821910955353e+02 6.765299180436876976e-06
1.296648324162080996e+02 6.799076413652971489e-06
1.305652826413206640e+02 6.735692387734891041e-06
1.314657328664331999e+02 6.543663090189733122e-06
1.323661830915457642e+02 6.223019133253695069e-06
1.332666333166583286e+02 5.873729890079255165e-06
1.341670835417708929e+02 5.611047136200880674e-06
1.350675337668834288e+02 5.481805688470389647e-06
1.359679839919959932e+02 5.473956634877366515e-06
1.368684342171085575e+02 5.536098556817499110e-06
1.377688844422210934e+02 5.598695019076339801e-06
1.386693346673336578e+02 5.624742331828146698e-06
1.395697848924462221e+02 5.625069498463256549e-06
1.404702351175587864e+02 5.600534706066101923e-06
1.413706853426713224e+02 5.548170829464101679e-06
1.422711355677838867e+02 5.511488080594833591e-06
1.431715857928964510e+02 5.542261794500397811e-06
1.440720360180089870e+02 5.650222090083891842e-06
1.449724862431215513e+02 5.806490233379613751e-06
1.458729364682341156e+02 5.940075274141650993e-06
1.467733866933466800e+02 5.971193718598327109e-06
1.476738369184592159e+02 5.886291562914366525e-06
1.485742871435717802e+02 5.740451810165808211e-06
1.494747373686843446e+02 5.611871753740084798e-06
1.503751875937968805e+02 5.536213772864730872e-06
1.512756378189094448e+02 5.459275465253405807e-06
1.521760880440220092e+02 5.307129891665848879e-06
1.530765382691345735e+02 5.102696392016992235e-06
1.539769884942471094e+02 4.938560592142561378e-06
1.548774387193596738e+02 4.875663549935135790e-06
1.557778889444722381e+02 4.919347063269636635e-06
1.566783391695847740e+02 5.030763342095840485e-06
1.575787893946973384e+02 5.145614187502164566e-06
1.584792396198099027e+02 5.220289285906329285e-06
1.593796898449224670e+02 5.268039026073219337e-06
1.602801400700350030e+02 5.335089663868026075e-06
1.611805902951475673e+02 5.441943707565400195e-06
1.620810405202601316e+02 5.579440808060699345e-06
1.629814907453726676e+02 5.742804103660076312e-06
1.638819409704852319e+02 5.929800624743766185e-06
1.647823911955977962e+02 6.131145411381437706e-06
1.656828414207103606e+02 6.338127255931872415e-06
1.665832916458228965e+02 6.494331294080973844e-06
1.674837418709354608e+02 6.499989761334013088e-06
1.683841920960480252e+02 6.346123396986123230e-06
1.692846423211605611e+02 6.126275217155634148e-06
1.701850925462731254e+02 5.890064918458591845e-06
1.710855427713856898e+02 5.629441205917030181e-06
1.719859929964982541e+02 5.366968197681883724e-06
1.728864432216107900e+02 5.160979152490421048e-06
1.737868934467233544e+02 5.069591545680771240e-06
1.746873436718359187e+02 5.127093461738447878e-06
1.755877938969484546e+02 5.330900301448667632e-06
1.764882441220610190e+02 5.632209650927860333e-06
1.773886943471735833e+02 5.945909172088517409e-06
1.782891445722861476e+02 6.180770401155565927e-06
1.791895947973986836e+02 6.259098413375746347e-06
1.800900450225112479e+02 6.166593364463403710e-06
1.809904952476238122e+02 5.956843308082569041e-06
1.818909454727363482e+02 5.687116838133595338e-06
1.827913956978489125e+02 5.406482784469160588e-06
1.836918459229614768e+02 5.160685909577227556e-06
1.845922961480740412e+02 4.985692886494138056e-06
1.854927463731865771e+02 4.893817192902495978e-06
1.863931965982991414e+02 4.875412965475029062e-06
1.872936468234117058e+02 4.923959571552962358e-06
1.881940970485242417e+02 5.041855901961666123e-06
1.890945472736368060e+02 5.221514916030142733e-06
1.899949974987493704e+02 5.416784072648668197e-06
1.908954477238619347e+02 5.551443185008338369e-06
1.917958979489744706e+02 5.588145904371083002e-06
1.926963481740870350e+02 5.560530803145042101e-06
1.935967983991995993e+02 5.522015154896115483e-06
1.944972486243121352e+02 5.514827414632659748e-06
1.953976988494246996e+02 5.576797315476934835e-06
1.962981490745372639e+02 5.741272285319107522e-06
1.971985992996498283e+02 6.012267248481726913e-06
1.980990495247623642e+02 6.332695562710535437e-06
1.989994997498749285e+02 6.592215433654969644e-06
1.998999499749874929e+02 6.688009866090492938e-06
2.008004002001000288e+02 6.581639859228203034e-06
2.017008504252125931e+02 6.313878023612073019e-06
2.026013006503251574e+02 5.991511959504674949e-06
2.035017508754377218e+02 5.710590053081064684e-06
2.044022011005502577e+02 5.481525405992561351e-06
2.053026513256628220e+02 5.269439476227128020e-06
2.062031015507753864e+02 5.073021332326102021e-06
2.071035517758879223e+02 4.922839509057783496e-06
2.080040020010004866e+02 4.834403743926103854e-06
2.089044522261130510e+02 4.799450906557915149e-06
2.098049024512256153e+02 4.800972687487784240e-06
2.107053526763381512e+02 4.820235056002730128e-06
2.116058029014507156e+02 4.849201788381371727e-06
2.125062531265632799e+02 4.891932572384454395e-06
2.134067033516758158e+02 4.962976346530988989e-06
2.143071535767883802e+02 5.077509173861449673e-06
2.152076038019009445e+02 5.233355890854914190e-06
2.161080540270135089e+02 5.403664166254959736e-06
2.170085042521260448e+02 5.537537102897267125e-06
2.179089544772386091e+02 5.589313681057724420e-06
2.188094047023511735e+02 5.558154525308708457e-06
2.197098549274637094e+02 5.487134726026024583e-06
2.206103051525762737e+02 5.392250750549458720e-06
2.215107553776888381e+02 5.267061043358901592e-06
2.224112056028014024e+02 5.140658837541817587e-06
2.233116558279139383e+02 5.056207656400551509e-06
2.242121060530265027e+02 5.030224773798036859e-06
2.251125562781390670e+02 5.064640154044460273e-06
2.260130065032516029e+02 5.151888797324506456e-06
2.269134567283641672e+02 5.252756850986606072e-06
2.278139069534767316e+02 5.316688402198963299e-06
2.287143571785892959e+02 5.339020905926335521e-06
2.296148074037018318e+02 5.364097792728579262e-06
2.305152576288143962e+02 5.439895235462801835e-06
2.314157078539269605e+02 5.605902573279115879e-06
2.323161580790394964e+02 5.893541692845658664e-06
2.332166083041520608e+02 6.294983471449688676e-06
2.341170585292646251e+02 6.728418084643999770e-06
2.350175087543771895e+02 7.071585455787198168e-06
2.359179589794897254e+02 7.240560019271875231e-06
2.368184092046022897e+02 7.231844761574780468e-06
2.377188594297148541e+02 7.103182091146343964e-06
2.386193096548273900e+02 6.903143597928016594e-06
2.395197598799399543e+02 6.666611033589907989e-06
2.404202101050525187e+02 6.451247853792420506e-06
2.413206603301650830e+02 6.309037533283056134e-06
2.422211105552776189e+02 6.251463607814267176e-06
2.431215607803901833e+02 6.262035193922664104e-06
2.440220110055027476e+02 6.318133685115092955e-06
2.449224612306152835e+02 6.422654015882388197e-06
2.458229114557278479e+02 6.595702595794251363e-06
2.467233616808404122e+02 6.828630700538621601e-06
2.476238119059529765e+02 7.089527085239741184e-06
2.485242621310655124e+02 7.338035473163488495e-06
2.494247123561780768e+02 7.538220871193149871e-06
2.503251625812906411e+02 7.685415063915835996e-06
2.512256128064031770e+02 7.775986503039575520e-06
2.521260630315157414e+02 7.786522209499253393e-06
2.530265132566283057e+02 7.738857172992829128e-06
2.539269634817408701e+02 7.681350640531324646e-06
2.548274137068534060e+02 7.637093818989757499e-06
2.557278639319659703e+02 7.618766547192515868e-06
2.566283141570785347e+02 7.586702271334748281e-06
2.575287643821910706e+02 7.480517472107783731e-06
2.584292146073036633e+02 7.326738989240293466e-06
2.593296648324161993e+02 7.221405548259813188e-06
2.602301150575287352e+02 7.209413889924903909e-06
2.611305652826413279e+02 7.245174584718151614e-06
2.620310155077538639e+02 7.246691766537394543e-06
2.629314657328663998e+02 7.160550533784936664e-06
2.638319159579789925e+02 7.026685513373009870e-06
2.647323661830915285e+02 6.939489683241716269e-06
2.656328164082040644e+02 6.942664713295000229e-06
2.665332666333166571e+02 6.997598696145344991e-06
2.674337168584291931e+02 7.057177646087868205e-06
2.683341670835417858e+02 7.125967673170035921e-06
2.692346173086543217e+02 7.223660353708223348e-06
2.701350675337668577e+02 7.345175786611894522e-06
2.710355177588794504e+02 7.445316997410828165e-06
2.719359679839919863e+02 7.467712704407676124e-06
2.728364182091045222e+02 7.412354857102867493e-06
2.737368684342171150e+02 7.332468727888247295e-06
2.746373186593296509e+02 7.260414767522023728e-06
2.755377688844421868e+02 7.174972269687226640e-06
2.764382191095547796e+02 7.060071212266035828e-06
2.773386693346673155e+02 6.951741525303349224e-06
2.782391195597798514e+02 6.890973064526351654e-06
2.791395697848924442e+02 6.883424276980349579e-06
2.800400200100049801e+02 6.916844751823366653e-06
2.809404702351175729e+02 6.990355680882448428e-06
2.818409204602301088e+02 7.119040132014701358e-06
2.827413706853426447e+02 7.292907576479404173e-06
2.836418209104552375e+02 7.482447482045440573e-06
2.845422711355677734e+02 7.662204901567405327e-06
2.854427213606803093e+02 7.799364953016152548e-06
2.863431715857929021e+02 7.870622721884236561e-06
2.872436218109054380e+02 7.875031111263254322e-06
2.881440720360179739e+02 7.803449127523493171e-06
2.890445222611305667e+02 7.656929083113970033e-06
2.899449724862431026e+02 7.494592215802434571e-06
2.908454227113556385e+02 7.390353500643206211e-06
2.917458729364682313e+02 7.349672062299982433e-06
2.926463231615807672e+02 7.314955571246889072e-06
2.935467733866933600e+02 7.240882055132560035e-06
2.944472236118058959e+02 7.130546734155246819e-06
2.953476738369184318e+02 7.019564806280512022e-06
2.962481240620310246e+02 6.958597188664264550e-06
2.971485742871435605e+02 6.991011450316908368e-06
2.980490245122560964e+02 7.116419318412434895e-06
2.989494747373686891e+02 7.306753794551595442e-06
2.998499249624812251e+02 7.546495842887862935e-06
3.007503751875937610e+02 7.813098310309830047e-06
3.016508254127063537e+02 8.062803198650601847e-06
3.025512756378188897e+02 8.234573259782962092e-06
3.034517258629314256e+02 8.280038752354927444e-06
3.043521760880440183e+02 8.205551305305125529e-06
3.052526263131565543e+02 8.042660307724241330e-06
3.061530765382691470e+02 7.809380773146976903e-06
3.070535267633816829e+02 7.524824432102734980e-06
3.079539769884942189e+02 7.230752642148297921e-06
3.088544272136068116e+02 6.970860746349258947e-06
3.097548774387193475e+02 6.770210742748658750e-06
3.106553276638318835e+02 6.621903024447701840e-06
3.115557778889444762e+02 6.483742321845872470e-06
3.124562281140570121e+02 6.339858230050421706e-06
3.133566783391695481e+02 6.223811214510957213e-06
3.142571285642821408e+02 6.193629573121345834e-06
3.151575787893946767e+02 6.288825132289178679e-06
3.160580290145072127e+02 6.493338921098744764e-06
3.169584792396198054e+02 6.745112198827901443e-06
3.178589294647323413e+02 6.982630940646009867e-06
3.187593796898449341e+02 7.184414997231718850e-06
3.196598299149574700e+02 7.359789279868633982e-06
3.205602801400700059e+02 7.511595282264600216e-06
3.214607303651825987e+02 7.622293275796707456e-06
3.223611805902951346e+02 7.672001714080392380e-06
3.232616308154076705e+02 7.618579031393401121e-06
3.241620810405202633e+02 7.443445022081906193e-06
3.250625312656327992e+02 7.228478123017228504e-06
3.259629814907453351e+02 7.078979542811902273e-06
3.268634317158579279e+02 7.023729094564411151e-06
3.277638819409704638e+02 7.008305371038166872e-06
3.286643321660829997e+02 6.953651535001251143e-06
3.295647823911955925e+02 6.846518084862912661e-06
3.304652326163081284e+02 6.744483515365466757e-06
3.313656828414207212e+02 6.692330522647392192e-06
3.322661330665332571e+02 6.687513450782296133e-06
3.331665832916457930e+02 6.726787299417001415e-06
3.340670335167583858e+02 6.827935875532780441e-06
3.349674837418709217e+02 6.985023065506574998e-06
3.358679339669834576e+02 7.143444317226198253e-06
3.367683841920960504e+02 7.247385655832665160e-06
3.376688344172085863e+02 7.278969751859020330e-06
3.385692846423211222e+02 7.246149680476002627e-06
3.394697348674337150e+02 7.164027516661517284e-06
3.403701850925462509e+02 7.049768031734354279e-06
3.412706353176587868e+02 6.932015630073666482e-06
3.421710855427713796e+02 6.841254293467504742e-06
3.430715357678839155e+02 6.794407713839317364e-06
3.439719859929965082e+02 6.805880164142481920e-06
3.448724362181090441e+02 6.882780460281852161e-06
3.457728864432215801e+02 7.005553827160668392e-06
3.466733366683341728e+02 7.132415684763119331e-06
3.475737868934467087e+02 7.236395226427750917e-06
3.484742371185592447e+02 7.326086740625713202e-06
3.493746873436718374e+02 7.421189070561118396e-06
3.502751375687843733e+02 7.545272713907947329e-06
3.511755877938969093e+02 7.720025663120661763e-06
3.520760380190095020e+02 7.920687565545499306e-06
3.529764882441220379e+02 8.086247014097576764e-06
3.538769384692345739e+02 8.183382191597301966e-06
3.547773886943471666e+02 8.204083932641354385e-06
3.556778389194597025e+02 8.152610727265406908e-06
3.565782891445722953e+02 8.039566355328886903e-06
3.574787393696848312e+02 7.881179865911115378e-06
3.583791895947973671e+02 7.701726603842265354e-06
3.592796398199099599e+02 7.524612154017640907e-06
3.601800900450224958e+02 7.358436372294479416e-06
3.610805402701350317e+02 7.199408075903276586e-06
3.619809904952476245e+02 7.044142418395878167e-06
3.628814407203601604e+02 6.911732952420287935e-06
3.637818909454726963e+02 6.850484890634003234e-06
3.646823411705852891e+02 6.900263431888009689e-06
3.655827913956978250e+02 7.048758869322233299e-06
3.664832416208103609e+02 7.241835023040534285e-06
3.673836918459229537e+02 7.439768228390336345e-06
3.682841420710354896e+02 7.635661144946922786e-06
3.691845922961480824e+02 7.824262651196207485e-06
3.700850425212606183e+02 7.974237581620287820e-06
3.709854927463731542e+02 8.039938076157363835e-06
3.718859429714857470e+02 8.013040298359593909e-06
3.727863931965982829e+02 7.945635615007232727e-06
3.736868434217108188e+02 7.905472211474486729e-06
3.745872936468234116e+02 7.927023924044701786e-06
3.754877438719359475e+02 8.003795752079849980e-06
3.763881940970484834e+02 8.104755246911629759e-06
3.772886443221610762e+02 8.183379748606627301e-06
3.781890945472736121e+02 8.206767323102278464e-06
3.790895447723861480e+02 8.198120012890984298e-06
3.799899949974987408e+02 8.194059329286751346e-06
3.808904452226112767e+02 8.190061068859170467e-06
3.817908954477238694e+02 8.186611882781294093e-06
3.826913456728364054e+02 8.229757075703768971e-06
3.835917958979489413e+02 8.349007344678282367e-06
3.844922461230615340e+02 8.514815927622720892e-06
3.853926963481740700e+02 8.690923629652530611e-06
3.862931465732866059e+02 8.865015979625009816e-06
3.871935967983991986e+02 9.004216122948964838e-06
3.880940470235117346e+02 9.047050198826359554e-06
3.889944972486242705e+02 8.978710577875104298e-06
3.898949474737368632e+02 8.867948167945388047e-06
3.907953976988493991e+02 8.781416961965944000e-06
3.916958479239619351e+02 8.720173346481674225e-06
3.925962981490745278e+02 8.670193273595971605e-06
3.934967483741870637e+02 8.650303262460379535e-06
3.943971985992996565e+02 8.682837250921146137e-06
3.952976488244121924e+02 8.768537053072572549e-06
3.961980990495247283e+02 8.908349747158221567e-06
3.970985492746373211e+02 9.092100993420771507e-06
3.979989994997498570e+02 9.299684154657505928e-06
3.988994497248623929e+02 9.527221073602922839e-06
3.997998999499749857e+02 9.782737160845202156e-06
4.007003501750875216e+02 1.004898009007227249e-05
4.016008004002000575e+02 1.027163532069228707e-05
4.025012506253126503e+02 1.038044317071823255e-05
4.034017008504251862e+02 1.035053683198598503e-05
4.043021510755377221e+02 1.022680541999926460e-05
4.052026013006503149e+02 1.004200129444656295e-05
4.061030515257628508e+02 9.817226251078008600e-06
4.070035017508754436e+02 9.621437603205131939e-06
4.079039519759879795e+02 9.536627138452295549e-06
4.088044022011005154e+02 9.589280646377892867e-06
4.097048524262131082e+02 9.727248331073932319e-06
4.106053026513256441e+02 9.863466386863287851e-06
4.115057528764381800e+02 9.960552853355459862e-06
4.124062031015507728e+02 1.003891475322308580e-05
4.133066533266633087e+02 1.010897036960383845e-05
4.142071035517758446e+02 1.014959584430241781e-05
4.151075537768884374e+02 1.013410359010135404e-05
4.160080040020009733e+02 1.007591178319369148e-05
4.169084542271135092e+02 1.002365403789302968e-05
4.178089044522261020e+02 9.985946078381001390e-06
4.187093546773386379e+02 9.928389687071428657e-06
4.196098049024512306e+02 9.840438353576118298e-06
4.205102551275637666e+02 9.745051948773383280e-06
4.214107053526763025e+02 9.675212182576650355e-06
4.223111555777888952e+02 9.665099096765147850e-06
4.232116058029014312e+02 9.738497362491049965e-06
4.241120560280139671e+02 9.897967748863045509e-06
4.250125062531265598e+02 1.010943663017870641e-05
4.259129564782390958e+02 1.032292680966900106e-05
4.268134067033516317e+02 1.052529473536037854e-05
4.277138569284642244e+02 1.072728486458606286e-05
4.286143071535767604e+02 1.089223656108997654e-05
4.295147573786892963e+02 1.092657394398852361e-05
4.304152076038018890e+02 1.079329804832165587e-05
4.313156578289144250e+02 1.056429841773162756e-05
4.322161080540270177e+02 1.031120421056888541e-05
4.331165582791395536e+02 1.006488955758039555e-05
4.340170085042520896e+02 9.849932528371842133e-06
4.349174587293646823e+02 9.681263883511180486e-06
4.358179089544772182e+02 9.594164616484352021e-06
4.367183591795897541e+02 9.645427869808331369e-06
4.376188094047023469e+02 9.858499007655796657e-06
4.385192596298148828e+02 1.018852794120518058e-05
4.394197098549274187e+02 1.053480129199937610e-05
4.403201600800400115e+02 1.079164672629837459e-05
4.412206103051525474e+02 1.091987433728698220e-05
4.421210605302650833e+02 1.097208728014496712e-05
4.430215107553776761e+02 1.102398050598790781e-05
4.439219609804902120e+02 1.111142233256603500e-05
4.448224112056028048e+02 1.124279852843940842e-05
4.457228614307153407e+02 1.140029652237262739e-05
4.466233116558278766e+02 1.152791509425022804e-05
4.475237618809404694e+02 1.155918321233907565e-05
4.484242121060530053e+02 1.149006883080248422e-05
4.493246623311655412e+02 1.139888360942438339e-05
4.502251125562781340e+02 1.138646367452456274e-05
4.511255627813906699e+02 1.149815901203034014e-05
4.520260130065032058e+02 1.171467258744583793e-05
4.529264632316157986e+02 1.202408466261953287e-05
4.538269134567283345e+02 1.243402358617845935e-05
4.547273636818408704e+02 1.291190356206486578e-05
4.556278139069534632e+02 1.337948048116254414e-05
4.565282641320659991e+02 1.375334752547649883e-05
4.574287143571785919e+02 1.398366176372054800e-05
4.583291645822911278e+02 1.408730369269878359e-05
4.592296148074036637e+02 1.411300552762248838e-05
4.601300650325162565e+02 1.407122545518518572e-05
4.610305152576287924e+02 1.395528281019299321e-05
4.619309654827413283e+02 1.379495071649356314e-05
4.628314157078539210e+02 1.365266856767747957e-05
4.637318659329664570e+02 1.357166799294221483e-05
4.646323161580789929e+02 1.358375356880488077e-05
4.655327663831915856e+02 1.369045651792731490e-05
4.664332166083041216e+02 1.381790165300474957e-05
4.673336668334167143e+02 1.392001406622065178e-05
4.682341170585292502e+02 1.404895364211170655e-05
4.691345672836417862e+02 1.421720895420123818e-05
4.700350175087543789e+02 1.434382243502762933e-05
4.709354677338669148e+02 1.439150483616935190e-05
4.718359179589794508e+02 1.442932544780696887e-05
4.727363681840920435e+02 1.452186652667855359e-05
4.736368184092045794e+02 1.465021572872703911e-05
4.745372686343171154e+02 1.474539911280603364e-05
4.754377188594297081e+02 1.477710203445278391e-05
4.763381690845422440e+02 1.476805922319119069e-05
4.772386193096547800e+02 1.473545519311267336e-05
4.781390695347673727e+02 1.469373420162843524e-05
4.790395197598799086e+02 1.466670059653825021e-05
4.799399699849925014e+02 1.466461695994950229e-05
4.808404202101050373e+02 1.468467237390585413e-05
4.817408704352175732e+02 1.474160807668737962e-05
4.826413206603301660e+02 1.487751670452846459e-05
4.835417708854427019e+02 1.511465018279089522e-05
4.844422211105552378e+02 1.542291814546695172e-05
4.853426713356678306e+02 1.571691683389956487e-05
4.862431215607803665e+02 1.588972969841507795e-05
4.871435717858929024e+02 1.591129942221160094e-05
4.880440220110054952e+02 1.584114090972824833e-05
4.889444722361180311e+02 1.573939519244159295e-05
4.898449224612305670e+02 1.562924972695807851e-05
4.907453726863431598e+02 1.554050148596159659e-05
4.916458229114556957e+02 1.547430002529072182e-05
4.925462731365682885e+02 1.536008100344925730e-05
4.934467233616808244e+02 1.518968514845417095e-05
4.943471735867933603e+02 1.508199258808084038e-05
4.952476238119059531e+02 1.511324684292870543e-05
4.961480740370184890e+02 1.522968762836589163e-05
4.970485242621310249e+02 1.535632845633647000e-05
4.979489744872436177e+02 1.545470529637603198e-05
4.988494247123561536e+02 1.550750304372724755e-05
4.997498749374686895e+02 1.553768837540982946e-05
5.006503251625812823e+02 1.557620143792081213e-05
5.015507753876938182e+02 1.564042490856762000e-05
5.024512256128063541e+02 1.575119211503174377e-05
5.033516758379189469e+02 1.591065707639316190e-05
5.042521260630314828e+02 1.609295237269930991e-05
5.051525762881440755e+02 1.627047364866926151e-05
5.060530265132566115e+02 1.643914994327115079e-05
5.069534767383691474e+02 1.661501058389999719e-05
5.078539269634817401e+02 1.677687484815808226e-05
5.087543771885942760e+02 1.686105174076742209e-05
5.096548274137068120e+02 1.685043438067361507e-05
5.105552776388194047e+02 1.677912929473541323e-05
5.114557278639319406e+02 1.668062646073043787e-05
5.123561780890445334e+02 1.655953056222723112e-05
5.132566283141570693e+02 1.643072648781682788e-05
5.141570785392696052e+02 1.635131841988956633e-05
5.150575287643821412e+02 1.635465643891366314e-05
5.159579789894946771e+02 1.641853389100258581e-05
5.168584292146073267e+02 1.653132788939184450e-05
5.177588794397198626e+02 1.671648901534068980e-05
5.186593296648323985e+02 1.698744768400589275e-05
5.195597798899449344e+02 1.735360427882546899e-05
5.204602301150574704e+02 1.782537050172368809e-05
5.213606803401700063e+02 1.835461417975819981e-05
5.222611305652826559e+02 1.883154761030123091e-05
5.231615807903951918e+02 1.913643543384826068e-05
5.240620310155077277e+02 1.922346884533819252e-05
5.249624812406202636e+02 1.915876638818789213e-05
5.258629314657327996e+02 1.901226256833725783e-05
5.267633816908454492e+02 1.879594482220658209e-05
5.276638319159579851e+02 1.854031724566661149e-05
5.285642821410705210e+02 1.831280324008967636e-05
5.294647323661830569e+02 1.815402674054161422e-05
5.303651825912955928e+02 1.806382010908433796e-05
5.312656328164081287e+02 1.803424611657674140e-05
5.321660830415207784e+02 1.804090511751731623e-05
5.330665332666333143e+02 1.802631956296294784e-05
5.339669834917458502e+02 1.797307680049382999e-05
5.348674337168583861e+02 1.793811103599320854e-05
5.357678839419709220e+02 1.797360410231048841e-05
5.366683341670835716e+02 1.808840709549697150e-05
5.375687843921961075e+02 1.827700526275091960e-05
5.384692346173086435e+02 1.853283618603592480e-05
5.393696848424211794e+02 1.880983117960038586e-05
5.402701350675337153e+02 1.904470619821841909e-05
5.411705852926462512e+02 1.923948292286096142e-05
5.420710355177589008e+02 1.947497068763051181e-05
5.429714857428714367e+02 1.980161717124564379e-05
5.438719359679839727e+02 2.013872682399842016e-05
5.447723861930965086e+02 2.038123968141585511e-05
5.456728364182090445e+02 2.056305884546717446e-05
5.465732866433215804e+02 2.080861448204199583e-05
5.474737368684342300e+02 2.115460925727958005e-05
5.483741870935467659e+02 2.155404811178973662e-05
5.492746373186593019e+02 2.199587532708966239e-05
5.501750875437718378e+02 2.248885186982473708e-05
5.510755377688843737e+02 2.300771840497588383e-05
5.519759879939970233e+02 2.350055169824405036e-05
5.528764382191095592e+02 2.393321147460876570e-05
5.537768884442220951e+02 2.433385476108328597e-05
5.546773386693346310e+02 2.473786452109975198e-05
5.555777888944471670e+02 2.511696610057135982e-05
5.564782391195597029e+02 2.546530624210508411e-05
5.573786893446723525e+02 2.582563001562794856e-05
5.582791395697848884e+02 2.620848999455609301e-05
5.591795897948974243e+02 2.660257606795199108e-05
5.600800400200099602e+02 2.698619173027641600e-05
5.609804902451224962e+02 2.739034138394469333e-05
5.618809404702351458e+02 2.792280159851149757e-05
5.627813906953476817e+02 2.859884845989882162e-05
5.636818409204602176e+02 2.932546084009039715e-05
5.645822911455727535e+02 3.003090239998227598e-05
5.654827413706852894e+02 3.064882709044228605e-05
5.663831915957978254e+02 3.107056928153295074e-05
5.672836418209104750e+02 3.122529423388799335e-05
5.681840920460230109e+02 3.115671244770859403e-05
5.690845422711355468e+02 3.103139520897393996e-05
5.699849924962480827e+02 3.098112781319356198e-05
5.708854427213606186e+02 3.099113337767458879e-05
5.717858929464731546e+02 3.096848761317722460e-05
5.726863431715858042e+02 3.088661528800841147e-05
5.735867933966983401e+02 3.081860789102948769e-05
5.744872436218108760e+02 3.083830224639207704e-05
5.753876938469234119e+02 3.094349109559137623e-05
5.762881440720359478e+02 3.109671946359016673e-05
5.771885942971485974e+02 3.130165857482894578e-05
5.780890445222611334e+02 3.156892324066802510e-05
5.789894947473736693e+02 3.185301448112113769e-05
5.798899449724862052e+02 3.211609820769629055e-05
5.807903951975987411e+02 3.238291323687978406e-05
5.816908454227112770e+02 3.256337342491573829e-05
5.825912956478239266e+02 3.241675245026290748e-05
5.834917458729364625e+02 3.195810566848881899e-05
5.843921960980489985e+02 3.156658990542207948e-05
5.852926463231615344e+02 3.151922766003082912e-05
5.861930965482740703e+02 3.182641841084129640e-05
5.870935467733867199e+02 3.235100170936453174e-05
5.879939969984992558e+02 3.288416067009754604e-05
5.888944472236117917e+02 3.328342649331371471e-05
5.897948974487243277e+02 3.359348313343247302e-05
5.906953476738368636e+02 3.399547892750061291e-05
5.915957978989493995e+02 3.464737659284512658e-05
5.924962481240620491e+02 3.550110702130256400e-05
5.933966983491745850e+02 3.634093561595345392e-05
5.942971485742871209e+02 3.698129392356678402e-05
5.951975987993996569e+02 3.731363172224866955e-05
5.960980490245121928e+02 3.733425624342780153e-05
5.969984992496247287e+02 3.714701963229250452e-05
5.978989494747373783e+02 3.691821649712788422e-05
5.987993996998499142e+02 3.676126613519106306e-05
5.996998499249624501e+02 3.666099936668848849e-05
6.006003001500749860e+02 3.653621412286040367e-05
6.015007503751875220e+02 3.634061360935671983e-05
6.024012006003001716e+02 3.613848707216047568e-05
6.033016508254127075e+02 3.607686886124649816e-05
6.042021010505252434e+02 3.625600191345831712e-05
6.051025512756377793e+02 3.666545432849903900e-05
6.060030015007503152e+02 3.722049777738579084e-05
6.069034517258628512e+02 3.782499693676241379e-05
6.078039019509755008e+02 3.831033929707825095e-05
6.087043521760880367e+02 3.840943587498981277e-05
6.096048024012005726e+02 3.805005206167893226e-05
6.105052526263131085e+02 3.753344353131286783e-05
6.114057028514256444e+02 3.720929501205189917e-05
6.123061530765382940e+02 3.720046160511469017e-05
6.132066033016508300e+02 3.746754637867034726e-05
6.141070535267633659e+02 3.785781205039970867e-05
6.150075037518759018e+02 3.819467325799597805e-05
6.159079539769884377e+02 3.847947479829473788e-05
6.168084042021009736e+02 3.883709093369360692e-05
6.177088544272136232e+02 3.931978457133423842e-05
6.186093046523261592e+02 3.984691721411163259e-05
6.195097548774386951e+02 4.027475144163698373e-05
6.204102051025512310e+02 4.054865087737661184e-05
6.213106553276637669e+02 4.074862083809937835e-05
6.222111055527763028e+02 4.102818778042292586e-05
6.231115557778889524e+02 4.139693413305796930e-05
6.240120060030014884e+02 4.165791682895423194e-05
6.249124562281140243e+02 4.171981862802986399e-05
6.258129064532265602e+02 4.170742356903708913e-05
6.267133566783390961e+02 4.166365794566531384e-05
6.276138069034517457e+02 4.149780359574262151e-05
6.285142571285642816e+02 4.124468974767524893e-05
6.294147073536768175e+02 4.106049288926498248e-05
6.303151575787893535e+02 4.104502111546676056e-05
6.312156078039018894e+02 4.128237059986826664e-05
6.321160580290144253e+02 4.183812485630541771e-05
6.330165082541270749e+02 4.263742448315927376e-05
6.339169584792396108e+02 4.353090406481410513e-05
6.348174087043521467e+02 4.442625667590062455e-05
6.357178589294646827e+02 4.529584474278497842e-05
6.366183091545772186e+02 4.606253965160748591e-05
6.375187593796898682e+02 4.659084149484742207e-05
6.384192096048024041e+02 4.676347724059519315e-05
6.393196598299149400e+02 4.652514289283446599e-05
6.402201100550274759e+02 4.607828231395186714e-05
6.411205602801400119e+02 4.573533246201655025e-05
6.420210105052525478e+02 4.553042546551198298e-05
6.429214607303651974e+02 4.525819351052169962e-05
6.438219109554777333e+02 4.477562555528909151e-05
6.447223611805902692e+02 4.420551323545812830e-05
6.456228114057028051e+02 4.385108723841856708e-05
6.465232616308153411e+02 4.394813642604494022e-05
6.474237118559278770e+02 4.446243158221485344e-05
6.483241620810405266e+02 4.505171782830448720e-05
6.492246123061530625e+02 4.535737953508638934e-05
6.501250625312655984e+02 4.534695299743607476e-05
6.510255127563781343e+02 4.523401763934764542e-05
6.519259629814906702e+02 4.515869702814282241e-05
6.528264132066033198e+02 4.515783745102589918e-05
6.537268634317158558e+02 4.532916467870503848e-05
6.546273136568283917e+02 4.576972834971596997e-05
6.555277638819409276e+02 4.638376981783281778e-05
6.564282141070534635e+02 4.694358864905848720e-05
6.573286643321659994e+02 4.726120966099258097e-05
6.582291145572786490e+02 4.730248973432405965e-05
6.591295647823911850e+02 4.712757190254669368e-05
6.600300150075037209e+02 4.674346974094497676e-05
6.609304652326162568e+02 4.624070634681184895e-05
6.618309154577287927e+02 4.575234041881894590e-05
6.627313656828414423e+02 4.524558806322421270e-05
6.636318159079539782e+02 4.468983910898384005e-05
6.645322661330665142e+02 4.416239809811580097e-05
6.654327163581790501e+02 4.372641442919837770e-05
6.663331665832915860e+02 4.342471098411585667e-05
6.672336168084041219e+02 4.339937849780051404e-05
6.681340670335167715e+02 4.377483315584001171e-05
6.690345172586293074e+02 4.441553071882143651e-05
6.699349674837418434e+02 4.502858692108097359e-05
6.708354177088543793e+02 4.554219449786145940e-05
6.717358679339669152e+02 4.599789897423932193e-05
6.726363181590794511e+02 4.619535569900446494e-05
6.735367683841921007e+02 4.596205518913714641e-05
6.744372186093046366e+02 4.543662605906360988e-05
6.753376688344171725e+02 4.474174351250592772e-05
6.762381190595297085e+02 4.394939057279499445e-05
6.771385692846422444e+02 4.317532117630092661e-05
6.780390195097548940e+02 4.245288229244763772e-05
6.789394697348674299e+02 4.179310693282381988e-05
6.798399199599799658e+02 4.122760245366000140e-05
6.807403701850925017e+02 4.084241173721525836e-05
6.816408204102050377e+02 4.074019988100221828e-05
6.825412706353175736e+02 4.092402554504433421e-05
6.834417208604302232e+02 4.127758014539249180e-05
6.843421710855427591e+02 4.169452736320990893e-05
6.852426213106552950e+02 4.210730046086977535e-05
6.861430715357678309e+02 4.227365370805642936e-05
6.870435217608803669e+02 4.193784608280946055e-05
6.879439719859930165e+02 4.124168341214893440e-05
6.888444222111055524e+02 4.048433064480790706e-05
6.897448724362180883e+02 3.976429492758136751e-05
6.906453226613306242e+02 3.907928639353651368e-05
6.915457728864431601e+02 3.847804330982475447e-05
6.924462231115556961e+02 3.805802609905461288e-05
6.933466733366683457e+02 3.790852851934849507e-05
6.942471235617808816e+02 3.802754642206200342e-05
6.951475737868934175e+02 3.828405680602505455e-05
6.960480240120059534e+02 3.845449655782284267e-05
6.969484742371184893e+02 3.837035948308458973e-05
6.978489244622311389e+02 3.809898785508858979e-05
6.987493746873436749e+02 3.787180434812452716e-05
6.996498249124562108e+02 3.785595657201833506e-05
7.005502751375687467e+02 3.805465931440793834e-05
7.014507253626812826e+02 3.837324072763585037e-05
7.023511755877938185e+02 3.867609775876779669e-05
7.032516258129064681e+02 3.881751620623660797e-05
7.041520760380190040e+02 3.881806110893424450e-05
7.050525262631315400e+02 3.880979922885669420e-05
7.059529764882440759e+02 3.881431306936506721e-05
7.068534267133566118e+02 3.867005792807292952e-05
7.077538769384691477e+02 3.821787474199908743e-05
7.086543271635817973e+02 3.748480011792275189e-05
7.095547773886943332e+02 3.665098284801708030e-05
7.104552276138068692e+02 3.599209708079171248e-05
7.113556778389194051e+02 3.558317213501915091e-05
7.122561280640319410e+02 3.517950004915731743e-05
7.131565782891445906e+02 3.454660932689639113e-05
7.140570285142571265e+02 3.373444331211551803e-05
7.149574787393696624e+02 3.293412100984842271e-05
7.158579289644821984e+02 3.230277041219703336e-05
7.167583791895947343e+02 3.188508893805898841e-05
7.176588294147072702e+02 3.162642192014899058e-05
7.185592796398199198e+02 3.150687912277270000e-05
7.194597298649324557e+02 3.153652642604800081e-05
7.203601800900449916e+02 3.169903035367142223e-05
7.212606303151575275e+02 3.195314047370731620e-05
7.221610805402700635e+02 3.214141745142896391e-05
7.230615307653827131e+02 3.203414414535180835e-05
7.239619809904952490e+02 3.160321970907059374e-05
7.248624312156077849e+02 3.103682996180152063e-05
7.257628814407203208e+02 3.048205781311214387e-05
7.266633316658328567e+02 2.995880402035986276e-05
7.275637818909453927e+02 2.943899091456130034e-05
7.284642321160580423e+02 2.889414300429291816e-05
7.293646823411705782e+02 2.833123913072624453e-05
7.302651325662831141e+02 2.783105166538394449e-05
7.311655827913956500e+02 2.746839618532148999e-05
7.320660330165081859e+02 2.725376116563186827e-05
7.329664832416207219e+02 2.711202034291413160e-05
7.338669334667333715e+02 2.692087350043166074e-05
7.347673836918459074e+02 2.666557352426213574e-05
7.356678339169584433e+02 2.645773635445682130e-05
7.365682841420709792e+02 2.636210325979021699e-05
7.374687343671835151e+02 2.628600279174723303e-05
7.383691845922961647e+02 2.609663114446957182e-05
7.392696348174087007e+02 2.580370982458307717e-05
7.401700850425212366e+02 2.556726373683750864e-05
7.410705352676337725e+02 2.553922977795423609e-05
7.419709854927463084e+02 2.568645126882371189e-05
7.428714357178588443e+02 2.578398510799562819e-05
7.437718859429714939e+02 2.566027713880383052e-05
7.446723361680840299e+02 2.535970567129013206e-05
7.455727863931965658e+02 2.502728876105755871e-05
7.464732366183091017e+02 2.474996218274717668e-05
7.473736868434216376e+02 2.451356202941255971e-05
7.482741370685342872e+02 2.427745378243839156e-05
7.491745872936468231e+02 2.402190996710463035e-05
7.500750375187593590e+02 2.371107188930529340e-05
7.509754877438718950e+02 2.332200785645330935e-05
7.518759379689844309e+02 2.292307375290542532e-05
7.527763881940969668e+02 2.262258456335387348e-05
7.536768384192096164e+02 2.247213015437970313e-05
7.545772886443221523e+02 2.244902582650928110e-05
7.554777388694346882e+02 2.247635922516304989e-05
7.563781890945472242e+02 2.251364091708002427e-05
7.572786393196597601e+02 2.260542040056421194e-05
7.581790895447722960e+02 2.275652262988011506e-05
7.590795397698849456e+02 2.286133822300083881e-05
7.599799899949974815e+02 2.281078461012160097e-05
7.608804402201100174e+02 2.261900251154246201e-05
7.617808904452225534e+02 2.236811990797399523e-05
7.626813406703350893e+02 2.209657658990151242e-05
7.635817908954477389e+02 2.177406021912799201e-05
7.644822411205602748e+02 2.138798542696056194e-05
7.653826913456728107e+02 2.101727385793792282e-05
7.662831415707853466e+02 2.070505123990279569e-05
7.671835917958978825e+02 2.044439122822884567e-05
7.680840420210104185e+02 2.024857829253451168e-05
7.689844922461230681e+02 2.009954216001293424e-05
7.698849424712356040e+02 1.996807928975974115e-05
7.707853926963481399e+02 1.983361247713256360e-05
7.716858429214606758e+02 1.967614898416770425e-05
7.725862931465732117e+02 1.949569347716517684e-05
7.734867433716858613e+02 1.930217665418161132e-05
7.743871935967983973e+02 1.911025150690179010e-05
7.752876438219109332e+02 1.895443166055676431e-05
7.761880940470234691e+02 1.888186946813424054e-05
7.770885442721360050e+02 1.888440934952002393e-05
7.779889944972485409e+02 1.888121772559874767e-05
7.788894447223611905e+02 1.883013130561762158e-05
7.797898949474737265e+02 1.882104961753332982e-05
7.806903451725862624e+02 1.893962439503463135e-05
7.815907953976987983e+02 1.913468595938601360e-05
7.824912456228113342e+02 1.925814172983790910e-05
7.833916958479238701e+02 1.922991619703638143e-05
7.842921460730365197e+02 1.913120188055639724e-05
7.851925962981490557e+02 1.904783572525135097e-05
7.860930465232615916e+02 1.898784467352878348e-05
7.869934967483741275e+02 1.895285060582699608e-05
7.878939469734866634e+02 1.897197757068714145e-05
7.887943971985993130e+02 1.906108692894236940e-05
7.896948474237118489e+02 1.920101236836873761e-05
7.905952976488243849e+02 1.932690194754495554e-05
7.914957478739369208e+02 1.934284331260673997e-05
7.923961980990494567e+02 1.921955616108037864e-05
7.932966483241619926e+02 1.901486920996904746e-05
7.941970985492746422e+02 1.877426351125829874e-05
7.950975487743871781e+02 1.850304094121078488e-05
7.959979989994997140e+02 1.822535055611366063e-05
7.968984492246122500e+02 1.799758735795206762e-05
7.977988994497247859e+02 1.788486531271261731e-05
7.986993496748374355e+02 1.790524554624529560e-05
7.995997998999499714e+02 1.800995063651864464e-05
8.005002501250625073e+02 1.814363436045408456e-05
8.014007003501750432e+02 1.831481892627542611e-05
8.023011505752875792e+02 1.853945948480766127e-05
8.032016008004001151e+02 1.873676779316771620e-05
8.041020510255127647e+02 1.879276737944211417e-05
8.050025012506253006e+02 1.871682970605284053e-05
8.059029514757378365e+02 1.861367751861883057e-05
8.068034017008503724e+02 1.855530352138100346e-05
8.077038519259629084e+02 1.853349031932552982e-05
8.086043021510754443e+02 1.851266951043996538e-05
8.095047523761880939e+02 1.850057302237778360e-05
8.104052026013006298e+02 1.850545648904683598e-05
8.113056528264131657e+02 1.848721594366068625e-05
8.122061030515257016e+02 1.838448507563092697e-05
8.131065532766382375e+02 1.818213819638364411e-05
8.140070035017508872e+02 1.791856582168429955e-05
8.149074537268634231e+02 1.763211637023842030e-05
8.158079039519759590e+02 1.738021861783156034e-05
8.167083541770884949e+02 1.719627049380797839e-05
8.176088044022010308e+02 1.704161943898568210e-05
8.185092546273135667e+02 1.689509510227726993e-05
8.194097048524262163e+02 1.679395745734238999e-05
8.203101550775387523e+02 1.678307944324296415e-05
8.212106053026512882e+02 1.687815009286118458e-05
8.221110555277638241e+02 1.705761793555297647e-05
8.230115057528763600e+02 1.728391456043145243e-05
8.239119559779890096e+02 1.750187370845053937e-05
8.248124062031015455e+02 1.766594036142164612e-05
8.257128564282140815e+02 1.773811837282836327e-05
8.266133066533266174e+02 1.768046878038154451e-05
8.275137568784391533e+02 1.752999156193863032e-05
8.284142071035516892e+02 1.739348146595494875e-05
8.293146573286643388e+02 1.735574703951924959e-05
8.302151075537768747e+02 1.739943846304821152e-05
8.311155577788894107e+02 1.742291759726022617e-05
8.320160080040019466e+02 1.735204075880253480e-05
8.329164582291144825e+02 1.717462591678795860e-05
8.338169084542270184e+02 1.695474980930447299e-05
8.347173586793396680e+02 1.677788773683566354e-05
8.356178089044522039e+02 1.668075785037343884e-05
8.365182591295647399e+02 1.667474135559525323e-05
8.374187093546772758e+02 1.676145875629402488e-05
8.383191595797898117e+02 1.688668617132717956e-05
8.392196098049024613e+02 1.696902344264127063e-05
8.401200600300149972e+02 1.701641138175607424e-05
8.410205102551275331e+02 1.712888929123106024e-05
8.419209604802400690e+02 1.733051692969513985e-05
8.428214107053526050e+02 1.745747463666636425e-05
8.437218609304651409e+02 1.734491827934540783e-05
8.446223111555777905e+02 1.705249102251307034e-05
8.455227613806903264e+02 1.678088178695209587e-05
8.464232116058028623e+02 1.665603722552910432e-05
8.473236618309153982e+02 1.666430080332504329e-05
8.482241120560279342e+02 1.674922053606246999e-05
8.491245622811405838e+02 1.687287979561323442e-05
8.500250125062531197e+02 1.700958613863494528e-05
8.509254627313656556e+02 1.716768744469512580e-05
8.518259129564781915e+02 1.738754455559590961e-05
8.527263631815907274e+02 1.765039398429481978e-05
8.536268134067032634e+02 1.782887892762824856e-05
8.545272636318159130e+02 1.781580894883613123e-05
8.554277138569284489e+02 1.763984542907842044e-05
8.563281640820409848e+02 1.742021099560241138e-05
8.572286143071535207e+02 1.725366856555426943e-05
8.581290645322660566e+02 1.717519649831529034e-05
8.590295147573785925e+02 1.721527516723604306e-05
8.599299649824912422e+02 1.737998956790866856e-05
8.608304152076037781e+02 1.759459882451212717e-05
8.617308654327163140e+02 1.775641454121557080e-05
8.626313156578288499e+02 1.784131994349753847e-05
8.635317658829413858e+02 1.788185386797107361e-05
8.644322161080540354e+02 1.789160411882777973e-05
8.653326663331665713e+02 1.788449420922430544e-05
8.662331165582791073e+02 1.786250544060470012e-05
8.671335667833916432e+02 1.779237229017597381e-05
8.680340170085041791e+02 1.768721417209501845e-05
8.689344672336167150e+02 1.760500319965294325e-05
8.698349174587293646e+02 1.757951986787325302e-05
8.707353676838419005e+02 1.762608122532688661e-05
8.716358179089544365e+02 1.775134591410942235e-05
8.725362681340669724e+02 1.791753238901456859e-05
8.734367183591795083e+02 1.806761847197941171e-05
8.743371685842921579e+02 1.820061876046118502e-05
8.752376188094046938e+02 1.833474007961893734e-05
8.761380690345172297e+02 1.844113366480931845e-05
8.770385192596297657e+02 1.848518674546606225e-05
8.779389694847423016e+02 1.844720974247190677e-05
8.788394197098548375e+02 1.833025127624813612e-05
8.797398699349674871e+02 1.818727881016001164e-05
8.806403201600800230e+02 1.807340739773785049e-05
8.815407703851925589e+02 1.797818296925772548e-05
8.824412206103050949e+02 1.787751633558487879e-05
8.833416708354176308e+02 1.782675982792484415e-05
8.842421210605301667e+02 1.789047612159619616e-05
8.851425712856428163e+02 1.803809137339584484e-05
8.860430215107553522e+02 1.816321568762296293e-05
8.869434717358678881e+02 1.819919407642449678e-05
8.878439219609804240e+02 1.819232741001115244e-05
8.887443721860929600e+02 1.822792624868295751e-05
8.896448224112056096e+02 1.835662040315403986e-05
8.905452726363181455e+02 1.858701282081539670e-05
8.914457228614306814e+02 1.888600510958681416e-05
8.923461730865432173e+02 1.921329574451522912e-05
8.932466233116557532e+02 1.954844668296036811e-05
8.941470735367682892e+02 1.985993228292061576e-05
8.950475237618809388e+02 2.014281276552901370e-05
8.959479739869934747e+02 2.045062932849816379e-05
8.968484242121060106e+02 2.080962011431378050e-05
8.977488744372185465e+02 2.119708980776461226e-05
8.986493246623310824e+02 2.155867511393468199e-05
8.995497748874437320e+02 2.180219006133028660e-05
9.004502251125562680e+02 2.187718106026431309e-05
9.013506753376688039e+02 2.186960633463447861e-05
9.022511255627813398e+02 2.191097376106345372e-05
9.031515757878938757e+02 2.203095083886542143e-05
9.040520260130064116e+02 2.217134902404586236e-05
9.049524762381190612e+02 2.229948231067853195e-05
9.058529264632315972e+02 2.245741133448803174e-05
9.067533766883441331e+02 2.268967219421739475e-05
9.076538269134566690e+02 2.300547182280767203e-05
9.085542771385692049e+02 2.339038410233476505e-05
9.094547273636817408e+02 2.380035473748582468e-05
9.103551775887943904e+02 2.420244615667149624e-05
9.112556278139069263e+02 2.459426493078698317e-05
9.121560780390194623e+02 2.498271412822138319e-05
9.130565282641319982e+02 2.539013783262074664e-05
9.139569784892445341e+02 2.584065320401899118e-05
9.148574287143571837e+02 2.630080350814707483e-05
9.157578789394697196e+02 2.668827476510910184e-05
9.166583291645822555e+02 2.695080850516203845e-05
9.175587793896947915e+02 2.711687282635876826e-05
9.184592296148073274e+02 2.727768706757652148e-05
9.193596798399198633e+02 2.751783498100814415e-05
9.202601300650325129e+02 2.783707688685591923e-05
9.211605802901450488e+02 2.814690898705578931e-05
9.220610305152575847e+02 2.835357464623200108e-05
9.229614807403701207e+02 2.840789398208203083e-05
9.238619309654826566e+02 2.832757289850467599e-05
9.247623811905953062e+02 2.823833704681773856e-05
9.256628314157078421e+02 2.827869776008322554e-05
9.265632816408203780e+02 2.851167783375255200e-05
9.274637318659329139e+02 2.892892029501171420e-05
9.283641820910454499e+02 2.947316633681592397e-05
9.292646323161579858e+02 3.015827005602136340e-05
9.301650825412706354e+02 3.100252741993347742e-05
9.310655327663831713e+02 3.180762976714117526e-05
9.319659829914957072e+02 3.224593116552944234e-05
9.328664332166082431e+02 3.226031072682316382e-05
9.337668834417207790e+02 3.210151752498097562e-05
9.346673336668334287e+02 3.198469825949200616e-05
9.355677838919459646e+02 3.198359215640413360e-05
9.364682341170585005e+02 3.208299875809013623e-05
9.373686843421710364e+02 3.220758905068688829e-05
9.382691345672835723e+02 3.226954360684521262e-05
9.391695847923961082e+02 3.229341701120066701e-05
9.400700350175087578e+02 3.235411575973412351e-05
9.409704852426212938e+02 3.246705706801665954e-05
9.418709354677338297e+02 3.266665308850835129e-05
9.427713856928463656e+02 3.302795825746665000e-05
9.436718359179589015e+02 3.355027714946525196e-05
9.445722861430714374e+02 3.407384631129508907e-05
9.454727363681840870e+02 3.445199170312157198e-05
9.463731865932966230e+02 3.474348392455972194e-05
9.472736368184091589e+02 3.508814207515688978e-05
9.481740870435216948e+02 3.549754394490465783e-05
9.490745372686342307e+02 3.593662230939065360e-05
9.499749874937468803e+02 3.644491738446226504e-05
9.508754377188594162e+02 3.704843337003639169e-05
9.517758879439719522e+02 3.765193015023195888e-05
9.526763381690844881e+02 3.814700444204529575e-05
9.535767883941970240e+02 3.848073955273780656e-05
9.544772386193095599e+02 3.860989979848295845e-05
9.553776888444222095e+02 3.857553293889933306e-05
9.562781390695347454e+02 3.861838950154324393e-05
9.571785892946472813e+02 3.893308172972109618e-05
9.580790395197598173e+02 3.952401177253660262e-05
9.589794897448723532e+02 4.032148824732444277e-05
9.598799399699850028e+02 4.131018632323943260e-05
9.607803901950975387e+02 4.240707969126842497e-05
9.616808404202100746e+02 4.333713512349162821e-05
9.625812906453226105e+02 4.387960527982316119e-05
9.634817408704351465e+02 4.411702942022973229e-05
9.643821910955476824e+02 4.427207092500982168e-05
9.652826413206603320e+02 4.447065424587586516e-05
9.661830915457728679e+02 4.466750853755117835e-05
9.670835417708854038e+02 4.470148570490955787e-05
9.679839919959979397e+02 4.454527361517432183e-05
9.688844422211104757e+02 4.446195796333203245e-05
9.697848924462230116e+02 4.477648244363140352e-05
9.706853426713356612e+02 4.556318050292589006e-05
9.715857928964481971e+02 4.653784851448801359e-05
9.724862431215607330e+02 4.738831060784137560e-05
9.733866933466732689e+02 4.817580124754437918e-05
9.742871435717858049e+02 4.917511976018245940e-05
9.751875937968984545e+02 5.047860987551495808e-05
9.760880440220109904e+02 5.187292784017324401e-05
9.769884942471235263e+02 5.308532749688055723e-05
9.778889444722360622e+02 5.409564600282485157e-05
9.787893946973485981e+02 5.504442582681544929e-05
9.796898449224611340e+02 5.582920213149751082e-05
9.805902951475737837e+02 5.612272087671095418e-05
9.814907453726863196e+02 5.585763284886903637e-05
9.823911955977988555e+02 5.522093780841056879e-05
9.832916458229113914e+02 5.453116767000310228e-05
9.841920960480239273e+02 5.419270515943857094e-05
9.850925462731365769e+02 5.443671843956014093e-05
9.859929964982491128e+02 5.523328045915271893e-05
9.868934467233616488e+02 5.639698010804280738e-05
9.877938969484741847e+02 5.773074174582097857e-05
9.886943471735867206e+02 5.897956408273080750e-05
9.895947973986992565e+02 5.986108596331962131e-05
9.904952476238119061e+02 6.027160100936410184e-05
9.913956978489244420e+02 6.039137284021175290e-05
9.922961480740369780e+02 6.051284289290819336e-05
9.931965982991495139e+02 6.077634077194872021e-05
9.940970485242620498e+02 6.123243283149549761e-05
9.949974987493745857e+02 6.193026247496951882e-05
9.958979489744872353e+02 6.274980311944112728e-05
9.967983991995997712e+02 6.339036731400411089e-05
9.976988494247123072e+02 6.369863990675324946e-05
9.985992996498248431e+02 6.385176225246299480e-05
9.994997498749373790e+02 6.419002085443958807e-05
1.000400200100050029e+03 6.497212012526416087e-05
1.001300650325162565e+03 6.632122380110390110e-05
1.002201100550275100e+03 6.820341709064496464e-05
1.003101550775387636e+03 7.040911168592542391e-05
1.004002001000500172e+03 7.281239887803453155e-05
1.004902451225612708e+03 7.523922380979688334e-05
1.005802901450725358e+03 7.724029351329988633e-05
1.006703351675837894e+03 7.841624572719273320e-05
1.007603801900950430e+03 7.884901358934476800e-05
1.008504252126062966e+03 7.900538966875069672e-05
1.009404702351175501e+03 7.922242087008346187e-05
1.010305152576288151e+03 7.963298754748559930e-05
1.011205602801400687e+03 8.038313346568792979e-05
1.012106053026513223e+03 8.156398875722697787e-05
1.013006503251625759e+03 8.301560593140532875e-05
1.013906953476738295e+03 8.443316584427784134e-05
1.014807403701850831e+03 8.569518243739894026e-05
1.015707853926963480e+03 8.698842585800393198e-05
1.016608304152076016e+03 8.871876256667512930e-05
1.017508754377188552e+03 9.113322098183482376e-05
1.018409204602301088e+03 9.398728678632785999e-05
1.019309654827413624e+03 9.658592066447895062e-05
1.020210105052526160e+03 9.827259959476206195e-05
1.021110555277638809e+03 9.876498136091113199e-05
1.022011005502751345e+03 9.847062623152151096e-05
1.022911455727863881e+03 9.835120640197416006e-05
1.023811905952976417e+03 9.892151579379077281e-05
1.024712356178089067e+03 9.992704655798939118e-05
1.025612806403201603e+03 1.009881984176879901e-04
1.026513256628314139e+03 1.019314580786822287e-04
1.027413706853426675e+03 1.026724005466287651e-04
1.028314157078539210e+03 1.033566336244125727e-04
1.029214607303651746e+03 1.045398500781444967e-04
1.030115057528764282e+03 1.065877434990951638e-04
1.031015507753876818e+03 1.093749541947780008e-04
1.031915957978989354e+03 1.127416284805418569e-04
1.032816408204101890e+03 1.164501657335295187e-04
1.033716858429214653e+03 1.200683377828630711e-04
1.034617308654327189e+03 1.235573659525262267e-04
1.035517758879439725e+03 1.274094199388294099e-04
1.036418209104552261e+03 1.318428971649463269e-04
1.037318659329664797e+03 1.364726257966683684e-04
1.038219109554777333e+03 1.409904494058217099e-04
1.039119559779889869e+03 1.455308756836030742e-04
1.040020010005002405e+03 1.500291397803464870e-04
1.040920460230114941e+03 1.538977726090388193e-04
1.041820910455227477e+03 1.568565142880364233e-04
1.042721360680340013e+03 1.593531815081068205e-04
1.043621810905452776e+03 1.622079657456534376e-04
1.044522261130565312e+03 1.659344272072121927e-04
1.045422711355677848e+03 1.700624200615760847e-04
1.046323161580790384e+03 1.736388168942978860e-04
1.047223611805902920e+03 1.764131741244988024e-04
1.048124062031015455e+03 1.789581497372533887e-04
1.049024512256127991e+03 1.818009620533135335e-04
1.049924962481240527e+03 1.850748038552232683e-04
1.050825412706353063e+03 1.887619734636032285e-04
1.051725862931465599e+03 1.930323553052582148e-04
1.052626313156578135e+03 1.982472043412994705e-04
1.053526763381690898e+03 2.044117453872409625e-04
1.054427213606803434e+03 2.109388519196028744e-04
1.055327663831915970e+03 2.172064539906346978e-04
1.056228114057028506e+03 2.235113248853336644e-04
1.057128564282141042e+03 2.306040813953601817e-04
1.058029014507253578e+03 2.383415221928518262e-04
1.058929464732366114e+03 2.461587376240766839e-04
1.059829914957478650e+03 2.538356972727971706e-04
1.060730365182591186e+03 2.611768748080540211e-04
1.061630815407703722e+03 2.679672458377177816e-04
1.062531265632816257e+03 2.745156199673241923e-04
1.063431715857929021e+03 2.819299020047034499e-04
1.064332166083041557e+03 2.914278420476580276e-04
1.065232616308154093e+03 3.032738460632156434e-04
1.066133066533266629e+03 3.160960861607440978e-04
1.067033516758379164e+03 3.277485633994065483e-04
1.067933966983491700e+03 3.373768287419070394e-04
1.068834417208604236e+03 3.455431748858506149e-04
1.069734867433716772e+03 3.523279503531548309e-04
1.070635317658829308e+03 3.572812322556909539e-04
1.071535767883941844e+03 3.609391420576400192e-04
1.072436218109054380e+03 3.650195150715286781e-04
1.073336668334167143e+03 3.707215278587542282e-04
1.074237118559279679e+03 3.776638423440296303e-04
1.075137568784392215e+03 3.836338193849374279e-04
1.076038019009504751e+03 3.863283852421995962e-04
1.076938469234617287e+03 3.865584012993271640e-04
1.077838919459729823e+03 3.880474135960572846e-04
1.078739369684842359e+03 3.938827380401389530e-04
1.079639819909954895e+03 4.038407939249144540e-04
1.080540270135067431e+03 4.142284389781147554e-04
1.081440720360179967e+03 4.211871093308422898e-04
1.082341170585292502e+03 4.238222719095534352e-04
1.083241620810405038e+03 4.237972159944337729e-04
1.084142071035517802e+03 4.231530514583660570e-04
1.085042521260630338e+03 4.236800445268147533e-04
1.085942971485742873e+03 4.266829850504552722e-04
1.086843421710855409e+03 4.321586271384604441e-04
1.087743871935967945e+03 4.392958482487346818e-04
1.088644322161080481e+03 4.476786361108760150e-04
1.089544772386193017e+03 4.565591738351904819e-04
1.090445222611305553e+03 4.644179116971017198e-04
1.091345672836418089e+03 4.716034917221994345e-04
1.092246123061530625e+03 4.804073884448319337e-04
1.093146573286643161e+03 4.914630814555998950e-04
1.094047023511755924e+03 5.038436206373748472e-04
1.094947473736868460e+03 5.175990966503319322e-04
1.095847923961980996e+03 5.329101976525764265e-04
1.096748374187093532e+03 5.476133465331693099e-04
1.097648824412206068e+03 5.584503312689362677e-04
1.098549274637318604e+03 5.640357410727845754e-04
1.099449724862431140e+03 5.636411953359958928e-04
1.100350175087543676e+03 5.565063295885970974e-04
1.101250625312656211e+03 5.451128327330928168e-04
1.102151075537768747e+03 5.345445671946299918e-04
1.103051525762881283e+03 5.282037328154296331e-04
1.103951975987994047e+03 5.260740197275025820e-04
1.104852426213106583e+03 5.256410807408608060e-04
1.105752876438219118e+03 5.253365980001276601e-04
1.106653326663331654e+03 5.268910502941016004e-04
1.107553776888444190e+03 5.329491079971328390e-04
1.108454227113556726e+03 5.428920037628602547e-04
1.109354677338669262e+03 5.504593665291452470e-04
1.110255127563781798e+03 5.496421957431814635e-04
1.111155577788894334e+03 5.421480922267891403e-04
1.112056028014006870e+03 5.329760195139997920e-04
1.112956478239119406e+03 5.236107738333062268e-04
1.113856928464232169e+03 5.139986578139381888e-04
1.114757378689344705e+03 5.055736713825584273e-04
1.115657828914457241e+03 4.981315198880432787e-04
1.116558279139569777e+03 4.896143566173081444e-04
1.117458729364682313e+03 4.795496412723295214e-04
1.118359179589794849e+03 4.683032636176862658e-04
1.119259629814907385e+03 4.553047684455634918e-04
1.120160080040019920e+03 4.400762260474371359e-04
1.121060530265132456e+03 4.235638253362988262e-04
1.121960980490244992e+03 4.058783284319206902e-04
1.122861430715357528e+03 3.864150422808305084e-04
1.123761880940470292e+03 3.659510860212880135e-04
1.124662331165582827e+03 3.461076570748857243e-04
1.125562781390695363e+03 3.286796002566694718e-04
1.126463231615807899e+03 3.149451325410327425e-04
1.127363681840920435e+03 3.043062928343476009e-04
1.128264132066032971e+03 2.947943734155704615e-04
1.129164582291145507e+03 2.842440568365251895e-04
1.130065032516258043e+03 2.722033010929161118e-04
1.130965482741370579e+03 2.605234879204356346e-04
1.131865932966483115e+03 2.508886730525627397e-04
1.132766383191595651e+03 2.435406919401101244e-04
1.133666833416708187e+03 2.375383547270308452e-04
1.134567283641820950e+03 2.311621229270292128e-04
1.135467733866933486e+03 2.228313486067518316e-04
1.136368184092046022e+03 2.124218079278674483e-04
1.137268634317158558e+03 2.007599620954934763e-04
1.138169084542271094e+03 1.880651929286533144e-04
1.139069534767383630e+03 1.748867345474547006e-04
1.139969984992496165e+03 1.626566003592439902e-04
1.140870435217608701e+03 1.523770374567573764e-04
1.141770885442721237e+03 1.443240377145996005e-04
1.142671335667833773e+03 1.385127762137596951e-04
1.143571785892946309e+03 1.342308342351582152e-04
1.144472236118059072e+03 1.301224981209942529e-04
1.145372686343171608e+03 1.256803660494538262e-04
1.146273136568284144e+03 1.214047159397016256e-04
1.147173586793396680e+03 1.176462008758313545e-04
1.148074037018509216e+03 1.144196645815347726e-04
1.148974487243621752e+03 1.117364745071351380e-04
1.149874937468734288e+03 1.095430388223106867e-04
1.150775387693846824e+03 1.070888114672337418e-04
1.151675837918959360e+03 1.034276575437612588e-04
1.152576288144071896e+03 9.857722890093709265e-05
1.153476738369184432e+03 9.336740302680186202e-05
1.154377188594297195e+03 8.850675327372101013e-05
1.155277638819409731e+03 8.434004070141608279e-05
1.156178089044522267e+03 8.098219897297479299e-05
1.157078539269634803e+03 7.828608642884331899e-05
1.157978989494747339e+03 7.605390609035453267e-05
1.158879439719859874e+03 7.425116778055315431e-05
1.159779889944972410e+03 7.282471565915890697e-05
1.160680340170084946e+03 7.151507737750092714e-05
1.161580790395197482e+03 7.018903390155003955e-05
1.162481240620310018e+03 6.903962667473746717e-05
1.163381690845422554e+03 6.822368605516337687e-05
1.164282141070535317e+03 6.760387599324122528e-05
1.165182591295647853e+03 6.686981394214649738e-05
1.166083041520760389e+03 6.592093661030616408e-05
1.166983491745872925e+03 6.503423436858964081e-05
1.167883941970985461e+03 6.448217404281521791e-05
1.168784392196097997e+03 6.418938960312014271e-05
1.169684842421210533e+03 6.394185908327774471e-05
1.170585292646323069e+03 6.371570423922593113e-05
1.171485742871435605e+03 6.366807568481099911e-05
1.172386193096548141e+03 6.399185043531744124e-05
1.173286643321660677e+03 6.473082056826273733e-05
1.174187093546773440e+03 6.576659141128575513e-05
1.175087543771885976e+03 6.689654763097774705e-05
1.175987993996998512e+03 6.795483972570866618e-05
1.176888444222111048e+03 6.887423344227912986e-05
1.177788894447223583e+03 6.957457424272945289e-05
1.178689344672336119e+03 6.996942992395954503e-05
1.179589794897448655e+03 7.012035782290414589e-05
1.180490245122561191e+03 7.030090758588075888e-05
1.181390695347673727e+03 7.090087188061677847e-05
1.182291145572786263e+03 7.212042102784032530e-05
1.183191595797898799e+03 7.379225930144141720e-05
1.184092046023011562e+03 7.556906310635939288e-05
1.184992496248124098e+03 7.726482122285477166e-05
1.185892946473236634e+03 7.898352935456257030e-05
1.186793396698349170e+03 8.106104094938803390e-05
1.187693846923461706e+03 8.373497919855456490e-05
1.188594297148574242e+03 8.692889948228293279e-05
1.189494747373686778e+03 9.057248493649421256e-05
1.190395197598799314e+03 9.466772898128511971e-05
1.191295647823911850e+03 9.906893714637129533e-05
1.192196098049024386e+03 1.034608464336127096e-04
1.193096548274136921e+03 1.073040978473801019e-04
1.193996998499249457e+03 1.100281831676276964e-04
1.194897448724362221e+03 1.116714122674553175e-04
1.195797898949474757e+03 1.127640906545342061e-04
1.196698349174587293e+03 1.135432179707892523e-04
1.197598799399699828e+03 1.139892441011739756e-04
1.198499249624812364e+03 1.143241844626707496e-04
1.199399699849924900e+03 1.150449646355767170e-04
1.200300150075037436e+03 1.165724287937822275e-04
1.201200600300149972e+03 1.188412066581447622e-04
1.202101050525262508e+03 1.215080905736919955e-04
1.203001500750375044e+03 1.244433383728126398e-04
1.203901950975487580e+03 1.277271127726219483e-04
1.204802401200600343e+03 1.313265275703021919e-04
1.205702851425712879e+03 1.349709731844590886e-04
1.206603301650825415e+03 1.386759854745461742e-04
1.207503751875937951e+03 1.428293448650963841e-04
1.208404202101050487e+03 1.474151538748699828e-04
1.209304652326163023e+03 1.521412044032392948e-04
1.210205102551275559e+03 1.568839821147286493e-04
1.211105552776388095e+03 1.614083906629726307e-04
1.212006003001500630e+03 1.650475947501751689e-04
1.212906453226613166e+03 1.670118109659396422e-04
1.213806903451725702e+03 1.670907296956721866e-04
1.214707353676838466e+03 1.656539642608687512e-04
1.215607803901951002e+03 1.631744021468484890e-04
1.216508254127063537e+03 1.605331137919805882e-04
1.217408704352176073e+03 1.588521958187552976e-04
1.218309154577288609e+03 1.585585343389053390e-04
1.219209604802401145e+03 1.591989922992123792e-04
1.220110055027513681e+03 1.601542860614662612e-04
1.221010505252626217e+03 1.615648370490398362e-04
1.221910955477738753e+03 1.642754504823368126e-04
1.222811405702851289e+03 1.685845544686700038e-04
1.223711855927963825e+03 1.739236689936404410e-04
1.224612306153076588e+03 1.797427424041924716e-04
1.225512756378189124e+03 1.856301007143096641e-04
1.226413206603301660e+03 1.913319780657812667e-04
1.227313656828414196e+03 1.971938770086948810e-04
1.228214107053526732e+03 2.039010216898130162e-04
1.229114557278639268e+03 2.120881787643113300e-04
1.230015007503751804e+03 2.220202726765453433e-04
1.230915457728864340e+03 2.334473478847990822e-04
1.231815907953976875e+03 2.458409662636705756e-04
1.232716358179089411e+03 2.590935644531808723e-04
1.233616808404201947e+03 2.736103540731215484e-04
1.234517258629314711e+03 2.895311044255407954e-04
1.235417708854427246e+03 3.066917604798401198e-04
1.236318159079539782e+03 3.245185852264655265e-04
1.237218609304652318e+03 3.421815007571292803e-04
1.238119059529764854e+03 3.592271918487117705e-04
1.239019509754877390e+03 3.757371444436595725e-04
1.239919959979989926e+03 3.917243353228892257e-04
1.240820410205102462e+03 4.074887054451103801e-04
1.241720860430214998e+03 4.243101766608252455e-04
1.242621310655327534e+03 4.432906400714619168e-04
1.243521760880440070e+03 4.641268530218064375e-04
1.244422211105552606e+03 4.838948638469502562e-04
1.245322661330665369e+03 4.995822869009443421e-04
1.246223111555777905e+03 5.115830705697562266e-04
1.247123561780890441e+03 5.215220371464062430e-04
1.248024012006002977e+03 5.301790791077394364e-04
1.248924462231115513e+03 5.385043545316328716e-04
1.249824912456228049e+03 5.473996144613195620e-04
1.250725362681340584e+03 5.557538404008195492e-04
1.251625812906453120e+03 5.607440077859954372e-04
1.252526263131565656e+03 5.607427111802695471e-04
1.253426713356678192e+03 5.563312951859678696e-04
1.254327163581790728e+03 5.494801989444395669e-04
1.255227613806903491e+03 5.424660994627754926e-04
1.256128064032016027e+03 5.372240380169500396e-04
1.257028514257128563e+03 5.344836193184665041e-04
1.257928964482241099e+03 5.331046285025448864e-04
1.258829414707353635e+03 5.316391728790653215e-04
1.259729864932466171e+03 5.297822215641078986e-04
1.260630315157578707e+03 5.289939735826013198e-04
1.261530765382691243e+03 5.309351878576762038e-04
1.262431215607803779e+03 5.353708494163001742e-04
1.263331665832916315e+03 5.412198005721585974e-04
1.264232116058028851e+03 5.482636144633597566e-04
1.265132566283141614e+03 5.566721973876924802e-04
1.266033016508254150e+03 5.661355940187385487e-04
1.266933466733366686e+03 5.762676851864743889e-04
1.267833916958479222e+03 5.870030663564808609e-04
1.268734367183591758e+03 5.986497460653173071e-04
1.269634817408704293e+03 6.114325416257596199e-04
1.270535267633816829e+03 6.247976933166735644e-04
1.271435717858929365e+03 6.376353821368986249e-04
1.272336168084041901e+03 6.489578169859005086e-04
1.273236618309154437e+03 6.585423894923252445e-04
1.274137068534266973e+03 6.675395351029136731e-04
1.275037518759379736e+03 6.777552372914361122e-04
1.275937968984492272e+03 6.907540205910096039e-04
1.276838419209604808e+03 7.063082010952890762e-04
1.277738869434717344e+03 7.220971411180562545e-04
1.278639319659829880e+03 7.358856475582198613e-04
1.279539769884942416e+03 7.469486211132998895e-04
1.280440220110054952e+03 7.560909968583317273e-04
1.281340670335167488e+03 7.640966783878596919e-04
1.282241120560280024e+03 7.717265670831060902e-04
1.283141570785392560e+03 7.809161838089314972e-04
1.284042021010505096e+03 7.933876297791679416e-04
1.284942471235617859e+03 8.089459914923751143e-04
1.285842921460730395e+03 8.257117074924476795e-04
1.286743371685842931e+03 8.419688593512013233e-04
1.287643821910955467e+03 8.566033027138981624e-04
1.288544272136068003e+03 8.690107307217227435e-04
1.289444722361180538e+03 8.791757922753401120e-04
1.290345172586293074e+03 8.878173138726570867e-04
1.291245622811405610e+03 8.963318258774505146e-04
1.292146073036518146e+03 9.058517231618971703e-04
1.293046523261630682e+03 9.172047000457643267e-04
1.293946973486743218e+03 9.310590089768041406e-04
1.294847423711855754e+03 9.468424745371996137e-04
1.295747873936968517e+03 9.623475045456160145e-04
1.296648324162081053e+03 9.749822812677360956e-04
1.297548774387193589e+03 9.832214871387063779e-04
1.298449224612306125e+03 9.871898287629977606e-04
1.299349674837418661e+03 9.891651657006814407e-04
1.300250125062531197e+03 9.930274612479866956e-04
1.301150575287643733e+03 1.001236531750525523e-03
1.302051025512756269e+03 1.013105405082544369e-03
1.302951475737868805e+03 1.026304898130632817e-03
1.303851925962981340e+03 1.039651247487242665e-03
1.304752376188093876e+03 1.053775647679408437e-03
1.305652826413206640e+03 1.068917419603984979e-03
1.306553276638319176e+03 1.084344148564231119e-03
1.307453726863431712e+03 1.099895614679255017e-03
1.308354177088544247e+03 1.116202820881855061e-03
1.309254627313656783e+03 1.133820924146494366e-03
1.310155077538769319e+03 1.153755685989428037e-03
1.311055527763881855e+03 1.177396341234888478e-03
1.311955977988994391e+03 1.206168347373784769e-03
1.312856428214106927e+03 1.241390408354132394e-03
1.313756878439219463e+03 1.282749105816673478e-03
1.314657328664331999e+03 1.326958176690780540e-03
1.315557778889444762e+03 1.370686525665913008e-03
1.316458229114557298e+03 1.413737243511702969e-03
1.317358679339669834e+03 1.455564039879371193e-03
1.318259129564782370e+03 1.493993153966186472e-03
1.319159579789894906e+03 1.529380480245464812e-03
1.320060030015007442e+03 1.566776352722103888e-03
1.320960480240119978e+03 1.613184269601089862e-03
1.321860930465232514e+03 1.671355069211304459e-03
1.322761380690345050e+03 1.738932559228644620e-03
1.323661830915457585e+03 1.812444878121413552e-03
1.324562281140570121e+03 1.887716351005313143e-03
1.325462731365682885e+03 1.959430163702514070e-03
1.326363181590795421e+03 2.024499529068489456e-03
1.327263631815907956e+03 2.083105640519058391e-03
1.328164082041020492e+03 2.137211506004829589e-03
1.329064532266133028e+03 2.188369984022432452e-03
1.329964982491245564e+03 2.237831206211507093e-03
1.330865432716358100e+03 2.288256240513272290e-03
1.331765882941470636e+03 2.341547310677940651e-03
1.332666333166583172e+03 2.399610970006565459e-03
1.333566783391695708e+03 2.465982076930131345e-03
1.334467233616808244e+03 2.543955383512399443e-03
1.335367683841921007e+03 2.634738379581450657e-03
1.336268134067033543e+03 2.737918806903725036e-03
1.337168584292146079e+03 2.850924898942734827e-03
1.338069034517258615e+03 2.967369743783415149e-03
1.338969484742371151e+03 3.082664867028280051e-03
1.339869934967483687e+03 3.200541565385476173e-03
1.340770385192596223e+03 3.327008837123133188e-03
1.341670835417708759e+03 3.459156180298885320e-03
1.342571285642821294e+03 3.585253373678144034e-03
1.343471735867933830e+03 3.694499713103231806e-03
1.344372186093046366e+03 3.782873520030049803e-03
1.345272636318158902e+03 3.855509285500940183e-03
1.346173086543271666e+03 3.927366040035299571e-03
1.347073536768384201e+03 4.007354376376926451e-03
1.347973986993496737e+03 4.094220954257667654e-03
1.348874437218609273e+03 4.195702249121768292e-03
1.349774887443721809e+03 4.322103919880595189e-03
1.350675337668834345e+03 4.467677293469660658e-03
1.351575787893946881e+03 4.618041163958206199e-03
1.352476238119059417e+03 4.765596934268223964e-03
1.353376688344171953e+03 4.913950000872783011e-03
1.354277138569284489e+03 5.073244810505943801e-03
1.355177588794397025e+03 5.255706997458055134e-03
1.356078039019509788e+03 5.472060079025797136e-03
1.356978489244622324e+03 5.726267809081898863e-03
1.357878939469734860e+03 6.011468190530061192e-03
1.358779389694847396e+03 6.320423615820054165e-03
1.359679839919959932e+03 6.646116805789313402e-03
1.360580290145072468e+03 6.976291398931707029e-03
1.361480740370185003e+03 7.303227660541038342e-03
1.362381190595297539e+03 7.613697170740501598e-03
1.363281640820410075e+03 7.881896429473018995e-03
1.364182091045522611e+03 8.104412086459606909e-03
1.365082541270635147e+03 8.320724584954612355e-03
1.365982991495747910e+03 8.585202654820068072e-03
1.366883441720860446e+03 8.912961546084063880e-03
1.367783891945972982e+03 9.275510354689634265e-03
1.368684342171085518e+03 9.652759160987714818e-03
1.369584792396198054e+03 1.006234792131580243e-02
1.370485242621310590e+03 1.053515913009401769e-02
1.371385692846423126e+03 1.108410596151271355e-02
1.372286143071535662e+03 1.170891594089559611e-02
1.373186593296648198e+03 1.238872471137969153e-02
1.374087043521760734e+03 1.310024162831461246e-02
1.374987493746873270e+03 1.386030456854120407e-02
1.375887943971986033e+03 1.471937700805411517e-02
1.376788394197098569e+03 1.573001944773334826e-02
1.377688844422211105e+03 1.692287970092077806e-02
1.378589294647323641e+03 1.828655674795608838e-02
1.379489744872436177e+03 1.973139181027121561e-02
1.380390195097548713e+03 2.115513529353973271e-02
1.381290645322661248e+03 2.252513508351169924e-02
1.382191095547773784e+03 2.385730802978807200e-02
1.383091545772886320e+03 2.522397746623224538e-02
1.383991995997998856e+03 2.673646140523973716e-02
1.384892446223111392e+03 2.839234886834433869e-02
1.385792896448224155e+03 3.010133939603351280e-02
1.386693346673336691e+03 3.187202566999751407e-02
1.387593796898449227e+03 3.376434206916559266e-02
1.388494247123561763e+03 3.580330742788104259e-02
1.389394697348674299e+03 3.796735243968711593e-02
1.390295147573786835e+03 4.019953122999687239e-02
1.391195597798899371e+03 4.256052973660057193e-02
1.392096048024011907e+03 4.510986748920427919e-02
1.392996498249124443e+03 4.770760670868583880e-02
1.393896948474236979e+03 5.027776088017810174e-02
1.394797398699349515e+03 5.290421795070523320e-02
1.395697848924462278e+03 5.553215917096737675e-02
1.396598299149574814e+03 5.785784456650929636e-02
1.397498749374687350e+03 5.942264472707791539e-02
1.398399199599799886e+03 5.974523543514999313e-02
1.399299649824912422e+03 5.850631202648857304e-02
1.400200100050024957e+03 5.577101858662597555e-02
1.401100550275137493e+03 5.195271787760170901e-02
1.402001000500250029e+03 4.753397533111248380e-02
1.402901450725362565e+03 4.292800512650508937e-02
1.403801900950475101e+03 3.845262961419949888e-02
1.404702351175587637e+03 3.421429099401149254e-02
1.405602801400700173e+03 3.024059603611854372e-02
1.406503251625812936e+03 2.664842480185469417e-02
1.407403701850925472e+03 2.350291300788453705e-02
1.408304152076038008e+03 2.076758267382991519e-02
1.409204602301150544e+03 1.841526115694507026e-02
1.410105052526263080e+03 1.642537597940885857e-02
1.411005502751375616e+03 1.474153285663494690e-02
1.411905952976488152e+03 1.329608065089705506e-02
1.412806403201600688e+03 1.204492812245394617e-02
1.413706853426713224e+03 1.095332578239918524e-02
1.414607303651825760e+03 1.000300104052369646e-02
1.415507753876938295e+03 9.180435432751639022e-03
1.416408204102051059e+03 8.444914248829649139e-03
1.417308654327163595e+03 7.760628748479808832e-03
1.418209104552276131e+03 7.126901004824935312e-03
1.419109554777388666e+03 6.559441549654879827e-03
1.420010005002501202e+03 6.064266961639850663e-03
1.420910455227613738e+03 5.633911935475392589e-03
1.421810905452726274e+03 5.254804773990594778e-03
1.422711355677838810e+03 4.915140391407870658e-03
1.423611805902951346e+03 4.610444671252192719e-03
1.424512256128063882e+03 4.341624983488721543e-03
1.425412706353176418e+03 4.107114743301028617e-03
1.426313156578289181e+03 3.900977826929230303e-03
1.427213606803401717e+03 3.718409267298947076e-03
1.428114057028514253e+03 3.557926372067755395e-03
1.429014507253626789e+03 3.415488302667863373e-03
1.429914957478739325e+03 3.280406343148420736e-03
1.430815407703851861e+03 3.148293905319096090e-03
1.431715857928964397e+03 3.026654999880926903e-03
1.432616308154076933e+03 2.919324354886624912e-03
1.433516758379189469e+03 2.822109224399051153e-03
1.434417208604302004e+03 2.732214949442928961e-03
1.435317658829414540e+03 2.648759352051369489e-03
1.436218109054527304e+03 2.566918798440964451e-03
1.437118559279639840e+03 2.480988284625239119e-03
1.438019009504752376e+03 2.392758763468338934e-03
1.438919459729864911e+03 2.309864132976720361e-03
1.439819909954977447e+03 2.239115344842377599e-03
1.440720360180089983e+03 2.180304174750756496e-03
1.441620810405202519e+03 2.125603679658143782e-03
1.442521260630315055e+03 2.066193961857809569e-03
1.443421710855427591e+03 2.001284110544312728e-03
1.444322161080540127e+03 1.936765736596511665e-03
1.445222611305652663e+03 1.876565760863961206e-03
1.446123061530765426e+03 1.820030478398739718e-03
1.447023511755877962e+03 1.765323453170194144e-03
1.447923961980990498e+03 1.711850115385933667e-03
1.448824412206103034e+03 1.660246673630636069e-03
1.449724862431215570e+03 1.613207692635060817e-03
1.450625312656328106e+03 1.573625734245482277e-03
1.451525762881440642e+03 1.539237892104784516e-03
1.452426213106553178e+03 1.504526353890087544e-03
1.453326663331665713e+03 1.467315609275492106e-03
1.454227113556778249e+03 1.430254330410966326e-03
1.455127563781890785e+03 1.397492860497306401e-03
1.456028014007003321e+03 1.369553691080877770e-03
1.456928464232116085e+03 1.343133364864996116e-03
1.457828914457228620e+03 1.315191764122343151e-03
1.458729364682341156e+03 1.286012595458454685e-03
1.459629814907453692e+03 1.258467951493877270e-03
1.460530265132566228e+03 1.234417711017357427e-03
1.461430715357678764e+03 1.212734792057071440e-03
1.462331165582791300e+03 1.191128711693495218e-03
1.463231615807903836e+03 1.167781869306749095e-03
1.464132066033016372e+03 1.140721997462914054e-03
1.465032516258128908e+03 1.108796323113110270e-03
1.465932966483241444e+03 1.074317495163607796e-03
1.466833416708354207e+03 1.041360662231504298e-03
1.467733866933466743e+03 1.012026192442899361e-03
1.468634317158579279e+03 9.848374282227668336e-04
1.469534767383691815e+03 9.568640892460422839e-04
1.470435217608804351e+03 9.277157996964566960e-04
1.471335667833916887e+03 9.003235024510796228e-04
1.472236118059029423e+03 8.773022860937949733e-04
1.473136568284141958e+03 8.582086006906831281e-04
1.474037018509254494e+03 8.409687938688023903e-04
1.474937468734367030e+03 8.241339524992366073e-04
1.475837918959479566e+03 8.079302028695825675e-04
1.476738369184592329e+03 7.935854715599682373e-04
1.477638819409704865e+03 7.806047725851341691e-04
1.478539269634817401e+03 7.667918354730121275e-04
1.479439719859929937e+03 7.512019878709738857e-04
1.480340170085042473e+03 7.353313062707477876e-04
1.481240620310155009e+03 7.208860505126950561e-04
1.482141070535267545e+03 7.081818583030706537e-04
1.483041520760380081e+03 6.978490983701832618e-04
1.483941970985492617e+03 6.899893072319591763e-04
1.484842421210605153e+03 6.820437423553276160e-04
1.485742871435717689e+03 6.707946395073410189e-04
1.486643321660830452e+03 6.560500721979161927e-04
1.487543771885942988e+03 6.402132122040730434e-04
1.488444222111055524e+03 6.252127211331402800e-04
1.489344672336168060e+03 6.118616552063584632e-04
1.490245122561280596e+03 6.004419332614984155e-04
1.491145572786393132e+03 5.905126715161078703e-04
1.492046023011505667e+03 5.805667728136362435e-04
1.492946473236618203e+03 5.704215318202454947e-04
1.493846923461730739e+03 5.621132841758188798e-04
1.494747373686843275e+03 5.567970331574806017e-04
1.495647823911955811e+03 5.534178771739565756e-04
1.496548274137068574e+03 5.503863245905562954e-04
1.497448724362181110e+03 5.469710828651407931e-04
1.498349174587293646e+03 5.435437851749692689e-04
1.499249624812406182e+03 5.407775557371000998e-04
1.500150075037518718e+03 5.377005446049978226e-04
1.501050525262631254e+03 5.328195404062899439e-04
1.501950975487743790e+03 5.267843121085294270e-04
1.502851425712856326e+03 5.212301894066191004e-04
1.503751875937968862e+03 5.172741317892517879e-04
1.504652326163081398e+03 5.154464773820692297e-04
1.505552776388193934e+03 5.152590419730085185e-04
1.506453226613306470e+03 5.153011778163894526e-04
1.507353676838419233e+03 5.136567665074066218e-04
1.508254127063531769e+03 5.092036448303478196e-04
1.509154577288644305e+03 5.027531601535371224e-04
1.510055027513756841e+03 4.953233129154980792e-04
1.510955477738869376e+03 4.867259669237426517e-04
1.511855927963981912e+03 4.768724603597352340e-04
1.512756378189094448e+03 4.664209532147383665e-04
1.513656828414206984e+03 4.559046054608654488e-04
1.514557278639319520e+03 4.446915833128001227e-04
1.515457728864432056e+03 4.322157901709498926e-04
1.516358179089544592e+03 4.197293261444925224e-04
1.517258629314657355e+03 4.095463805640676708e-04
1.518159079539769891e+03 4.023219626753363914e-04
1.519059529764882427e+03 3.968847978834044916e-04
1.519959979989994963e+03 3.923572150126218810e-04
1.520860430215107499e+03 3.885352881977763729e-04
1.521760880440220035e+03 3.853562409836294830e-04
1.522661330665332571e+03 3.826100336460637702e-04
1.523561780890445107e+03 3.795614367017342296e-04
1.524462231115557643e+03 3.754078635793720942e-04
1.525362681340670179e+03 3.705333897159343126e-04
1.526263131565782714e+03 3.665780746031016904e-04
1.527163581790895478e+03 3.643160122139738099e-04
1.528064032016008014e+03 3.629472633027038789e-04
1.528964482241120550e+03 3.617600277375375060e-04
1.529864932466233086e+03 3.605382531422084581e-04
1.530765382691345621e+03 3.583234750644420132e-04
1.531665832916458157e+03 3.541459882994467206e-04
1.532566283141570693e+03 3.486451263770305514e-04
1.533466733366683229e+03 3.435007062971215928e-04
1.534367183591795765e+03 3.400737512950125657e-04
1.535267633816908301e+03 3.383184457261024527e-04
1.536168084042020837e+03 3.371604787355578464e-04
1.537068534267133600e+03 3.365474134117921331e-04
1.537968984492246136e+03 3.377818048005300352e-04
1.538869434717358672e+03 3.412297870383888018e-04
1.539769884942471208e+03 3.455497077769318520e-04
1.540670335167583744e+03 3.493199714305588854e-04
1.541570785392696280e+03 3.518535420756611670e-04
1.542471235617808816e+03 3.532132187062098885e-04
1.543371685842921352e+03 3.543530175058647188e-04
1.544272136068033888e+03 3.559366792696778341e-04
1.545172586293146423e+03 3.572985868668999455e-04
1.546073036518258959e+03 3.576288054864682950e-04
1.546973486743371723e+03 3.570378079499982905e-04
1.547873936968484259e+03 3.560807905559849255e-04
1.548774387193596795e+03 3.552123436111659827e-04
1.549674837418709330e+03 3.546694877390881603e-04
1.550575287643821866e+03 3.549528880586525609e-04
1.551475737868934402e+03 3.563264590282128096e-04
1.552376188094046938e+03 3.578499407883030912e-04
1.553276638319159474e+03 3.579053149128930676e-04
1.554177088544272010e+03 3.563063427749955893e-04
1.555077538769384546e+03 3.548576478303495669e-04
1.555977988994497082e+03 3.555058437229929934e-04
1.556878439219609618e+03 3.591396140213465359e-04
1.557778889444722381e+03 3.655061006605243292e-04
1.558679339669834917e+03 3.742093133462529920e-04
1.559579789894947453e+03 3.856717988353589466e-04
1.560480240120059989e+03 4.003217104432162240e-04
1.561380690345172525e+03 4.180442034222158236e-04
1.562281140570285061e+03 4.379607963889918499e-04
1.563181590795397597e+03 4.583510287204309980e-04
1.564082041020510133e+03 4.775913201033538460e-04
1.564982491245622668e+03 4.949203598278977684e-04
1.565882941470735204e+03 5.091932240150590138e-04
1.566783391695847740e+03 5.166647918479836798e-04
1.567683841920960504e+03 5.128119329817784839e-04
1.568584292146073039e+03 4.952625821231037380e-04
1.569484742371185575e+03 4.634365744968612288e-04
1.570385192596298111e+03 4.200671773816919510e-04
1.571285642821410647e+03 3.715724853737720711e-04
1.572186093046523183e+03 3.239107779911730651e-04
1.573086543271635719e+03 2.806164538504609274e-04
1.573986993496748255e+03 2.430218684064379354e-04
1.574887443721860791e+03 2.106946839886906229e-04
1.575787893946973327e+03 1.829150557850725176e-04
1.576688344172085863e+03 1.596016330281501002e-04
1.577588794397198626e+03 1.407519666120733909e-04
1.578489244622311162e+03 1.259343741074543427e-04
1.579389694847423698e+03 1.143891855103745369e-04
1.580290145072536234e+03 1.053156071881695797e-04
1.581190595297648770e+03 9.805732995841563834e-05
1.582091045522761306e+03 9.213466031315273037e-05
1.582991495747873842e+03 8.720968699125806838e-05
1.583891945972986377e+03 8.304448442176957023e-05
1.584792396198098913e+03 7.946914794621497905e-05
1.585692846423211449e+03 7.636004538592033061e-05
1.586593296648323985e+03 7.362545548058045848e-05
1.587493746873436749e+03 7.119607030181856653e-05
1.588394197098549284e+03 6.901862887078557402e-05
1.589294647323661820e+03 6.705157310001375374e-05
1.590195097548774356e+03 6.526202758920480540e-05
1.591095547773886892e+03 6.362366112990807299e-05
1.591995997998999428e+03 6.211514624007816350e-05
1.592896448224111964e+03 6.071903164582761342e-05
1.593796898449224500e+03 5.942090480379410048e-05
1.594697348674337036e+03 5.820876140972818408e-05
1.595597798899449572e+03 5.707252482313702140e-05
1.596498249124562108e+03 5.600367556962352326e-05
1.597398699349674871e+03 5.499496269835580921e-05
1.598299149574787407e+03 5.404017672451356073e-05
1.599199599799899943e+03 5.313396941097493623e-05
1.600100050025012479e+03 5.227170953407690013e-05
1.601000500250125015e+03 5.144936655347987213e-05
1.601900950475237551e+03 5.066341610957188110e-05
1.602801400700350086e+03 4.991076273433717804e-05
1.603701850925462622e+03 4.918867624048175411e-05
1.604602301150575158e+03 4.849473905730524332e-05
1.605502751375687694e+03 4.782680238605417796e-05
1.606403201600800230e+03 4.718294950570792862e-05
1.607303651825912766e+03 4.656146491050978557e-05
1.608204102051025529e+03 4.596080823043710632e-05
1.609104552276138065e+03 4.537959209526723194e-05
1.610005002501250601e+03 4.481656326654629222e-05
1.610905452726363137e+03 4.427058649046093419e-05
1.611805902951475673e+03 4.374063062644387834e-05
1.612706353176588209e+03 4.322575668739735215e-05
1.613606803401700745e+03 4.272510749225644423e-05
1.614507253626813281e+03 4.223789868382379171e-05
1.615407703851925817e+03 4.176341090696646563e-05
1.616308154077038353e+03 4.130098297657399937e-05
1.617208604302150889e+03 4.085000589262965633e-05
1.618109054527263652e+03 4.040991758269686884e-05
1.619009504752376188e+03 3.998019827100085451e-05
1.619909954977488724e+03 3.956036638887982788e-05
1.620810405202601260e+03 3.914997495434508119e-05
1.621710855427713796e+03 3.874860835925305854e-05
1.622611305652826331e+03 3.835587951161847692e-05
1.623511755877938867e+03 3.797142728814457692e-05
1.624412206103051403e+03 3.759491425840827801e-05
1.625312656328163939e+03 3.722602464750591838e-05
1.626213106553276475e+03 3.686446250850325526e-05
1.627113556778389011e+03 3.650995007989569596e-05
1.628014007003501774e+03 3.616222630656635195e-05
1.628914457228614310e+03 3.582104550553593211e-05
1.629814907453726846e+03 3.548617616019770842e-05
1.630715357678839382e+03 3.515739982879424128e-05
1.631615807903951918e+03 3.483451015465936703e-05
1.632516258129064454e+03 3.451731196729079462e-05
1.633416708354176990e+03 3.420562046462680909e-05
1.634317158579289526e+03 3.389926046805121602e-05
1.635217608804402062e+03 3.359806574265419219e-05
1.636118059029514598e+03 3.330187837612493305e-05
1.637018509254627133e+03 3.301054821042549123e-05
1.637918959479739897e+03 3.272393232103983345e-05
1.638819409704852433e+03 3.244189453917704257e-05
1.639719859929964969e+03 3.216430501281159697e-05
1.640620310155077505e+03 3.189103980289363020e-05
1.641520760380190040e+03 3.162198051144311675e-05
1.642421210605302576e+03 3.135701393859784619e-05
1.643321660830415112e+03 3.109603176598457248e-05
1.644222111055527648e+03 3.083893026405372151e-05
1.645122561280640184e+03 3.058561002125945096e-05
1.646023011505752720e+03 3.033597569317269941e-05
1.646923461730865256e+03 3.008993576981334491e-05
1.647823911955978019e+03 2.984740235964590039e-05
1.648724362181090555e+03 2.960829098883961362e-05
1.649624812406203091e+03 2.937252041452314039e-05
1.650525262631315627e+03 2.914001245088846699e-05
1.651425712856428163e+03 2.891069180709862307e-05
1.652326163081540699e+03 2.868448593605722321e-05
1.653226613306653235e+03 2.846132489317925178e-05
1.654127063531765771e+03 2.824114120437897237e-05
1.655027513756878307e+03 2.802386974256765187e-05
1.655927963981990843e+03 2.780944761200581785e-05
1.656828414207103378e+03 2.759781403991945348e-05
1.657728864432216142e+03 2.738891027483960472e-05
1.658629314657328678e+03 2.718267949116658856e-05
1.659529764882441214e+03 2.697906669950601597e-05
1.660430215107553749e+03 2.677801866236022811e-05
1.661330665332666285e+03 2.657948381479522434e-05
1.662231115557778821e+03 2.638341218972709113e-05
1.663131565782891357e+03 2.618975534751298800e-05
1.664032016008003893e+03 2.599846630954125051e-05
1.664932466233116429e+03 2.580949949555756573e-05
1.665832916458228965e+03 2.562281066446494513e-05
1.666733366683341501e+03 2.543835685837521297e-05
1.667633816908454037e+03 2.525609634968779721e-05
1.668534267133566800e+03 2.507598859100772064e-05
1.669434717358679336e+03 2.489799416771039723e-05
1.670335167583791872e+03 2.472207475299103015e-05
1.671235617808904408e+03 2.454819306523499533e-05
1.672136068034016944e+03 2.437631282757079848e-05
1.673036518259129480e+03 2.420639872946386993e-05
1.673936968484242016e+03 2.403841639022927536e-05
1.674837418709354552e+03 2.387233232434780704e-05
1.675737868934467087e+03 2.370811390847364400e-05
1.676638319159579623e+03 2.354572935003593505e-05
1.677538769384692159e+03 2.338514765733930818e-05
1.678439219609804923e+03 2.322633861107622816e-05
1.679339669834917459e+03 2.306927273716904324e-05
1.680240120060029994e+03 2.291392128086664029e-05
1.681140570285142530e+03 2.276025618202511631e-05
1.682041020510255066e+03 2.260825005150290145e-05
1.682941470735367602e+03 2.245787614861462916e-05
1.683841920960480138e+03 2.230910835957925018e-05
1.684742371185592674e+03 2.216192117691226983e-05
1.685642821410705210e+03 2.201628967971016169e-05
1.686543271635817746e+03 2.187218951477863955e-05
1.687443721860930282e+03 2.172959687856205991e-05
1.688344172086043045e+03 2.158848849982936041e-05
1.689244622311155581e+03 2.144884162308077248e-05
1.690145072536268117e+03 2.131063399263472181e-05
1.691045522761380653e+03 2.117384383736272590e-05
1.691945972986493189e+03 2.103844985603942053e-05
1.692846423211605725e+03 2.090443120327538219e-05
1.693746873436718261e+03 2.077176747600677635e-05
1.694647323661830796e+03 2.064043870051088451e-05
1.695547773886943332e+03 2.051042531992597494e-05
1.696448224112055868e+03 2.038170818224845283e-05
1.697348674337168404e+03 2.025426852878475185e-05
1.698249124562281168e+03 2.012808798303857363e-05
1.699149574787393703e+03 2.000314854001061869e-05
1.700050025012506239e+03 1.987943255589304147e-05
1.700950475237618775e+03 1.975692273814125185e-05
1.701850925462731311e+03 1.963560213590304586e-05
1.702751375687843847e+03 1.951545413079143541e-05
1.703651825912956383e+03 1.939646242798686527e-05
1.704552276138068919e+03 1.927861104764968476e-05
1.705452726363181455e+03 1.916188431663388191e-05
1.706353176588293991e+03 1.904626686048656255e-05
1.707253626813406527e+03 1.893174359572156979e-05
1.708154077038519290e+03 1.881829972235494190e-05
1.709054527263631826e+03 1.870592071669197604e-05
1.709954977488744362e+03 1.859459232435410077e-05
1.710855427713856898e+03 1.848430055353747628e-05
1.711755877938969434e+03 1.837503166849097962e-05
1.712656328164081970e+03 1.826677218320765580e-05
1.713556778389194506e+03 1.815950885531780675e-05
1.714457228614307041e+03 1.805322868017855800e-05
1.715357678839419577e+03 1.794791888514995229e-05
1.716258129064532113e+03 1.784356692405131200e-05
1.717158579289644649e+03 1.774016047178978312e-05
1.718059029514757185e+03 1.763768741915519244e-05
1.718959479739869948e+03 1.753613586777438070e-05
1.719859929964982484e+03 1.743549412521977704e-05
1.720760380190095020e+03 1.733575070026419169e-05
1.721660830415207556e+03 1.723689429827836758e-05
1.722561280640320092e+03 1.713891381676554802e-05
1.723461730865432628e+03 1.704179834102711422e-05
1.724362181090545164e+03 1.694553713995535909e-05
1.725262631315657700e+03 1.685011966194748502e-05
1.726163081540770236e+03 1.675553553093859959e-05
1.727063531765882772e+03 1.666177454254748531e-05
1.727963981990995308e+03 1.656882666033172120e-05
1.728864432216108071e+03 1.647668201214756893e-05
1.729764882441220607e+03 1.638533088661349164e-05
1.730665332666333143e+03 1.629476372966996353e-05
1.731565782891445679e+03 1.620497114123489927e-05
1.732466233116558215e+03 1.611594387195060363e-05
1.733366683341670750e+03 1.602767282001962232e-05
1.734267133566783286e+03 1.594014902812425596e-05
1.735167583791895822e+03 1.585336368043075699e-05
1.736068034017008358e+03 1.576730809967185685e-05
1.736968484242120894e+03 1.568197374430649506e-05
1.737868934467233430e+03 1.559735220575493431e-05
1.738769384692346193e+03 1.551343520570506356e-05
1.739669834917458729e+03 1.543021459348876764e-05
1.740570285142571265e+03 1.534768234352601216e-05
1.741470735367683801e+03 1.526583055283442771e-05
1.742371185592796337e+03 1.518465143860089522e-05
1.743271635817908873e+03 1.510413733581663162e-05
1.744172086043021409e+03 1.502428069496899631e-05
1.745072536268133945e+03 1.494507407979306081e-05
1.745972986493246481e+03 1.486651016507754609e-05
1.746873436718359017e+03 1.478858173452475828e-05
1.747773886943471553e+03 1.471128167866394159e-05
1.748674337168584316e+03 1.463460299281384057e-05
1.749574787393696852e+03 1.455853877509576573e-05
1.750475237618809388e+03 1.448308222449368826e-05
1.751375687843921924e+03 1.440822663896065038e-05
1.752276138069034459e+03 1.433396541357054626e-05
1.753176588294146995e+03 1.426029203871335060e-05
1.754077038519259531e+03 1.418720009833187727e-05
1.754977488744372067e+03 1.411468326820106912e-05
1.755877938969484603e+03 1.404273531424647666e-05
1.756778389194597139e+03 1.397135009090101920e-05
1.757678839419709675e+03 1.390052153950007093e-05
1.758579289644822438e+03 1.383024368671327080e-05
1.759479739869934974e+03 1.376051064301159797e-05
1.760380190095047510e+03 1.369131660116849272e-05
1.761280640320160046e+03 1.362265583479571600e-05
1.762181090545272582e+03 1.355452269691125557e-05
1.763081540770385118e+03 1.348691161853861639e-05
1.763981990995497654e+03 1.341981710733772574e-05
1.764882441220610190e+03 1.335323374626598415e-05
1.765782891445722726e+03 1.328715619226762761e-05
1.766683341670835262e+03 1.322157917499249033e-05
1.767583791895947797e+03 1.315649749554227395e-05
1.768484242121060333e+03 1.309190602524348312e-05
1.769384692346173097e+03 1.302779970444657335e-05
1.770285142571285633e+03 1.296417354135140597e-05
1.771185592796398169e+03 1.290102261085695878e-05
1.772086043021510704e+03 1.283834205343491113e-05
1.772986493246623240e+03 1.277612707402814025e-05
1.773886943471735776e+03 1.271437294097106935e-05
1.774787393696848312e+03 1.265307498493265180e-05
1.775687843921960848e+03 1.259222859788192031e-05
1.776588294147073384e+03 1.253182923207396649e-05
1.777488744372185920e+03 1.247187239905690654e-05
1.778389194597298456e+03 1.241235366870010747e-05
1.779289644822411219e+03 1.235326866823986555e-05
1.780190095047523755e+03 1.229461308134729400e-05
1.781090545272636291e+03 1.223638264721231274e-05
1.781990995497748827e+03 1.217857315964767898e-05
1.782891445722861363e+03 1.212118046621014481e-05
1.783791895947973899e+03 1.206420046733961251e-05
1.784692346173086435e+03 1.200762911551418698e-05
1.785592796398198971e+03 1.195146241442325990e-05
1.786493246623311506e+03 1.189569641815567938e-05
1.787393696848424042e+03 1.184032723040475538e-05
1.788294147073536578e+03 1.178535100368733261e-05
1.789194597298649342e+03 1.173076393857942965e-05
1.790095047523761878e+03 1.167656228296579662e-05
1.790995497748874413e+03 1.162274233130386041e-05
1.791895947973986949e+03 1.156930042390198492e-05
1.792796398199099485e+03 1.151623294621113973e-05
1.793696848424212021e+03 1.146353632813071252e-05
1.794597298649324557e+03 1.141120704332626813e-05
1.795497748874437093e+03 1.135924160856109725e-05
1.796398199099549629e+03 1.130763658303986242e-05
1.797298649324662165e+03 1.125638856776451082e-05
1.798199099549774701e+03 1.120549420490224536e-05
1.799099549774887464e+03 1.115495017716493418e-05
1.800000000000000000e+03 1.110475320720030566e-05
