0.000000000000000000e+00 8.499963171522023934e-04
9.004502251125562351e-01 1.126863129370538454e-03
1.800900450225112470e+00 1.508809328313632635e-03
2.701350675337668594e+00 1.987028727223034454e-03
3.601800900450224940e+00 2.452392553050168015e-03
4.502251125562780842e+00 2.700068889833844108e-03
5.402701350675337189e+00 2.627023263283876069e-03
6.303151575787893535e+00 2.301266704383107559e-03
7.203601800900449881e+00 1.851692158836946468e-03
8.104052026013006227e+00 1.417592689870542707e-03
9.004502251125561685e+00 1.071355684091522108e-03
9.904952476238118919e+00 8.158009062688891325e-04
1.080540270135067438e+01 6.313410188986826391e-04
1.170585292646323161e+01 4.982902275661001612e-04
1.260630315157578707e+01 4.012040964401938328e-04
1.350675337668834430e+01 3.290776912046452173e-04
1.440720360180089976e+01 2.744448641206272024e-04
1.530765382691345522e+01 2.323089949877255110e-04
1.620810405202601245e+01 1.993069198253354796e-04
1.710855427713856969e+01 1.731232304953041743e-04
1.800900450225112337e+01 1.520520781113030029e-04
1.890945472736368060e+01 1.346703915105323371e-04
1.980990495247623784e+01 1.198179138289451269e-04
2.071035517758879507e+01 1.068901216464861257e-04
2.161080540270134875e+01 9.572851120073579720e-05
2.251125562781390599e+01 8.619112041539266555e-05
2.341170585292646322e+01 7.804565703762949246e-05
2.431215607803901690e+01 7.104942334289999161e-05
2.521260630315157414e+01 6.499620333685282049e-05
2.611305652826413137e+01 5.972284825741377496e-05
2.701350675337668861e+01 5.510315797068184815e-05
2.791395697848924229e+01 5.103964094271401373e-05
2.881440720360179952e+01 4.745586961061299650e-05
2.971485742871435676e+01 4.428833519082705985e-05
3.061530765382691044e+01 4.147372585924669893e-05
3.151575787893946767e+01 3.893793129866424764e-05
3.241620810405202491e+01 3.660901455232990317e-05
3.331665832916458214e+01 3.444361833658183587e-05
3.421710855427713938e+01 3.243875689958433987e-05
3.511755877938969661e+01 3.061680746247061812e-05
3.601800900450224674e+01 2.898557281961894531e-05
3.691845922961480397e+01 2.751784873481544471e-05
3.781890945472736121e+01 2.615215754901626912e-05
3.871935967983991844e+01 2.483189853022200455e-05
3.961980990495247568e+01 2.356150812988791479e-05
4.052026013006503291e+01 2.237804649592881957e-05
4.142071035517759015e+01 2.129802646948582531e-05
4.232116058029014027e+01 2.031692892493581611e-05
4.322161080540269751e+01 1.942418811512654976e-05
4.412206103051525474e+01 1.860969246686249753e-05
4.502251125562781198e+01 1.786404731668444210e-05
4.592296148074036921e+01 1.717861593554967530e-05
4.682341170585292645e+01 1.655012334128556532e-05
4.772386193096548368e+01 1.598187224901272821e-05
4.862431215607803381e+01 1.547345932430946899e-05
4.952476238119059104e+01 1.500693220240543738e-05
5.042521260630314828e+01 1.454658748178649253e-05
5.132566283141570551e+01 1.407712312712741663e-05
5.222611305652826275e+01 1.362457905770388492e-05
5.312656328164081998e+01 1.320864118315262776e-05
5.402701350675337721e+01 1.281478384204563914e-05
5.492746373186592734e+01 1.242311138103989546e-05
5.582791395697848458e+01 1.203679897073795116e-05
5.672836418209104181e+01 1.167038307464030387e-05
5.762881440720359905e+01 1.133241043622328834e-05
5.852926463231615628e+01 1.102989869083736000e-05
5.942971485742871351e+01 1.076671323287438397e-05
6.033016508254127075e+01 1.054289901310207426e-05
6.123061530765382088e+01 1.035327441704313292e-05
6.213106553276637811e+01 1.017172730415895706e-05
6.303151575787893535e+01 9.972574178966275027e-06
6.393196598299149258e+01 9.774381371240717701e-06
6.483241620810404982e+01 9.609537665539319225e-06
6.573286643321659994e+01 9.466264338744761683e-06
6.663331665832916428e+01 9.304264444965612679e-06
6.753376688344171441e+01 9.105492352736890393e-06
6.843421710855427875e+01 8.860314518398201245e-06
6.933466733366682888e+01 8.569012981920174249e-06
7.023511755877939322e+01 8.271948663073541491e-06
7.113556778389194335e+01 8.009968565585208890e-06
7.203601800900449348e+01 7.795145255146021350e-06
7.293646823411705782e+01 7.628851612940932632e-06
7.383691845922960795e+01 7.510393495635743046e-06
7.473736868434217229e+01 7.424549548782044744e-06
7.563781890945472242e+01 7.334060768086186233e-06
7.653826913456728676e+01 7.211151243883241003e-06
7.743871935967983688e+01 7.077905477625080556e-06
7.833916958479238701e+01 6.978782739670358137e-06
7.923961980990495135e+01 6.941896416540895016e-06
8.014007003501750148e+01 6.973514039984522508e-06
8.104052026013006582e+01 7.053355303601378416e-06
8.194097048524261595e+01 7.127945206499777238e-06
8.284142071035518029e+01 7.135889628962190262e-06
8.374187093546773042e+01 7.061785948901676041e-06
8.464232116058028055e+01 6.950558242288007221e-06
8.554277138569284489e+01 6.843247935841447510e-06
8.644322161080539502e+01 6.718948083904224814e-06
8.734367183591795936e+01 6.528764868611621422e-06
8.824412206103050949e+01 6.284488608656690140e-06
8.914457228614307382e+01 6.053936742385313857e-06
9.004502251125562395e+01 5.886347459052877063e-06
9.094547273636817408e+01 5.795084498506311502e-06
9.184592296148073842e+01 5.772596349243230381e-06
9.274637318659328855e+01 5.790200169714152256e-06
9.364682341170585289e+01 5.795663859667688676e-06
9.454727363681840302e+01 5.743116351883454342e-06
9.544772386193096736e+01 5.636536823132731343e-06
9.634817408704351749e+01 5.526235584766141340e-06
9.724862431215606762e+01 5.457511829995330074e-06
9.814907453726863196e+01 5.435732178280232324e-06
9.904952476238118209e+01 5.432171577313521595e-06
9.994997498749374643e+01 5.410364079816976554e-06
1.008504252126062966e+02 5.351413657540296917e-06
1.017508754377188609e+02 5.271651276954441525e-06
1.026513256628314110e+02 5.214834592650816645e-06
1.035517758879439612e+02 5.206553442581322666e-06
1.044522261130565255e+02 5.230507554903484541e-06
1.053526763381690756e+02 5.251271195076147235e-06
1.062531265632816400e+02 5.248906222809753084e-06
1.071535767883941901e+02 5.227521642921066884e-06
1.080540270135067544e+02 5.204391032165014051e-06
1.089544772386193046e+02 5.210099570766170334e-06
1.098549274637318547e+02 5.264293282755293058e-06
1.107553776888444190e+02 5.347365007248060003e-06
1.116558279139569692e+02 5.423888201989621352e-06
1.125562781390695335e+02 5.464716048291198219e-06
1.134567283641820836e+02 5.456498604306980617e-06
1.143571785892946480e+02 5.426424290945781808e-06
1.152576288144071981e+02 5.403221562459602056e-06
1.161580790395197482e+02 5.365569631035107379e-06
1.170585292646323126e+02 5.291059263290074240e-06
1.179589794897448627e+02 5.189699168727200651e-06
1.188594297148574270e+02 5.066433224357596691e-06
1.197598799399699772e+02 4.933427979678309933e-06
1.206603301650825415e+02 4.825894022846835961e-06
1.215607803901950916e+02 4.775626980344111898e-06
1.224612306153076418e+02 4.776890723306966722e-06
1.233616808404202061e+02 4.779655806023013189e-06
1.242621310655327562e+02 4.729783614028989781e-06
1.251625812906453206e+02 4.628902524925602137e-06
1.260630315157578707e+02 4.531206701532037043e-06
1.269634817408704350e+02 4.486946589479013750e-06
1.278639319659829852e+02 4.513173646050371941e-06
1.287643821910955353e+02 4.607395343088305592e-06
1.296648324162080996e+02 4.770810358615630968e-06
1.305652826413206640e+02 4.998515946060133105e-06
1.314657328664331999e+02 5.259098208805898943e-06
1.323661830915457642e+02 5.499224527295663139e-06
1.332666333166583286e+02 5.669570663565948334e-06
1.341670835417708929e+02 5.748529155946278194e-06
1.350675337668834288e+02 5.737715521069293232e-06
1.359679839919959932e+02 5.650171457395373626e-06
1.368684342171085575e+02 5.507225946255117291e-06
1.377688844422210934e+02 5.358227020221997992e-06
1.386693346673336578e+02 5.266154374315118657e-06
1.395697848924462221e+02 5.254811558488249129e-06
1.404702351175587864e+02 5.304486659038076445e-06
1.413706853426713224e+02 5.352711133187735594e-06
1.422711355677838867e+02 5.311095507682817577e-06
1.431715857928964510e+02 5.151192658830541386e-06
1.440720360180089870e+02 4.947123202885787801e-06
1.449724862431215513e+02 4.800820333114541527e-06
1.458729364682341156e+02 4.764178337923142813e-06
1.467733866933466800e+02 4.831901211329883448e-06
1.476738369184592159e+02 4.978397212829079345e-06
1.485742871435717802e+02 5.176962557026899398e-06
1.494747373686843446e+02 5.379696182385366372e-06
1.503751875937968805e+02 5.518230479625485635e-06
1.512756378189094448e+02 5.550650076953766531e-06
1.521760880440220092e+02 5.511888462332726802e-06
1.530765382691345735e+02 5.486583701806505992e-06
1.539769884942471094e+02 5.503186519955114357e-06
1.548774387193596738e+02 5.496488336328097211e-06
1.557778889444722381e+02 5.411505559295106417e-06
1.566783391695847740e+02 5.283953868620730823e-06
1.575787893946973384e+02 5.178966329463476977e-06
1.584792396198099027e+02 5.121188477761124968e-06
1.593796898449224670e+02 5.083655245062654489e-06
1.602801400700350030e+02 5.018020943890432709e-06
1.611805902951475673e+02 4.915982185134284464e-06
1.620810405202601316e+02 4.823715669684730486e-06
1.629814907453726676e+02 4.793095017879649574e-06
1.638819409704852319e+02 4.843250553356173499e-06
1.647823911955977962e+02 4.963071390580220690e-06
1.656828414207103606e+02 5.124666216867756972e-06
1.665832916458228965e+02 5.288027261794440375e-06
1.674837418709354608e+02 5.403455773383267578e-06
1.683841920960480252e+02 5.433624710627375293e-06
1.692846423211605611e+02 5.388751126961937973e-06
1.701850925462731254e+02 5.320320951890684783e-06
1.710855427713856898e+02 5.262218114283378738e-06
1.719859929964982541e+02 5.201509559869640822e-06
1.728864432216107900e+02 5.122128473175228989e-06
1.737868934467233544e+02 5.050632909234614812e-06
1.746873436718359187e+02 5.032874832520228889e-06
1.755877938969484546e+02 5.087480392705898641e-06
1.764882441220610190e+02 5.199314020047677750e-06
1.773886943471735833e+02 5.331387925254463554e-06
1.782891445722861476e+02 5.432569781084473590e-06
1.791895947973986836e+02 5.494239191650564740e-06
1.800900450225112479e+02 5.597383474297713401e-06
1.809904952476238122e+02 5.825536698121305591e-06
1.818909454727363482e+02 6.164181995354237022e-06
1.827913956978489125e+02 6.502403000399128352e-06
1.836918459229614768e+02 6.718506497788519367e-06
1.845922961480740412e+02 6.761606268000770863e-06
1.854927463731865771e+02 6.673932437828741687e-06
1.863931965982991414e+02 6.528566085634542193e-06
1.872936468234117058e+02 6.376265312095355371e-06
1.881940970485242417e+02 6.264715761107055885e-06
1.890945472736368060e+02 6.221838232331131508e-06
1.899949974987493704e+02 6.223951856141690711e-06
1.908954477238619347e+02 6.222019536782832538e-06
1.917958979489744706e+02 6.191436745280524941e-06
1.926963481740870350e+02 6.162688508622025120e-06
1.935967983991995993e+02 6.190255649061393157e-06
1.944972486243121352e+02 6.299683163859729997e-06
1.953976988494246996e+02 6.451929919390919908e-06
1.962981490745372639e+02 6.567043118904215190e-06
1.971985992996498283e+02 6.610161391531557288e-06
1.980990495247623642e+02 6.621454584302802891e-06
1.989994997498749285e+02 6.642366717667043948e-06
1.998999499749874929e+02 6.682577441379504631e-06
2.008004002001000288e+02 6.725346946934707262e-06
2.017008504252125931e+02 6.737668784468227257e-06
2.026013006503251574e+02 6.704457336238179908e-06
2.035017508754377218e+02 6.616329563529256106e-06
2.044022011005502577e+02 6.459985833917029788e-06
2.053026513256628220e+02 6.248284009900881241e-06
2.062031015507753864e+02 6.050589542020493649e-06
2.071035517758879223e+02 5.937518277123436869e-06
2.080040020010004866e+02 5.904578219285250257e-06
2.089044522261130510e+02 5.905546330975866413e-06
2.098049024512256153e+02 5.948349783975470390e-06
2.107053526763381512e+02 6.080445027930998703e-06
2.116058029014507156e+02 6.293611371633608633e-06
2.125062531265632799e+02 6.512183582898828206e-06
2.134067033516758158e+02 6.666961638023686261e-06
2.143071535767883802e+02 6.733601115529021328e-06
2.152076038019009445e+02 6.722712128212008086e-06
2.161080540270135089e+02 6.666305059545198532e-06
2.170085042521260448e+02 6.601207303453509406e-06
2.179089544772386091e+02 6.541022625023775311e-06
2.188094047023511735e+02 6.492110010876299372e-06
2.197098549274637094e+02 6.466812887770164197e-06
2.206103051525762737e+02 6.461809390670358055e-06
2.215107553776888381e+02 6.471847703694939240e-06
2.224112056028014024e+02 6.509050691991986576e-06
2.233116558279139383e+02 6.591211689691391533e-06
2.242121060530265027e+02 6.730572498896778728e-06
2.251125562781390670e+02 6.937403516431520411e-06
2.260130065032516029e+02 7.214560900294727199e-06
2.269134567283641672e+02 7.537537666587591294e-06
2.278139069534767316e+02 7.846283996177529340e-06
2.287143571785892959e+02 8.124381138150761343e-06
2.296148074037018318e+02 8.432181360008064245e-06
2.305152576288143962e+02 8.780983784577590833e-06
2.314157078539269605e+02 9.100990448172134730e-06
2.323161580790394964e+02 9.312062328494529910e-06
2.332166083041520608e+02 9.363407695518898805e-06
2.341170585292646251e+02 9.256729129634462330e-06
2.350175087543771895e+02 9.063251029360358551e-06
2.359179589794897254e+02 8.870390597711372472e-06
2.368184092046022897e+02 8.693702543557793106e-06
2.377188594297148541e+02 8.488163251078419258e-06
2.386193096548273900e+02 8.241669985630752481e-06
2.395197598799399543e+02 7.994177024162472914e-06
2.404202101050525187e+02 7.793320037588650776e-06
2.413206603301650830e+02 7.650631972957658419e-06
2.422211105552776189e+02 7.547291329802095232e-06
2.431215607803901833e+02 7.484735093915963456e-06
2.440220110055027476e+02 7.505961205365321489e-06
2.449224612306152835e+02 7.675048387271340731e-06
2.458229114557278479e+02 8.002312151877622855e-06
2.467233616808404122e+02 8.406539487460171494e-06
2.476238119059529765e+02 8.781960352053193785e-06
2.485242621310655124e+02 9.043317506456101900e-06
2.494247123561780768e+02 9.157261640896142385e-06
2.503251625812906411e+02 9.173566323725978867e-06
2.512256128064031770e+02 9.159698039220313194e-06
2.521260630315157414e+02 9.127085834458592426e-06
2.530265132566283057e+02 9.020906720688320277e-06
2.539269634817408701e+02 8.791845230626318399e-06
2.548274137068534060e+02 8.492615527296535973e-06
2.557278639319659703e+02 8.254470111299870008e-06
2.566283141570785347e+02 8.186353740103162254e-06
2.575287643821910706e+02 8.306758606176928040e-06
2.584292146073036633e+02 8.541881505088621293e-06
2.593296648324161993e+02 8.802979186827352906e-06
2.602301150575287352e+02 9.044879444714299470e-06
2.611305652826413279e+02 9.240266447083432969e-06
2.620310155077538639e+02 9.388634087783216504e-06
2.629314657328663998e+02 9.529010388481519322e-06
2.638319159579789925e+02 9.682863510067793187e-06
2.647323661830915285e+02 9.828466662856808115e-06
2.656328164082040644e+02 9.948785127412990696e-06
2.665332666333166571e+02 1.006776394716879520e-05
2.674337168584291931e+02 1.020364875903733676e-05
2.683341670835417858e+02 1.029884179715533512e-05
2.692346173086543217e+02 1.027670352226970977e-05
2.701350675337668577e+02 1.014737719222738080e-05
2.710355177588794504e+02 9.982430411188486657e-06
2.719359679839919863e+02 9.839292690525120114e-06
2.728364182091045222e+02 9.738201793802998498e-06
2.737368684342171150e+02 9.682791962420070030e-06
2.746373186593296509e+02 9.685667431280270060e-06
2.755377688844421868e+02 9.793058854627129136e-06
2.764382191095547796e+02 1.007114567578089556e-05
2.773386693346673155e+02 1.052142884805013440e-05
2.782391195597798514e+02 1.104437965696308364e-05
2.791395697848924442e+02 1.153929544497601382e-05
2.800400200100049801e+02 1.197897027637573890e-05
2.809404702351175729e+02 1.239646984764400954e-05
2.818409204602301088e+02 1.282797637055824837e-05
2.827413706853426447e+02 1.317269674809268463e-05
2.836418209104552375e+02 1.327519510601087188e-05
2.845422711355677734e+02 1.318367249413817314e-05
2.854427213606803093e+02 1.304702420271736586e-05
2.863431715857929021e+02 1.287812743440548376e-05
2.872436218109054380e+02 1.257828635674156589e-05
2.881440720360179739e+02 1.214326181014477362e-05
2.890445222611305667e+02 1.173095592318625946e-05
2.899449724862431026e+02 1.147325261831153510e-05
2.908454227113556385e+02 1.137403733668426263e-05
2.917458729364682313e+02 1.138777411461400864e-05
2.926463231615807672e+02 1.147695259363250984e-05
2.935467733866933600e+02 1.159691190285009842e-05
2.944472236118058959e+02 1.172471102381309109e-05
2.953476738369184318e+02 1.188965217683485432e-05
2.962481240620310246e+02 1.214751258799694441e-05
2.971485742871435605e+02 1.249303769253136452e-05
2.980490245122560964e+02 1.285106700501025348e-05
2.989494747373686891e+02 1.314545539664237640e-05
2.998499249624812251e+02 1.336265889833499874e-05
3.007503751875937610e+02 1.354956806841627142e-05
3.016508254127063537e+02 1.374769645990117833e-05
3.025512756378188897e+02 1.395434113069950636e-05
3.034517258629314256e+02 1.410923460166032825e-05
3.043521760880440183e+02 1.420266338725489916e-05
3.052526263131565543e+02 1.438754713767257221e-05
3.061530765382691470e+02 1.481878345501740326e-05
3.070535267633816829e+02 1.546151002958640850e-05
3.079539769884942189e+02 1.610671911897484893e-05
3.088544272136068116e+02 1.653935710761452826e-05
3.097548774387193475e+02 1.672769668024330828e-05
3.106553276638318835e+02 1.679411563521222657e-05
3.115557778889444762e+02 1.683112855451819498e-05
3.124562281140570121e+02 1.685339057924688903e-05
3.133566783391695481e+02 1.682885113555392844e-05
3.142571285642821408e+02 1.673788007204456325e-05
3.151575787893946767e+02 1.664551345509307655e-05
3.160580290145072127e+02 1.665026386909919663e-05
3.169584792396198054e+02 1.677920896952543998e-05
3.178589294647323413e+02 1.697235954982908774e-05
3.187593796898449341e+02 1.712000646653177993e-05
3.196598299149574700e+02 1.714811928578106745e-05
3.205602801400700059e+02 1.706614322479219016e-05
3.214607303651825987e+02 1.696314831939836881e-05
3.223611805902951346e+02 1.691897559025376418e-05
3.232616308154076705e+02 1.693363821178462078e-05
3.241620810405202633e+02 1.696940032007634308e-05
3.250625312656327992e+02 1.701231913491327167e-05
3.259629814907453351e+02 1.705484573117865845e-05
3.268634317158579279e+02 1.708837020812270551e-05
3.277638819409704638e+02 1.717301834116211542e-05
3.286643321660829997e+02 1.741168788759262775e-05
3.295647823911955925e+02 1.780327866392328166e-05
3.304652326163081284e+02 1.824430171092888473e-05
3.313656828414207212e+02 1.869937517149531934e-05
3.322661330665332571e+02 1.916631591500845340e-05
3.331665832916457930e+02 1.953977010154006350e-05
3.340670335167583858e+02 1.970369396531324797e-05
3.349674837418709217e+02 1.966096269969469640e-05
3.358679339669834576e+02 1.950662870138747900e-05
3.367683841920960504e+02 1.934585075196027225e-05
3.376688344172085863e+02 1.928196010520362991e-05
3.385692846423211222e+02 1.936810062796161613e-05
3.394697348674337150e+02 1.956898131924128989e-05
3.403701850925462509e+02 1.977869313286446500e-05
3.412706353176587868e+02 1.986591228950857535e-05
3.421710855427713796e+02 1.974316022961731143e-05
3.430715357678839155e+02 1.944896842399312830e-05
3.439719859929965082e+02 1.910106893844636745e-05
3.448724362181090441e+02 1.878627142429060824e-05
3.457728864432215801e+02 1.857468031668518737e-05
3.466733366683341728e+02 1.852891006306517954e-05
3.475737868934467087e+02 1.865665167164639302e-05
3.484742371185592447e+02 1.890237503247563496e-05
3.493746873436718374e+02 1.921697945000244685e-05
3.502751375687843733e+02 1.958763940458339530e-05
3.511755877938969093e+02 1.996852056681368417e-05
3.520760380190095020e+02 2.026673385770388583e-05
3.529764882441220379e+02 2.041699122723687952e-05
3.538769384692345739e+02 2.045219391226310154e-05
3.547773886943471666e+02 2.043380560333722586e-05
3.556778389194597025e+02 2.039230809490004653e-05
3.565782891445722953e+02 2.035502312574268851e-05
3.574787393696848312e+02 2.034364842277221709e-05
3.583791895947973671e+02 2.033843088342103579e-05
3.592796398199099599e+02 2.032615929382273234e-05
3.601800900450224958e+02 2.033145871500583216e-05
3.610805402701350317e+02 2.037958294167155010e-05
3.619809904952476245e+02 2.047883255963440266e-05
3.628814407203601604e+02 2.057785957296155883e-05
3.637818909454726963e+02 2.061387940714711655e-05
3.646823411705852891e+02 2.060373087807294666e-05
3.655827913956978250e+02 2.063053470914832447e-05
3.664832416208103609e+02 2.072615907340528743e-05
3.673836918459229537e+02 2.085304382043972720e-05
3.682841420710354896e+02 2.100103670176413660e-05
3.691845922961480824e+02 2.114432984659407524e-05
3.700850425212606183e+02 2.117375965306535844e-05
3.709854927463731542e+02 2.102629948975236253e-05
3.718859429714857470e+02 2.069932036887718854e-05
3.727863931965982829e+02 2.019546046085783024e-05
3.736868434217108188e+02 1.957956310586115130e-05
3.745872936468234116e+02 1.896736249037052097e-05
3.754877438719359475e+02 1.843351729749387373e-05
3.763881940970484834e+02 1.799713803576249147e-05
3.772886443221610762e+02 1.768638143464901609e-05
3.781890945472736121e+02 1.752261424798055273e-05
3.790895447723861480e+02 1.745134230626725757e-05
3.799899949974987408e+02 1.738060676561077424e-05
3.808904452226112767e+02 1.726634695845730933e-05
3.817908954477238694e+02 1.718089445002947261e-05
3.826913456728364054e+02 1.718752569543246698e-05
3.835917958979489413e+02 1.722220849907662139e-05
3.844922461230615340e+02 1.722117742566593235e-05
3.853926963481740700e+02 1.718200808051372852e-05
3.862931465732866059e+02 1.706947494153888517e-05
3.871935967983991986e+02 1.681454933840772158e-05
3.880940470235117346e+02 1.642108527668580589e-05
3.889944972486242705e+02 1.599498945197948277e-05
3.898949474737368632e+02 1.568601805257397757e-05
3.907953976988493991e+02 1.560677847116237596e-05
3.916958479239619351e+02 1.576436327788976140e-05
3.925962981490745278e+02 1.603464188246157691e-05
3.934967483741870637e+02 1.624941619096637765e-05
3.943971985992996565e+02 1.635581491668816479e-05
3.952976488244121924e+02 1.640440134346003324e-05
3.961980990495247283e+02 1.640716921538964960e-05
3.970985492746373211e+02 1.632813602038895944e-05
3.979989994997498570e+02 1.619424147793470202e-05
3.988994497248623929e+02 1.606676381576448428e-05
3.997998999499749857e+02 1.596038062842044443e-05
4.007003501750875216e+02 1.586343064664726618e-05
4.016008004002000575e+02 1.576325048725305192e-05
4.025012506253126503e+02 1.565323375814801156e-05
4.034017008504251862e+02 1.555477403804578698e-05
4.043021510755377221e+02 1.551917843927633331e-05
4.052026013006503149e+02 1.557796949804231593e-05
4.061030515257628508e+02 1.570603448980627977e-05
4.070035017508754436e+02 1.583634287217249655e-05
4.079039519759879795e+02 1.587704664129450222e-05
4.088044022011005154e+02 1.578414532348328860e-05
4.097048524262131082e+02 1.562745631176766967e-05
4.106053026513256441e+02 1.550503173797978591e-05
4.115057528764381800e+02 1.545061568379994571e-05
4.124062031015507728e+02 1.545285570933170832e-05
4.133066533266633087e+02 1.548828247309719434e-05
4.142071035517758446e+02 1.553216196623803872e-05
4.151075537768884374e+02 1.557104879474906114e-05
4.160080040020009733e+02 1.559549659786089152e-05
4.169084542271135092e+02 1.557803691359365420e-05
4.178089044522261020e+02 1.550651035477666883e-05
4.187093546773386379e+02 1.540270180791597320e-05
4.196098049024512306e+02 1.529565919194442969e-05
4.205102551275637666e+02 1.521194202595839944e-05
4.214107053526763025e+02 1.513680664339438206e-05
4.223111555777888952e+02 1.505765036120097941e-05
4.232116058029014312e+02 1.501839520181902149e-05
4.241120560280139671e+02 1.504745883133313359e-05
4.250125062531265598e+02 1.511154259858241119e-05
4.259129564782390958e+02 1.515355871002588151e-05
4.268134067033516317e+02 1.513285110559048654e-05
4.277138569284642244e+02 1.504462016377579356e-05
4.286143071535767604e+02 1.490348836754284855e-05
4.295147573786892963e+02 1.474317118030113779e-05
4.304152076038018890e+02 1.461614171167440332e-05
4.313156578289144250e+02 1.453950865532123813e-05
4.322161080540270177e+02 1.449562116470544787e-05
4.331165582791395536e+02 1.446122879015454218e-05
4.340170085042520896e+02 1.441813097522212453e-05
4.349174587293646823e+02 1.440985252231501603e-05
4.358179089544772182e+02 1.447799531410101362e-05
4.367183591795897541e+02 1.458661296507647495e-05
4.376188094047023469e+02 1.468212674920008183e-05
4.385192596298148828e+02 1.473216291946167617e-05
4.394197098549274187e+02 1.473827357964832068e-05
4.403201600800400115e+02 1.475498369135722640e-05
4.412206103051525474e+02 1.483687341818043169e-05
4.421210605302650833e+02 1.495390586544961661e-05
4.430215107553776761e+02 1.504418197836479798e-05
4.439219609804902120e+02 1.510786923053049440e-05
4.448224112056028048e+02 1.519210027467117676e-05
4.457228614307153407e+02 1.532311493644771097e-05
4.466233116558278766e+02 1.547117495452157471e-05
4.475237618809404694e+02 1.555589320441901356e-05
4.484242121060530053e+02 1.554757372202404661e-05
4.493246623311655412e+02 1.550206020499679202e-05
4.502251125562781340e+02 1.549925924971979068e-05
4.511255627813906699e+02 1.561700676587806952e-05
4.520260130065032058e+02 1.588480577960545644e-05
4.529264632316157986e+02 1.622035748470415892e-05
4.538269134567283345e+02 1.646529004357431811e-05
4.547273636818408704e+02 1.656724105891250185e-05
4.556278139069534632e+02 1.663875053342470133e-05
4.565282641320659991e+02 1.676168813878659537e-05
4.574287143571785919e+02 1.684888961937856897e-05
4.583291645822911278e+02 1.673628505925096429e-05
4.592296148074036637e+02 1.639916013364099362e-05
4.601300650325162565e+02 1.598802450330642742e-05
4.610305152576287924e+02 1.567252276694435203e-05
4.619309654827413283e+02 1.552295651349593311e-05
4.628314157078539210e+02 1.552625354862221553e-05
4.637318659329664570e+02 1.562307379622848269e-05
4.646323161580789929e+02 1.573730302213166050e-05
4.655327663831915856e+02 1.581344742883454828e-05
4.664332166083041216e+02 1.585420590745501774e-05
4.673336668334167143e+02 1.595373937137221340e-05
4.682341170585292502e+02 1.616593124161424269e-05
4.691345672836417862e+02 1.641166650410717716e-05
4.700350175087543789e+02 1.654818723462935933e-05
4.709354677338669148e+02 1.647959135023225295e-05
4.718359179589794508e+02 1.623394429302720687e-05
4.727363681840920435e+02 1.593618904118971287e-05
4.736368184092045794e+02 1.571058322914670698e-05
4.745372686343171154e+02 1.562935741428974934e-05
4.754377188594297081e+02 1.572673444188835335e-05
4.763381690845422440e+02 1.597244634411714904e-05
4.772386193096547800e+02 1.625421032346775576e-05
4.781390695347673727e+02 1.648216959558713556e-05
4.790395197598799086e+02 1.662898462922901525e-05
4.799399699849925014e+02 1.669116734189099520e-05
4.808404202101050373e+02 1.671768282956279951e-05
4.817408704352175732e+02 1.679538709984692882e-05
4.826413206603301660e+02 1.698604269870334754e-05
4.835417708854427019e+02 1.727007888101157469e-05
4.844422211105552378e+02 1.754621255735720772e-05
4.853426713356678306e+02 1.771872961069176071e-05
4.862431215607803665e+02 1.778599382184629685e-05
4.871435717858929024e+02 1.780994189764238575e-05
4.880440220110054952e+02 1.783000792014083818e-05
4.889444722361180311e+02 1.785128955199237743e-05
4.898449224612305670e+02 1.786714721965433451e-05
4.907453726863431598e+02 1.787989104135369355e-05
4.916458229114556957e+02 1.789720439982443994e-05
4.925462731365682885e+02 1.793619861891963994e-05
4.934467233616808244e+02 1.804211182937598103e-05
4.943471735867933603e+02 1.821363904011431614e-05
4.952476238119059531e+02 1.844452848847945132e-05
4.961480740370184890e+02 1.878228103258440822e-05
4.970485242621310249e+02 1.919139408822749475e-05
4.979489744872436177e+02 1.954896174240148331e-05
4.988494247123561536e+02 1.984889955357595296e-05
4.997498749374686895e+02 2.018178633596894272e-05
5.006503251625812823e+02 2.053408162453924731e-05
5.015507753876938182e+02 2.081052833553810228e-05
5.024512256128063541e+02 2.098429160441663986e-05
5.033516758379189469e+02 2.110262758475496585e-05
5.042521260630314828e+02 2.120674684726549228e-05
5.051525762881440755e+02 2.130287270018403343e-05
5.060530265132566115e+02 2.138799440953781042e-05
5.069534767383691474e+02 2.147505218650672010e-05
5.078539269634817401e+02 2.156694012182640546e-05
5.087543771885942760e+02 2.164054331404445647e-05
5.096548274137068120e+02 2.165872509946569483e-05
5.105552776388194047e+02 2.159636421489064627e-05
5.114557278639319406e+02 2.148246176993956903e-05
5.123561780890445334e+02 2.138159682388874211e-05
5.132566283141570693e+02 2.129987689131123560e-05
5.141570785392696052e+02 2.119441754386899789e-05
5.150575287643821412e+02 2.110902649934382372e-05
5.159579789894946771e+02 2.115120649410191932e-05
5.168584292146073267e+02 2.135183466509456035e-05
5.177588794397198626e+02 2.162993423660218822e-05
5.186593296648323985e+02 2.188217182656294866e-05
5.195597798899449344e+02 2.206973647948213082e-05
5.204602301150574704e+02 2.221474213802080425e-05
5.213606803401700063e+02 2.235230092294380902e-05
5.222611305652826559e+02 2.249970562285343755e-05
5.231615807903951918e+02 2.265132405958564748e-05
5.240620310155077277e+02 2.277594827502362355e-05
5.249624812406202636e+02 2.285477499997450268e-05
5.258629314657327996e+02 2.293850978911456427e-05
5.267633816908454492e+02 2.310499837676264465e-05
5.276638319159579851e+02 2.339189971810321230e-05
5.285642821410705210e+02 2.378019490838937801e-05
5.294647323661830569e+02 2.419151215897012358e-05
5.303651825912955928e+02 2.451552648706240028e-05
5.312656328164081287e+02 2.468584379043280066e-05
5.321660830415207784e+02 2.475207600099965549e-05
5.330665332666333143e+02 2.487046999748766953e-05
5.339669834917458502e+02 2.513799825802118425e-05
5.348674337168583861e+02 2.549626717734134157e-05
5.357678839419709220e+02 2.587847395174473818e-05
5.366683341670835716e+02 2.631970397363152456e-05
5.375687843921961075e+02 2.688762672266344620e-05
5.384692346173086435e+02 2.758154924252991801e-05
5.393696848424211794e+02 2.830754833318576059e-05
5.402701350675337153e+02 2.893698535062561906e-05
5.411705852926462512e+02 2.935760709805684783e-05
5.420710355177589008e+02 2.952098771841142301e-05
5.429714857428714367e+02 2.947516425142859137e-05
5.438719359679839727e+02 2.933569040935754915e-05
5.447723861930965086e+02 2.918159495807384261e-05
5.456728364182090445e+02 2.901798410954966646e-05
5.465732866433215804e+02 2.886293323086648832e-05
5.474737368684342300e+02 2.881654697183134628e-05
5.483741870935467659e+02 2.897841434807063427e-05
5.492746373186593019e+02 2.936117081555871807e-05
5.501750875437718378e+02 2.989881924121404582e-05
5.510755377688843737e+02 3.045968460694753531e-05
5.519759879939970233e+02 3.090310580978610926e-05
5.528764382191095592e+02 3.120435722377599242e-05
5.537768884442220951e+02 3.144119694131571925e-05
5.546773386693346310e+02 3.165047447247465288e-05
5.555777888944471670e+02 3.180646880378850712e-05
5.564782391195597029e+02 3.194638734597970178e-05
5.573786893446723525e+02 3.217758544519251499e-05
5.582791395697848884e+02 3.256224334386743365e-05
5.591795897948974243e+02 3.308519306786039741e-05
5.600800400200099602e+02 3.363977252693689876e-05
5.609804902451224962e+02 3.401487574821615594e-05
5.618809404702351458e+02 3.405812126539238592e-05
5.627813906953476817e+02 3.383437133554309284e-05
5.636818409204602176e+02 3.353532507531563431e-05
5.645822911455727535e+02 3.328158823568032137e-05
5.654827413706852894e+02 3.307846179749953638e-05
5.663831915957978254e+02 3.291457518897352813e-05
5.672836418209104750e+02 3.276105092130895843e-05
5.681840920460230109e+02 3.256945992058771797e-05
5.690845422711355468e+02 3.236339265441708649e-05
5.699849924962480827e+02 3.218993468364879720e-05
5.708854427213606186e+02 3.201993562245357650e-05
5.717858929464731546e+02 3.179384745905343835e-05
5.726863431715858042e+02 3.146077205952044155e-05
5.735867933966983401e+02 3.100333377381545865e-05
5.744872436218108760e+02 3.047349383173833732e-05
5.753876938469234119e+02 2.990411888093892035e-05
5.762881440720359478e+02 2.932361417929190428e-05
5.771885942971485974e+02 2.887240702597323268e-05
5.780890445222611334e+02 2.865187919031066645e-05
5.789894947473736693e+02 2.859221785670765283e-05
5.798899449724862052e+02 2.859608579840836818e-05
5.807903951975987411e+02 2.859858381691327329e-05
5.816908454227112770e+02 2.847417964466240212e-05
5.825912956478239266e+02 2.814855867424963920e-05
5.834917458729364625e+02 2.776009409601352474e-05
5.843921960980489985e+02 2.752450945613799782e-05
5.852926463231615344e+02 2.752699111717827493e-05
5.861930965482740703e+02 2.771507986739668068e-05
5.870935467733867199e+02 2.792574220388531378e-05
5.879939969984992558e+02 2.796626771598549838e-05
5.888944472236117917e+02 2.777405716085494953e-05
5.897948974487243277e+02 2.745631017651370482e-05
5.906953476738368636e+02 2.715933243751396094e-05
5.915957978989493995e+02 2.697759002933107722e-05
5.924962481240620491e+02 2.686339422425458291e-05
5.933966983491745850e+02 2.663887172792522135e-05
5.942971485742871209e+02 2.621342450478837802e-05
5.951975987993996569e+02 2.566016589146375183e-05
5.960980490245121928e+02 2.510512665253807101e-05
5.969984992496247287e+02 2.464077081231876311e-05
5.978989494747373783e+02 2.430403415157686718e-05
5.987993996998499142e+02 2.405394577922603534e-05
5.996998499249624501e+02 2.385292351240589278e-05
6.006003001500749860e+02 2.374746533926299082e-05
6.015007503751875220e+02 2.374230763177138945e-05
6.024012006003001716e+02 2.373236137600653450e-05
6.033016508254127075e+02 2.366724189834678069e-05
6.042021010505252434e+02 2.359289587224061257e-05
6.051025512756377793e+02 2.357296139275183322e-05
6.060030015007503152e+02 2.365690035104745220e-05
6.069034517258628512e+02 2.383196785305260500e-05
6.078039019509755008e+02 2.402337566713297080e-05
6.087043521760880367e+02 2.410898536300167994e-05
6.096048024012005726e+02 2.402548250512099627e-05
6.105052526263131085e+02 2.383530222861450834e-05
6.114057028514256444e+02 2.358783325957551841e-05
6.123061530765382940e+02 2.327838221419943458e-05
6.132066033016508300e+02 2.293390596885984726e-05
6.141070535267633659e+02 2.262718886186354173e-05
6.150075037518759018e+02 2.241508957557586371e-05
6.159079539769884377e+02 2.230035964259956540e-05
6.168084042021009736e+02 2.222430197691607073e-05
6.177088544272136232e+02 2.211425286115809380e-05
6.186093046523261592e+02 2.194602159604350575e-05
6.195097548774386951e+02 2.172276899046127736e-05
6.204102051025512310e+02 2.145469058697615562e-05
6.213106553276637669e+02 2.118249235865823319e-05
6.222111055527763028e+02 2.096703369727013735e-05
6.231115557778889524e+02 2.084466096760744126e-05
6.240120060030014884e+02 2.080301918321704070e-05
6.249124562281140243e+02 2.080002631941849461e-05
6.258129064532265602e+02 2.080220222461527297e-05
6.267133566783390961e+02 2.079339655089646179e-05
6.276138069034517457e+02 2.076704051680563207e-05
6.285142571285642816e+02 2.074592886296768406e-05
6.294147073536768175e+02 2.076570844026916441e-05
6.303151575787893535e+02 2.079813481137104717e-05
6.312156078039018894e+02 2.075546074353064937e-05
6.321160580290144253e+02 2.060851726181431033e-05
6.330165082541270749e+02 2.042635033730055223e-05
6.339169584792396108e+02 2.029548713537014952e-05
6.348174087043521467e+02 2.022007119258592431e-05
6.357178589294646827e+02 2.011507861087480126e-05
6.366183091545772186e+02 1.993019420076691837e-05
6.375187593796898682e+02 1.969756328909105881e-05
6.384192096048024041e+02 1.945596290007368026e-05
6.393196598299149400e+02 1.924127337419176073e-05
6.402201100550274759e+02 1.906893883098719584e-05
6.411205602801400119e+02 1.889479027152657909e-05
6.420210105052525478e+02 1.868509162438460139e-05
6.429214607303651974e+02 1.845203938626633854e-05
6.438219109554777333e+02 1.820651293236027021e-05
6.447223611805902692e+02 1.797415367881497497e-05
6.456228114057028051e+02 1.781682403975091492e-05
6.465232616308153411e+02 1.776449017938856617e-05
6.474237118559278770e+02 1.777190069226782548e-05
6.483241620810405266e+02 1.779018122039209367e-05
6.492246123061530625e+02 1.782745928746695932e-05
6.501250625312655984e+02 1.791183293251364650e-05
6.510255127563781343e+02 1.804330757842390173e-05
6.519259629814906702e+02 1.821620173342003475e-05
6.528264132066033198e+02 1.844043496847392455e-05
6.537268634317158558e+02 1.867726843208359255e-05
6.546273136568283917e+02 1.879575422561903790e-05
6.555277638819409276e+02 1.870430725982081979e-05
6.564282141070534635e+02 1.844700648487320369e-05
6.573286643321659994e+02 1.811124811862615616e-05
6.582291145572786490e+02 1.777457182253630875e-05
6.591295647823911850e+02 1.751191807573262635e-05
6.600300150075037209e+02 1.734706295753318065e-05
6.609304652326162568e+02 1.724456437105575135e-05
6.618309154577287927e+02 1.714257915881384618e-05
6.627313656828414423e+02 1.701114333272767893e-05
6.636318159079539782e+02 1.689179948746213878e-05
6.645322661330665142e+02 1.684924938960707008e-05
6.654327163581790501e+02 1.690332004999658657e-05
6.663331665832915860e+02 1.704548004594638402e-05
6.672336168084041219e+02 1.725717566732651813e-05
6.681340670335167715e+02 1.749305693594535528e-05
6.690345172586293074e+02 1.769457143098572769e-05
6.699349674837418434e+02 1.778987431991792986e-05
6.708354177088543793e+02 1.772084123351277065e-05
6.717358679339669152e+02 1.750874189971193820e-05
6.726363181590794511e+02 1.724999616292730061e-05
6.735367683841921007e+02 1.703946594417679377e-05
6.744372186093046366e+02 1.692835652435842098e-05
6.753376688344171725e+02 1.692636040771608875e-05
6.762381190595297085e+02 1.700115137901451294e-05
6.771385692846422444e+02 1.714007000460702579e-05
6.780390195097548940e+02 1.736603407612094592e-05
6.789394697348674299e+02 1.765990404983290091e-05
6.798399199599799658e+02 1.791750584611936749e-05
6.807403701850925017e+02 1.801705984503313145e-05
6.816408204102050377e+02 1.793778295918140411e-05
6.825412706353175736e+02 1.777039178060567978e-05
6.834417208604302232e+02 1.761100930821470244e-05
6.843421710855427591e+02 1.752912163399599770e-05
6.852426213106552950e+02 1.757488495573916989e-05
6.861430715357678309e+02 1.773294004720555307e-05
6.870435217608803669e+02 1.793212458214686898e-05
6.879439719859930165e+02 1.810615064582449507e-05
6.888444222111055524e+02 1.824198479939059529e-05
6.897448724362180883e+02 1.834337044478321699e-05
6.906453226613306242e+02 1.836806280909229232e-05
6.915457728864431601e+02 1.827673814389076001e-05
6.924462231115556961e+02 1.814225531365582365e-05
6.933466733366683457e+02 1.805555099588441567e-05
6.942471235617808816e+02 1.802482454495547167e-05
6.951475737868934175e+02 1.804568957691513202e-05
6.960480240120059534e+02 1.812161575920659848e-05
6.969484742371184893e+02 1.819756899800126508e-05
6.978489244622311389e+02 1.822828430212567052e-05
6.987493746873436749e+02 1.827197588428608528e-05
6.996498249124562108e+02 1.836473866819779129e-05
7.005502751375687467e+02 1.845613760186746562e-05
7.014507253626812826e+02 1.852717064641048897e-05
7.023511755877938185e+02 1.862346078831065963e-05
7.032516258129064681e+02 1.877354189255198749e-05
7.041520760380190040e+02 1.893383130070275732e-05
7.050525262631315400e+02 1.904918139490503748e-05
7.059529764882440759e+02 1.911877734491518839e-05
7.068534267133566118e+02 1.916442195953423341e-05
7.077538769384691477e+02 1.916292025516481339e-05
7.086543271635817973e+02 1.908474730236446246e-05
7.095547773886943332e+02 1.895037936918866800e-05
7.104552276138068692e+02 1.882271977285376299e-05
7.113556778389194051e+02 1.875869805150708928e-05
7.122561280640319410e+02 1.876172093997301567e-05
7.131565782891445906e+02 1.879759952890086550e-05
7.140570285142571265e+02 1.882650841106384785e-05
7.149574787393696624e+02 1.885896734235810318e-05
7.158579289644821984e+02 1.895893608524081592e-05
7.167583791895947343e+02 1.914692045264454007e-05
7.176588294147072702e+02 1.935744600946846415e-05
7.185592796398199198e+02 1.950182543128237180e-05
7.194597298649324557e+02 1.957166904628712797e-05
7.203601800900449916e+02 1.963087269922399587e-05
7.212606303151575275e+02 1.968283143821662078e-05
7.221610805402700635e+02 1.965102826566773208e-05
7.230615307653827131e+02 1.949946907432850699e-05
7.239619809904952490e+02 1.929615535015063383e-05
7.248624312156077849e+02 1.912185042005305134e-05
7.257628814407203208e+02 1.898798610677103412e-05
7.266633316658328567e+02 1.891621874295793397e-05
7.275637818909453927e+02 1.896819890068588129e-05
7.284642321160580423e+02 1.915148793876648225e-05
7.293646823411705782e+02 1.939320071236217872e-05
7.302651325662831141e+02 1.959854272776712062e-05
7.311655827913956500e+02 1.970540899630073340e-05
7.320660330165081859e+02 1.970143216852295281e-05
7.329664832416207219e+02 1.960605075749952348e-05
7.338669334667333715e+02 1.944450234465848422e-05
7.347673836918459074e+02 1.925529837940433229e-05
7.356678339169584433e+02 1.910826486536879433e-05
7.365682841420709792e+02 1.904466922176747878e-05
7.374687343671835151e+02 1.900959301286644327e-05
7.383691845922961647e+02 1.894789821638201332e-05
7.392696348174087007e+02 1.891077173287009322e-05
7.401700850425212366e+02 1.897378251123897183e-05
7.410705352676337725e+02 1.917353856677668668e-05
7.419709854927463084e+02 1.950018672475412762e-05
7.428714357178588443e+02 1.988888327876127591e-05
7.437718859429714939e+02 2.022675002856436072e-05
7.446723361680840299e+02 2.042588485080801719e-05
7.455727863931965658e+02 2.047950902968176983e-05
7.464732366183091017e+02 2.038916592206729191e-05
7.473736868434216376e+02 2.018271561875310252e-05
7.482741370685342872e+02 1.996358144315966008e-05
7.491745872936468231e+02 1.980240134803914451e-05
7.500750375187593590e+02 1.966591354584846819e-05
7.509754877438718950e+02 1.950721416905041225e-05
7.518759379689844309e+02 1.934230666158778136e-05
7.527763881940969668e+02 1.920756346588381583e-05
7.536768384192096164e+02 1.910095044083139117e-05
7.545772886443221523e+02 1.899394038030047382e-05
7.554777388694346882e+02 1.889331567452080828e-05
7.563781890945472242e+02 1.887746636032541401e-05
7.572786393196597601e+02 1.900946278713033769e-05
7.581790895447722960e+02 1.925388357357460346e-05
7.590795397698849456e+02 1.948043013707979667e-05
7.599799899949974815e+02 1.958246718024024658e-05
7.608804402201100174e+02 1.958649194634599328e-05
7.617808904452225534e+02 1.956815869899384663e-05
7.626813406703350893e+02 1.957193062233076306e-05
7.635817908954477389e+02 1.961698258827392232e-05
7.644822411205602748e+02 1.969077063111602179e-05
7.653826913456728107e+02 1.975195093899541243e-05
7.662831415707853466e+02 1.977215908241608693e-05
7.671835917958978825e+02 1.976154324283783880e-05
7.680840420210104185e+02 1.975027178362011055e-05
7.689844922461230681e+02 1.976814491203510101e-05
7.698849424712356040e+02 1.982126443741821990e-05
7.707853926963481399e+02 1.989658653322184679e-05
7.716858429214606758e+02 1.997615787739882360e-05
7.725862931465732117e+02 2.000437183877706122e-05
7.734867433716858613e+02 1.995222462213839238e-05
7.743871935967983973e+02 1.985769113726538896e-05
7.752876438219109332e+02 1.974559308131633895e-05
7.761880940470234691e+02 1.963212676087082708e-05
7.770885442721360050e+02 1.959527356772136774e-05
7.779889944972485409e+02 1.970000173875645507e-05
7.788894447223611905e+02 1.989640005722714998e-05
7.797898949474737265e+02 2.009844106999377075e-05
7.806903451725862624e+02 2.027154085115984768e-05
7.815907953976987983e+02 2.040915646680094888e-05
7.824912456228113342e+02 2.048249358710098550e-05
7.833916958479238701e+02 2.048190128789623333e-05
7.842921460730365197e+02 2.043643518168571313e-05
7.851925962981490557e+02 2.035292066126464684e-05
7.860930465232615916e+02 2.024070978082315544e-05
7.869934967483741275e+02 2.015760371217002815e-05
7.878939469734866634e+02 2.017268269890493159e-05
7.887943971985993130e+02 2.031576652499100024e-05
7.896948474237118489e+02 2.056814382796430583e-05
7.905952976488243849e+02 2.089610377076175330e-05
7.914957478739369208e+02 2.126096063328510711e-05
7.923961980990494567e+02 2.158518208848241222e-05
7.932966483241619926e+02 2.176146736937540632e-05
7.941970985492746422e+02 2.172760745428854460e-05
7.950975487743871781e+02 2.151749507000553656e-05
7.959979989994997140e+02 2.124622138655274262e-05
7.968984492246122500e+02 2.102655674494743789e-05
7.977988994497247859e+02 2.087001625817394370e-05
7.986993496748374355e+02 2.071796405707264160e-05
7.995997998999499714e+02 2.057441252883005886e-05
8.005002501250625073e+02 2.047510064011393488e-05
8.014007003501750432e+02 2.044647096979350964e-05
8.023011505752875792e+02 2.054544147704153283e-05
8.032016008004001151e+02 2.080026175466285717e-05
8.041020510255127647e+02 2.116204589916692875e-05
8.050025012506253006e+02 2.157650185693136605e-05
8.059029514757378365e+02 2.205612412246427028e-05
8.068034017008503724e+02 2.262199242064822629e-05
8.077038519259629084e+02 2.319468183242948741e-05
8.086043021510754443e+02 2.365261660887065206e-05
8.095047523761880939e+02 2.395312623390152853e-05
8.104052026013006298e+02 2.409905672548072152e-05
8.113056528264131657e+02 2.407695984068896310e-05
8.122061030515257016e+02 2.387933664164529473e-05
8.131065532766382375e+02 2.357015931513805365e-05
8.140070035017508872e+02 2.322971397446563327e-05
8.149074537268634231e+02 2.287785465164088195e-05
8.158079039519759590e+02 2.254410066129351601e-05
8.167083541770884949e+02 2.230971646360145198e-05
8.176088044022010308e+02 2.221837448426829508e-05
8.185092546273135667e+02 2.222923901713340356e-05
8.194097048524262163e+02 2.226245963630260548e-05
8.203101550775387523e+02 2.226369099518957489e-05
8.212106053026512882e+02 2.223539930007897668e-05
8.221110555277638241e+02 2.218785865833393210e-05
8.230115057528763600e+02 2.210206783875345710e-05
8.239119559779890096e+02 2.200830513154433972e-05
8.248124062031015455e+02 2.199703403852745892e-05
8.257128564282140815e+02 2.209465240574106279e-05
8.266133066533266174e+02 2.223996172396394959e-05
8.275137568784391533e+02 2.234020012581011536e-05
8.284142071035516892e+02 2.230837150846996705e-05
8.293146573286643388e+02 2.219245201741887688e-05
8.302151075537768747e+02 2.212752620045711877e-05
8.311155577788894107e+02 2.213175425559609625e-05
8.320160080040019466e+02 2.212127251965562236e-05
8.329164582291144825e+02 2.203213706200023327e-05
8.338169084542270184e+02 2.185995109952946811e-05
8.347173586793396680e+02 2.167725981026829649e-05
8.356178089044522039e+02 2.158454233238390202e-05
8.365182591295647399e+02 2.162080135169222421e-05
8.374187093546772758e+02 2.172805209515708220e-05
8.383191595797898117e+02 2.180749547241161702e-05
8.392196098049024613e+02 2.180941969245686819e-05
8.401200600300149972e+02 2.170614715356021304e-05
8.410205102551275331e+02 2.151177777063012142e-05
8.419209604802400690e+02 2.129626985575884681e-05
8.428214107053526050e+02 2.112297059630213717e-05
8.437218609304651409e+02 2.101002550864537071e-05
8.446223111555777905e+02 2.092239872364651094e-05
8.455227613806903264e+02 2.084835082472712237e-05
8.464232116058028623e+02 2.083462226486861433e-05
8.473236618309153982e+02 2.091403487239794145e-05
8.482241120560279342e+02 2.106922467147924366e-05
8.491245622811405838e+02 2.123431568997651695e-05
8.500250125062531197e+02 2.135242394540342215e-05
8.509254627313656556e+02 2.142667027963064870e-05
8.518259129564781915e+02 2.144654703325648944e-05
8.527263631815907274e+02 2.136016763308264233e-05
8.536268134067032634e+02 2.117125394428418111e-05
8.545272636318159130e+02 2.095379765091879673e-05
8.554277138569284489e+02 2.076852025116200030e-05
8.563281640820409848e+02 2.064339418806134137e-05
8.572286143071535207e+02 2.062265565774675728e-05
8.581290645322660566e+02 2.072994945749891393e-05
8.590295147573785925e+02 2.089874954387617358e-05
8.599299649824912422e+02 2.100684876496515980e-05
8.608304152076037781e+02 2.101595468584652884e-05
8.617308654327163140e+02 2.098635543769719066e-05
8.626313156578288499e+02 2.095146274496004283e-05
8.635317658829413858e+02 2.092624134793571542e-05
8.644322161080540354e+02 2.095425102385712975e-05
8.653326663331665713e+02 2.104675750664313394e-05
8.662331165582791073e+02 2.112241519489482450e-05
8.671335667833916432e+02 2.108366227748674547e-05
8.680340170085041791e+02 2.092772698141652073e-05
8.689344672336167150e+02 2.072413225021698974e-05
8.698349174587293646e+02 2.050299449987051068e-05
8.707353676838419005e+02 2.023260973166694261e-05
8.716358179089544365e+02 1.990070364217291858e-05
8.725362681340669724e+02 1.956294563916603581e-05
8.734367183591795083e+02 1.925955209907963909e-05
8.743371685842921579e+02 1.898869051269603183e-05
8.752376188094046938e+02 1.876243630589496147e-05
8.761380690345172297e+02 1.860757404905883378e-05
8.770385192596297657e+02 1.855270403223886378e-05
8.779389694847423016e+02 1.860323189529561726e-05
8.788394197098548375e+02 1.872260904693929696e-05
8.797398699349674871e+02 1.885194251130697281e-05
8.806403201600800230e+02 1.897097500141506349e-05
8.815407703851925589e+02 1.911206793749071540e-05
8.824412206103050949e+02 1.930398916860456113e-05
8.833416708354176308e+02 1.953522364096758348e-05
8.842421210605301667e+02 1.976394139757128976e-05
8.851425712856428163e+02 1.996582334081952628e-05
8.860430215107553522e+02 2.019673161111832426e-05
8.869434717358678881e+02 2.052866815106904911e-05
8.878439219609804240e+02 2.094056230268298525e-05
8.887443721860929600e+02 2.133664203997990755e-05
8.896448224112056096e+02 2.161656180748005836e-05
8.905452726363181455e+02 2.176864654201738185e-05
8.914457228614306814e+02 2.185727336995873054e-05
8.923461730865432173e+02 2.190330904729953827e-05
8.932466233116557532e+02 2.190115244966284758e-05
8.941470735367682892e+02 2.191696825660602202e-05
8.950475237618809388e+02 2.203031666487019602e-05
8.959479739869934747e+02 2.223882888989576665e-05
8.968484242121060106e+02 2.249800031379703701e-05
8.977488744372185465e+02 2.276074603710765584e-05
8.986493246623310824e+02 2.296236680691347826e-05
8.995497748874437320e+02 2.305547656791294563e-05
9.004502251125562680e+02 2.308831425483865655e-05
9.013506753376688039e+02 2.311404306711005473e-05
9.022511255627813398e+02 2.313627972193325530e-05
9.031515757878938757e+02 2.311999568957797088e-05
9.040520260130064116e+02 2.299517376264849518e-05
9.049524762381190612e+02 2.280476665639911168e-05
9.058529264632315972e+02 2.269139838354361207e-05
9.067533766883441331e+02 2.270301269721651427e-05
9.076538269134566690e+02 2.279307027470303554e-05
9.085542771385692049e+02 2.293623788047341187e-05
9.094547273636817408e+02 2.311426942379379742e-05
9.103551775887943904e+02 2.333020488889600563e-05
9.112556278139069263e+02 2.360016729367160951e-05
9.121560780390194623e+02 2.390942784787501219e-05
9.130565282641319982e+02 2.420939016492350661e-05
9.139569784892445341e+02 2.441134881772250291e-05
9.148574287143571837e+02 2.447958134772740775e-05
9.157578789394697196e+02 2.447732896023404226e-05
9.166583291645822555e+02 2.447840941566237138e-05
9.175587793896947915e+02 2.451228733233782228e-05
9.184592296148073274e+02 2.458645020390191378e-05
9.193596798399198633e+02 2.469613777194909075e-05
9.202601300650325129e+02 2.483204495858955043e-05
9.211605802901450488e+02 2.501322834810675960e-05
9.220610305152575847e+02 2.527016786857331745e-05
9.229614807403701207e+02 2.561262686617719002e-05
9.238619309654826566e+02 2.605468489088227354e-05
9.247623811905953062e+02 2.657754141204216863e-05
9.256628314157078421e+02 2.708282403198672536e-05
9.265632816408203780e+02 2.746296684578584859e-05
9.274637318659329139e+02 2.775015017100132948e-05
9.283641820910454499e+02 2.808322968597449945e-05
9.292646323161579858e+02 2.851166917371153478e-05
9.301650825412706354e+02 2.899934831028502449e-05
9.310655327663831713e+02 2.946890849075822167e-05
9.319659829914957072e+02 2.982162167655209303e-05
9.328664332166082431e+02 3.005346886279706587e-05
9.337668834417207790e+02 3.034571136980619908e-05
9.346673336668334287e+02 3.092362655950857652e-05
9.355677838919459646e+02 3.179586142706462512e-05
9.364682341170585005e+02 3.278467616949703805e-05
9.373686843421710364e+02 3.375619598161625054e-05
9.382691345672835723e+02 3.464517634942045657e-05
9.391695847923961082e+02 3.538575039361336369e-05
9.400700350175087578e+02 3.593957581770303779e-05
9.409704852426212938e+02 3.634903782474014630e-05
9.418709354677338297e+02 3.671247617732525546e-05
9.427713856928463656e+02 3.700849263805408432e-05
9.436718359179589015e+02 3.710402367550197757e-05
9.445722861430714374e+02 3.697187330511857791e-05
9.454727363681840870e+02 3.671483224806916751e-05
9.463731865932966230e+02 3.647090873241193922e-05
9.472736368184091589e+02 3.629836842478628825e-05
9.481740870435216948e+02 3.616438122233291824e-05
9.490745372686342307e+02 3.604227774547600342e-05
9.499749874937468803e+02 3.595274734093834468e-05
9.508754377188594162e+02 3.588341785644263884e-05
9.517758879439719522e+02 3.578597347329814363e-05
9.526763381690844881e+02 3.566424081795309246e-05
9.535767883941970240e+02 3.553523886815916410e-05
9.544772386193095599e+02 3.539071026977103600e-05
9.553776888444222095e+02 3.527602475192051685e-05
9.562781390695347454e+02 3.530863926337002382e-05
9.571785892946472813e+02 3.558344081913004714e-05
9.580790395197598173e+02 3.617919307699913874e-05
9.589794897448723532e+02 3.715673136188758389e-05
9.598799399699850028e+02 3.842230987469693254e-05
9.607803901950975387e+02 3.976031037032716860e-05
9.616808404202100746e+02 4.101106915926885151e-05
9.625812906453226105e+02 4.210400661951860181e-05
9.634817408704351465e+02 4.298326044054777477e-05
9.643821910955476824e+02 4.359633766567881159e-05
9.652826413206603320e+02 4.389670257402964913e-05
9.661830915457728679e+02 4.394264482513030365e-05
9.670835417708854038e+02 4.399680301247636859e-05
9.679839919959979397e+02 4.430417889813523941e-05
9.688844422211104757e+02 4.488327221125767535e-05
9.697848924462230116e+02 4.561145794441210120e-05
9.706853426713356612e+02 4.635544309897574332e-05
9.715857928964481971e+02 4.699248378824263462e-05
9.724862431215607330e+02 4.754608080856926987e-05
9.733866933466732689e+02 4.826006515990197165e-05
9.742871435717858049e+02 4.930520305706602424e-05
9.751875937968984545e+02 5.057838685963487150e-05
9.760880440220109904e+02 5.176780015844240112e-05
9.769884942471235263e+02 5.252084329350698369e-05
9.778889444722360622e+02 5.267007574577997793e-05
9.787893946973485981e+02 5.237110136672105119e-05
9.796898449224611340e+02 5.199724472339906062e-05
9.805902951475737837e+02 5.189164326388846007e-05
9.814907453726863196e+02 5.214178647458361343e-05
9.823911955977988555e+02 5.256265325228911791e-05
9.832916458229113914e+02 5.291421105449125488e-05
9.841920960480239273e+02 5.313208022868601851e-05
9.850925462731365769e+02 5.332687505444912531e-05
9.859929964982491128e+02 5.368776213370788503e-05
9.868934467233616488e+02 5.424854291650080501e-05
9.877938969484741847e+02 5.489827941925404638e-05
9.886943471735867206e+02 5.562252730165676272e-05
9.895947973986992565e+02 5.650896121917516616e-05
9.904952476238119061e+02 5.767490630465576428e-05
9.913956978489244420e+02 5.910025446788460298e-05
9.922961480740369780e+02 6.045470511284993130e-05
9.931965982991495139e+02 6.132080028376517592e-05
9.940970485242620498e+02 6.167610437128958917e-05
9.949974987493745857e+02 6.189259128555175363e-05
9.958979489744872353e+02 6.243425708759954627e-05
9.967983991995997712e+02 6.346265615089065695e-05
9.976988494247123072e+02 6.467826508220455228e-05
9.985992996498248431e+02 6.575908615095990627e-05
9.994997498749373790e+02 6.675297385011421140e-05
1.000400200100050029e+03 6.786223671612883065e-05
1.001300650325162565e+03 6.898004956701541616e-05
1.002201100550275100e+03 6.975122038259836375e-05
1.003101550775387636e+03 6.992036354610135286e-05
1.004002001000500172e+03 6.954850463761524297e-05
1.004902451225612708e+03 6.906120311082191170e-05
1.005802901450725358e+03 6.877070016141180670e-05
1.006703351675837894e+03 6.860998912809046220e-05
1.007603801900950430e+03 6.855754559042876643e-05
1.008504252126062966e+03 6.866058557089549375e-05
1.009404702351175501e+03 6.874828280893611359e-05
1.010305152576288151e+03 6.861804608427406432e-05
1.011205602801400687e+03 6.833454040625640583e-05
1.012106053026513223e+03 6.812970196525278208e-05
1.013006503251625759e+03 6.814427273063824769e-05
1.013906953476738295e+03 6.834527978756472263e-05
1.014807403701850831e+03 6.858533168755644378e-05
1.015707853926963480e+03 6.868748330846817214e-05
1.016608304152076016e+03 6.864075678127633771e-05
1.017508754377188552e+03 6.860091338852914551e-05
1.018409204602301088e+03 6.882619100064717773e-05
1.019309654827413624e+03 6.958224989120951698e-05
1.020210105052526160e+03 7.094761571452221094e-05
1.021110555277638809e+03 7.273405601986449986e-05
1.022011005502751345e+03 7.453363330048689401e-05
1.022911455727863881e+03 7.593789120858125902e-05
1.023811905952976417e+03 7.682595905999320288e-05
1.024712356178089067e+03 7.732543606973371717e-05
1.025612806403201603e+03 7.765307281974873565e-05
1.026513256628314139e+03 7.796368019746489355e-05
1.027413706853426675e+03 7.815202445146059759e-05
1.028314157078539210e+03 7.814782731192282167e-05
1.029214607303651746e+03 7.833240279800994760e-05
1.030115057528764282e+03 7.923630426571232792e-05
1.031015507753876818e+03 8.085522410866055468e-05
1.031915957978989354e+03 8.271287799414340277e-05
1.032816408204101890e+03 8.451245522393732842e-05
1.033716858429214653e+03 8.626489611479688162e-05
1.034617308654327189e+03 8.801099068024738348e-05
1.035517758879439725e+03 8.967521799839641837e-05
1.036418209104552261e+03 9.095901135460945344e-05
1.037318659329664797e+03 9.168996935049720544e-05
1.038219109554777333e+03 9.209298878397997174e-05
1.039119559779889869e+03 9.232131336989845671e-05
1.040020010005002405e+03 9.217622427268505158e-05
1.040920460230114941e+03 9.153824642022308385e-05
1.041820910455227477e+03 9.068220715047819124e-05
1.042721360680340013e+03 8.997100482880365368e-05
1.043621810905452776e+03 8.963507046292586362e-05
1.044522261130565312e+03 8.982206544821858972e-05
1.045422711355677848e+03 9.047334567838419110e-05
1.046323161580790384e+03 9.131879212307627452e-05
1.047223611805902920e+03 9.216724304160080184e-05
1.048124062031015455e+03 9.294614309302503294e-05
1.049024512256127991e+03 9.359537645049542448e-05
1.049924962481240527e+03 9.402650379791803990e-05
1.050825412706353063e+03 9.416447884968710390e-05
1.051725862931465599e+03 9.423728398003566658e-05
1.052626313156578135e+03 9.453353946743273193e-05
1.053526763381690898e+03 9.516038375167318319e-05
1.054427213606803434e+03 9.618867619471596490e-05
1.055327663831915970e+03 9.754822202648546234e-05
1.056228114057028506e+03 9.902837273955928472e-05
1.057128564282141042e+03 1.003470472371950514e-04
1.058029014507253578e+03 1.011499610689516114e-04
1.058929464732366114e+03 1.011770059905454591e-04
1.059829914957478650e+03 1.004391124457663400e-04
1.060730365182591186e+03 9.932846035053272680e-05
1.061630815407703722e+03 9.833197574559000267e-05
1.062531265632816257e+03 9.760966945985049073e-05
1.063431715857929021e+03 9.719579308636354322e-05
1.064332166083041557e+03 9.705694120542795425e-05
1.065232616308154093e+03 9.698905746031241681e-05
1.066133066533266629e+03 9.695925945622891283e-05
1.067033516758379164e+03 9.720248930583126742e-05
1.067933966983491700e+03 9.783035142766773160e-05
1.068834417208604236e+03 9.853188300806182021e-05
1.069734867433716772e+03 9.878701644305858598e-05
1.070635317658829308e+03 9.862288372690479748e-05
1.071535767883941844e+03 9.878167082443324880e-05
1.072436218109054380e+03 9.967338235637829519e-05
1.073336668334167143e+03 1.008795745006585605e-04
1.074237118559279679e+03 1.018080602993743652e-04
1.075137568784392215e+03 1.022707131877920346e-04
1.076038019009504751e+03 1.025630089200981133e-04
1.076938469234617287e+03 1.031560652185006300e-04
1.077838919459729823e+03 1.044205608490282909e-04
1.078739369684842359e+03 1.062699145830690227e-04
1.079639819909954895e+03 1.079232968331693350e-04
1.080540270135067431e+03 1.087798362285881886e-04
1.081440720360179967e+03 1.089037228728624232e-04
1.082341170585292502e+03 1.084212060125325922e-04
1.083241620810405038e+03 1.074394067998615907e-04
1.084142071035517802e+03 1.062146756325873219e-04
1.085042521260630338e+03 1.049663887876520674e-04
1.085942971485742873e+03 1.036452161557242752e-04
1.086843421710855409e+03 1.022108339572016481e-04
1.087743871935967945e+03 1.007611059252953969e-04
1.088644322161080481e+03 9.934806864572397742e-05
1.089544772386193017e+03 9.812399169664890830e-05
1.090445222611305553e+03 9.731100881429894474e-05
1.091345672836418089e+03 9.697665599205196698e-05
1.092246123061530625e+03 9.708601963253820158e-05
1.093146573286643161e+03 9.751752274504647670e-05
1.094047023511755924e+03 9.821220694437842326e-05
1.094947473736868460e+03 9.920708126871098621e-05
1.095847923961980996e+03 1.003633388920373721e-04
1.096748374187093532e+03 1.013778728925453969e-04
1.097648824412206068e+03 1.018160178296808899e-04
1.098549274637318604e+03 1.012094813090571709e-04
1.099449724862431140e+03 9.968692263092190583e-05
1.100350175087543676e+03 9.810508027396582951e-05
1.101250625312656211e+03 9.734556815005259572e-05
1.102151075537768747e+03 9.779691314145993097e-05
1.103051525762881283e+03 9.936522688979920683e-05
1.103951975987994047e+03 1.016470371733011916e-04
1.104852426213106583e+03 1.041247309507218602e-04
1.105752876438219118e+03 1.064700946354023541e-04
1.106653326663331654e+03 1.086950079757684852e-04
1.107553776888444190e+03 1.107219864932648424e-04
1.108454227113556726e+03 1.121610113344449647e-04
1.109354677338669262e+03 1.127993894677656436e-04
1.110255127563781798e+03 1.128906877127404721e-04
1.111155577788894334e+03 1.128374059876563256e-04
1.112056028014006870e+03 1.130755107970193033e-04
1.112956478239119406e+03 1.139472009746728153e-04
1.113856928464232169e+03 1.153720273511443589e-04
1.114757378689344705e+03 1.171340851594705604e-04
1.115657828914457241e+03 1.190317284722096033e-04
1.116558279139569777e+03 1.205318105207506561e-04
1.117458729364682313e+03 1.210987597565446627e-04
1.118359179589794849e+03 1.210236977159519185e-04
1.119259629814907385e+03 1.210786340030691827e-04
1.120160080040019920e+03 1.217349867458533718e-04
1.121060530265132456e+03 1.230495467105073982e-04
1.121960980490244992e+03 1.248042080855656035e-04
1.122861430715357528e+03 1.267721155416347842e-04
1.123761880940470292e+03 1.288873744584656739e-04
1.124662331165582827e+03 1.312685575748511488e-04
1.125562781390695363e+03 1.338269805924427512e-04
1.126463231615807899e+03 1.361421270786521381e-04
1.127363681840920435e+03 1.382558219462360054e-04
1.128264132066032971e+03 1.405481639709909431e-04
1.129164582291145507e+03 1.430754842248300139e-04
1.130065032516258043e+03 1.457536814317116883e-04
1.130965482741370579e+03 1.484782134526434834e-04
1.131865932966483115e+03 1.508303680134326255e-04
1.132766383191595651e+03 1.524310325876255959e-04
1.133666833416708187e+03 1.536841418188851548e-04
1.134567283641820950e+03 1.556576480437687029e-04
1.135467733866933486e+03 1.590677056989282627e-04
1.136368184092046022e+03 1.638223591227740443e-04
1.137268634317158558e+03 1.694009489400251616e-04
1.138169084542271094e+03 1.753695597659981015e-04
1.139069534767383630e+03 1.816601773031946605e-04
1.139969984992496165e+03 1.882341396028632463e-04
1.140870435217608701e+03 1.949609284140939932e-04
1.141770885442721237e+03 2.023631192398072103e-04
1.142671335667833773e+03 2.113577292135283630e-04
1.143571785892946309e+03 2.219540996332421232e-04
1.144472236118059072e+03 2.332801137381269245e-04
1.145372686343171608e+03 2.448278209185071955e-04
1.146273136568284144e+03 2.571490150233734151e-04
1.147173586793396680e+03 2.713651142212808996e-04
1.148074037018509216e+03 2.881872817742816661e-04
1.148974487243621752e+03 3.082986222626799499e-04
1.149874937468734288e+03 3.338324984960957457e-04
1.150775387693846824e+03 3.680260219434701289e-04
1.151675837918959360e+03 4.132901544583095005e-04
1.152576288144071896e+03 4.704636235065901744e-04
1.153476738369184432e+03 5.388033073103260830e-04
1.154377188594297195e+03 6.168443094789173922e-04
1.155277638819409731e+03 7.065695498480993337e-04
1.156178089044522267e+03 8.160477480722292450e-04
1.157078539269634803e+03 9.531410691309816609e-04
1.157978989494747339e+03 1.118401920403198956e-03
1.158879439719859874e+03 1.306840019975341128e-03
1.159779889944972410e+03 1.512917530797018443e-03
1.160680340170084946e+03 1.727188924950562700e-03
1.161580790395197482e+03 1.931185483922872887e-03
1.162481240620310018e+03 2.112930321899571945e-03
1.163381690845422554e+03 2.271719679256238231e-03
1.164282141070535317e+03 2.396323966473256142e-03
1.165182591295647853e+03 2.458610257049072528e-03
1.166083041520760389e+03 2.435748689418548892e-03
1.166983491745872925e+03 2.329349332089713891e-03
1.167883941970985461e+03 2.161814040428425981e-03
1.168784392196097997e+03 1.965474769622759660e-03
1.169684842421210533e+03 1.764305590945196506e-03
1.170585292646323069e+03 1.567100235631984501e-03
1.171485742871435605e+03 1.381982137453680298e-03
1.172386193096548141e+03 1.219954135228168597e-03
1.173286643321660677e+03 1.084341757099793833e-03
1.174187093546773440e+03 9.709645792714769732e-04
1.175087543771885976e+03 8.806954861504414332e-04
1.175987993996998512e+03 8.136600410522008223e-04
1.176888444222111048e+03 7.602736522535890338e-04
1.177788894447223583e+03 7.140306463290630162e-04
1.178689344672336119e+03 6.799667370556275242e-04
1.179589794897448655e+03 6.625571374283946522e-04
1.180490245122561191e+03 6.581814107771828638e-04
1.181390695347673727e+03 6.603953286870833375e-04
1.182291145572786263e+03 6.663344710733950073e-04
1.183191595797898799e+03 6.757476962870633593e-04
1.184092046023011562e+03 6.851704575512907206e-04
1.184992496248124098e+03 6.899125647921781858e-04
1.185892946473236634e+03 6.901633891553375514e-04
1.186793396698349170e+03 6.910906158645381851e-04
1.187693846923461706e+03 6.959089588454933119e-04
1.188594297148574242e+03 7.045659644513853868e-04
1.189494747373686778e+03 7.177813590646599674e-04
1.190395197598799314e+03 7.342921851999259205e-04
1.191295647823911850e+03 7.484904226234778647e-04
1.192196098049024386e+03 7.546512333190031783e-04
1.193096548274136921e+03 7.496743314946679570e-04
1.193996998499249457e+03 7.321012138957998109e-04
1.194897448724362221e+03 7.036902661925896517e-04
1.195797898949474757e+03 6.701895239908056776e-04
1.196698349174587293e+03 6.364779628870480743e-04
1.197598799399699828e+03 6.045647888526792853e-04
1.198499249624812364e+03 5.743102432612359927e-04
1.199399699849924900e+03 5.457974098785743243e-04
1.200300150075037436e+03 5.205366442899129163e-04
1.201200600300149972e+03 4.988854370694756823e-04
1.202101050525262508e+03 4.793914201238539644e-04
1.203001500750375044e+03 4.612627552761543247e-04
1.203901950975487580e+03 4.463858595275414158e-04
1.204802401200600343e+03 4.371889331722011085e-04
1.205702851425712879e+03 4.330099002304128256e-04
1.206603301650825415e+03 4.296470668780661968e-04
1.207503751875937951e+03 4.232769952418368505e-04
1.208404202101050487e+03 4.147708050685215198e-04
1.209304652326163023e+03 4.073741771468024960e-04
1.210205102551275559e+03 4.014444978983033570e-04
1.211105552776388095e+03 3.947020134651028152e-04
1.212006003001500630e+03 3.856808184339699085e-04
1.212906453226613166e+03 3.749550414654988987e-04
1.213806903451725702e+03 3.637758546046359113e-04
1.214707353676838466e+03 3.512400585271634808e-04
1.215607803901951002e+03 3.362496164918201032e-04
1.216508254127063537e+03 3.218051194439623024e-04
1.217408704352176073e+03 3.119908220041545761e-04
1.218309154577288609e+03 3.057187400532015162e-04
1.219209604802401145e+03 2.977678878095009344e-04
1.220110055027513681e+03 2.862103054147993662e-04
1.221010505252626217e+03 2.747818963391167909e-04
1.221910955477738753e+03 2.676131475505962943e-04
1.222811405702851289e+03 2.656860270415703214e-04
1.223711855927963825e+03 2.673201522977966429e-04
1.224612306153076588e+03 2.686159520555483188e-04
1.225512756378189124e+03 2.657389298369728899e-04
1.226413206603301660e+03 2.591715310480226025e-04
1.227313656828414196e+03 2.529560248945623589e-04
1.228214107053526732e+03 2.501086552665126249e-04
1.229114557278639268e+03 2.503967069159042922e-04
1.230015007503751804e+03 2.513268575657356669e-04
1.230915457728864340e+03 2.513428241997876767e-04
1.231815907953976875e+03 2.517326092454630609e-04
1.232716358179089411e+03 2.540083678064856921e-04
1.233616808404201947e+03 2.573655888700948982e-04
1.234517258629314711e+03 2.612122141881127540e-04
1.235417708854427246e+03 2.670440975553442552e-04
1.236318159079539782e+03 2.759932705379393122e-04
1.237218609304652318e+03 2.878692171787494355e-04
1.238119059529764854e+03 3.019898250016754397e-04
1.239019509754877390e+03 3.169158248006619300e-04
1.239919959979989926e+03 3.308051664884118577e-04
1.240820410205102462e+03 3.422092173055037807e-04
1.241720860430214998e+03 3.506355069832840419e-04
1.242621310655327534e+03 3.565133459978168029e-04
1.243521760880440070e+03 3.594114726919725509e-04
1.244422211105552606e+03 3.591538341080029043e-04
1.245322661330665369e+03 3.569441102213649023e-04
1.246223111555777905e+03 3.540266945900632698e-04
1.247123561780890441e+03 3.516267729719231333e-04
1.248024012006002977e+03 3.508092660984182517e-04
1.248924462231115513e+03 3.521988172321837448e-04
1.249824912456228049e+03 3.557636174160018852e-04
1.250725362681340584e+03 3.608088691685493675e-04
1.251625812906453120e+03 3.664641910499469063e-04
1.252526263131565656e+03 3.723090011609430619e-04
1.253426713356678192e+03 3.788309013105568184e-04
1.254327163581790728e+03 3.866813005773412216e-04
1.255227613806903491e+03 3.960641373196960410e-04
1.256128064032016027e+03 4.064227288220494030e-04
1.257028514257128563e+03 4.170231982418617640e-04
1.257928964482241099e+03 4.275927888209038008e-04
1.258829414707353635e+03 4.377035267962286623e-04
1.259729864932466171e+03 4.473072782146827152e-04
1.260630315157578707e+03 4.577367883808368875e-04
1.261530765382691243e+03 4.704278303618388457e-04
1.262431215607803779e+03 4.855152799073601507e-04
1.263331665832916315e+03 5.021913856891594601e-04
1.264232116058028851e+03 5.199310589375427324e-04
1.265132566283141614e+03 5.390464081051096583e-04
1.266033016508254150e+03 5.601951512239900215e-04
1.266933466733366686e+03 5.831101125399076966e-04
1.267833916958479222e+03 6.060020653627252313e-04
1.268734367183591758e+03 6.260253826930003334e-04
1.269634817408704293e+03 6.405793438136089379e-04
1.270535267633816829e+03 6.485871786248915190e-04
1.271435717858929365e+03 6.520209766643477118e-04
1.272336168084041901e+03 6.553763087206521728e-04
1.273236618309154437e+03 6.627832648170275866e-04
1.274137068534266973e+03 6.767746517675706820e-04
1.275037518759379736e+03 6.981187836377747468e-04
1.275937968984492272e+03 7.253034696506133801e-04
1.276838419209604808e+03 7.555095024905783552e-04
1.277738869434717344e+03 7.863407982153661560e-04
1.278639319659829880e+03 8.167053200976395104e-04
1.279539769884942416e+03 8.465225903387991633e-04
1.280440220110054952e+03 8.762906204450620273e-04
1.281340670335167488e+03 9.053902740425585601e-04
1.282241120560280024e+03 9.313527903375257676e-04
1.283141570785392560e+03 9.520532119879726541e-04
1.284042021010505096e+03 9.664790570952239623e-04
1.284942471235617859e+03 9.742716213221927751e-04
1.285842921460730395e+03 9.763884606396231423e-04
1.286743371685842931e+03 9.748545554215496149e-04
1.287643821910955467e+03 9.718381243593660545e-04
1.288544272136068003e+03 9.688463201880911967e-04
1.289444722361180538e+03 9.664933873416183246e-04
1.290345172586293074e+03 9.659477856033502627e-04
1.291245622811405610e+03 9.683254198562360644e-04
1.292146073036518146e+03 9.737678116704616936e-04
1.293046523261630682e+03 9.818811524420364110e-04
1.293946973486743218e+03 9.924004263957815833e-04
1.294847423711855754e+03 1.004702490759686257e-03
1.295747873936968517e+03 1.016509282533747558e-03
1.296648324162081053e+03 1.025533724257293808e-03
1.297548774387193589e+03 1.032286065054699789e-03
1.298449224612306125e+03 1.038536599531718818e-03
1.299349674837418661e+03 1.044971987066672546e-03
1.300250125062531197e+03 1.051779447681053985e-03
1.301150575287643733e+03 1.059288507470629347e-03
1.302051025512756269e+03 1.067147220474909224e-03
1.302951475737868805e+03 1.074133072927702407e-03
1.303851925962981340e+03 1.080291087061776775e-03
1.304752376188093876e+03 1.087920509133704847e-03
1.305652826413206640e+03 1.099082744510349562e-03
1.306553276638319176e+03 1.113303902851021107e-03
1.307453726863431712e+03 1.128451334477184381e-03
1.308354177088544247e+03 1.143035409725192721e-03
1.309254627313656783e+03 1.157401538663469908e-03
1.310155077538769319e+03 1.173501485831732454e-03
1.311055527763881855e+03 1.191803542294201041e-03
1.311955977988994391e+03 1.209591843253696782e-03
1.312856428214106927e+03 1.224480069818152357e-03
1.313756878439219463e+03 1.236388429784367757e-03
1.314657328664331999e+03 1.245631781784330497e-03
1.315557778889444762e+03 1.253123966993417064e-03
1.316458229114557298e+03 1.261112732304409600e-03
1.317358679339669834e+03 1.271022710841388263e-03
1.318259129564782370e+03 1.283198133316479318e-03
1.319159579789894906e+03 1.297285210108881917e-03
1.320060030015007442e+03 1.312351467322985877e-03
1.320960480240119978e+03 1.328686468173248579e-03
1.321860930465232514e+03 1.347803311039621858e-03
1.322761380690345050e+03 1.370714773300729748e-03
1.323661830915457585e+03 1.399331781511038578e-03
1.324562281140570121e+03 1.435210950363096294e-03
1.325462731365682885e+03 1.476140802384900627e-03
1.326363181590795421e+03 1.516673470790731336e-03
1.327263631815907956e+03 1.553648040970131289e-03
1.328164082041020492e+03 1.588991506741288572e-03
1.329064532266133028e+03 1.626400494175738376e-03
1.329964982491245564e+03 1.668773099827891744e-03
1.330865432716358100e+03 1.716872117701295905e-03
1.331765882941470636e+03 1.770242460742826483e-03
1.332666333166583172e+03 1.829423994599539173e-03
1.333566783391695708e+03 1.894214102509563956e-03
1.334467233616808244e+03 1.961015324592113151e-03
1.335367683841921007e+03 2.026320356912365839e-03
1.336268134067033543e+03 2.089866109567735213e-03
1.337168584292146079e+03 2.152644597253780285e-03
1.338069034517258615e+03 2.216185899755989622e-03
1.338969484742371151e+03 2.282872808931849483e-03
1.339869934967483687e+03 2.354731193864798011e-03
1.340770385192596223e+03 2.433950579461384954e-03
1.341670835417708759e+03 2.521074324609439039e-03
1.342571285642821294e+03 2.613565643121077212e-03
1.343471735867933830e+03 2.710268762358592973e-03
1.344372186093046366e+03 2.814315250951210726e-03
1.345272636318158902e+03 2.931314944160094693e-03
1.346173086543271666e+03 3.063865897031513557e-03
1.347073536768384201e+03 3.208017518165135872e-03
1.347973986993496737e+03 3.352904289585103160e-03
1.348874437218609273e+03 3.485157621848218330e-03
1.349774887443721809e+03 3.600419144195294695e-03
1.350675337668834345e+03 3.711230700345795937e-03
1.351575787893946881e+03 3.831261583768457921e-03
1.352476238119059417e+03 3.961154411134387536e-03
1.353376688344171953e+03 4.101715698752191226e-03
1.354277138569284489e+03 4.259924174051124210e-03
1.355177588794397025e+03 4.437403009024892299e-03
1.356078039019509788e+03 4.627626908615629052e-03
1.356978489244622324e+03 4.822097697793577276e-03
1.357878939469734860e+03 5.011586042682389906e-03
1.358779389694847396e+03 5.192311865689193742e-03
1.359679839919959932e+03 5.367705709753251356e-03
1.360580290145072468e+03 5.539232866241926116e-03
1.361480740370185003e+03 5.702711024467110694e-03
1.362381190595297539e+03 5.862647295623507789e-03
1.363281640820410075e+03 6.047085458693529994e-03
1.364182091045522611e+03 6.282303802532408082e-03
1.365082541270635147e+03 6.566511703171676838e-03
1.365982991495747910e+03 6.890446516713450396e-03
1.366883441720860446e+03 7.251095076783026921e-03
1.367783891945972982e+03 7.641378003103684730e-03
1.368684342171085518e+03 8.049865824946879703e-03
1.369584792396198054e+03 8.453615076862206965e-03
1.370485242621310590e+03 8.817861008350559582e-03
1.371385692846423126e+03 9.131294476409411789e-03
1.372286143071535662e+03 9.416707661623842374e-03
1.373186593296648198e+03 9.703150569296700723e-03
1.374087043521760734e+03 1.000224618704320320e-02
1.374987493746873270e+03 1.033384624630727389e-02
1.375887943971986033e+03 1.074183918460004314e-02
1.376788394197098569e+03 1.125030397733762719e-02
1.377688844422211105e+03 1.183118157066221678e-02
1.378589294647323641e+03 1.242225386308074171e-02
1.379489744872436177e+03 1.297440833349290147e-02
1.380390195097548713e+03 1.346300582332130361e-02
1.381290645322661248e+03 1.389833147065016455e-02
1.382191095547773784e+03 1.435137853518006316e-02
1.383091545772886320e+03 1.491028234376866671e-02
1.383991995997998856e+03 1.561145335212185681e-02
1.384892446223111392e+03 1.642221304080285563e-02
1.385792896448224155e+03 1.726399805705458590e-02
1.386693346673336691e+03 1.807201885085647081e-02
1.387593796898449227e+03 1.883881384030271916e-02
1.388494247123561763e+03 1.963848411658668594e-02
1.389394697348674299e+03 2.057515589227874517e-02
1.390295147573786835e+03 2.170507943472737428e-02
1.391195597798899371e+03 2.302302931718677032e-02
1.392096048024011907e+03 2.448153108572849804e-02
1.392996498249124443e+03 2.602659814549174166e-02
1.393896948474236979e+03 2.762289131409574258e-02
1.394797398699349515e+03 2.927304698504691605e-02
1.395697848924462278e+03 3.094589511467039575e-02
1.396598299149574814e+03 3.252467736541638649e-02
1.397498749374687350e+03 3.388872977918498675e-02
1.398399199599799886e+03 3.495236825894876276e-02
1.399299649824912422e+03 3.568699864345836748e-02
1.400200100050024957e+03 3.608449039968223554e-02
1.401100550275137493e+03 3.610982513092821783e-02
1.402001000500250029e+03 3.578552600452203358e-02
1.402901450725362565e+03 3.523891934266751291e-02
1.403801900950475101e+03 3.458211684268880370e-02
1.404702351175587637e+03 3.380805893353305835e-02
1.405602801400700173e+03 3.283630480376962396e-02
1.406503251625812936e+03 3.164125635253752650e-02
1.407403701850925472e+03 3.033469058643008948e-02
1.408304152076038008e+03 2.913601909536208193e-02
1.409204602301150544e+03 2.820820411626578580e-02
1.410105052526263080e+03 2.754671743507200107e-02
1.411005502751375616e+03 2.705193855464958427e-02
1.411905952976488152e+03 2.660379445487573435e-02
1.412806403201600688e+03 2.607791315376390556e-02
1.413706853426713224e+03 2.545877720786152848e-02
1.414607303651825760e+03 2.482465879063838407e-02
1.415507753876938295e+03 2.422001130456739870e-02
1.416408204102051059e+03 2.359805609487682782e-02
1.417308654327163595e+03 2.287904517801644250e-02
1.418209104552276131e+03 2.203096236212075121e-02
1.419109554777388666e+03 2.103571474430862565e-02
1.420010005002501202e+03 1.992329863281363383e-02
1.420910455227613738e+03 1.879830504203969591e-02
1.421810905452726274e+03 1.773819270437704265e-02
1.422711355677838810e+03 1.678434794338376501e-02
1.423611805902951346e+03 1.593514808456855669e-02
1.424512256128063882e+03 1.512114424211617736e-02
1.425412706353176418e+03 1.427503950533754069e-02
1.426313156578289181e+03 1.339994586533297012e-02
1.427213606803401717e+03 1.254835204378844209e-02
1.428114057028514253e+03 1.176760249893867016e-02
1.429014507253626789e+03 1.106099590222876100e-02
1.429914957478739325e+03 1.042417751294284420e-02
1.430815407703851861e+03 9.863459108973952894e-03
1.431715857928964397e+03 9.370547773839537492e-03
1.432616308154076933e+03 8.925414530930162252e-03
1.433516758379189469e+03 8.500742446922070900e-03
1.434417208604302004e+03 8.080152454736934040e-03
1.435317658829414540e+03 7.672973246961170730e-03
1.436218109054527304e+03 7.300500054431031428e-03
1.437118559279639840e+03 6.988495176688874419e-03
1.438019009504752376e+03 6.753767304242356065e-03
1.438919459729864911e+03 6.589205281052589076e-03
1.439819909954977447e+03 6.453564827352874754e-03
1.440720360180089983e+03 6.299667118786581380e-03
1.441620810405202519e+03 6.122514779501839720e-03
1.442521260630315055e+03 5.943528266530336002e-03
1.443421710855427591e+03 5.769869680006098692e-03
1.444322161080540127e+03 5.590034880869640919e-03
1.445222611305652663e+03 5.390024725135171731e-03
1.446123061530765426e+03 5.183546398782826019e-03
1.447023511755877962e+03 5.002263373766652026e-03
1.447923961980990498e+03 4.851698996698360772e-03
1.448824412206103034e+03 4.715000827500041153e-03
1.449724862431215570e+03 4.585230072020117335e-03
1.450625312656328106e+03 4.466253675961422143e-03
1.451525762881440642e+03 4.360134997629008802e-03
1.452426213106553178e+03 4.266115870305776242e-03
1.453326663331665713e+03 4.181457857424952622e-03
1.454227113556778249e+03 4.098695216775002752e-03
1.455127563781890785e+03 4.009431371422010268e-03
1.456028014007003321e+03 3.911691978487469128e-03
1.456928464232116085e+03 3.804283018573702355e-03
1.457828914457228620e+03 3.689238219777459318e-03
1.458729364682341156e+03 3.581843434920100287e-03
1.459629814907453692e+03 3.488380063304706222e-03
1.460530265132566228e+03 3.396018730395430115e-03
1.461430715357678764e+03 3.302248994031298495e-03
1.462331165582791300e+03 3.212114305846930536e-03
1.463231615807903836e+03 3.124703734205090330e-03
1.464132066033016372e+03 3.036905242893568006e-03
1.465032516258128908e+03 2.945968308546300686e-03
1.465932966483241444e+03 2.851044532372026732e-03
1.466833416708354207e+03 2.753623112636721746e-03
1.467733866933466743e+03 2.658321964315901818e-03
1.468634317158579279e+03 2.567551748647252212e-03
1.469534767383691815e+03 2.478280676604867425e-03
1.470435217608804351e+03 2.386663172853923254e-03
1.471335667833916887e+03 2.293783196735212516e-03
1.472236118059029423e+03 2.205646537313686942e-03
1.473136568284141958e+03 2.124493304075858111e-03
1.474037018509254494e+03 2.048582533962135539e-03
1.474937468734367030e+03 1.977406413424768073e-03
1.475837918959479566e+03 1.909316389214135408e-03
1.476738369184592329e+03 1.844282495253904116e-03
1.477638819409704865e+03 1.786971581055479602e-03
1.478539269634817401e+03 1.736529894117254738e-03
1.479439719859929937e+03 1.687308974808029863e-03
1.480340170085042473e+03 1.639180247978381600e-03
1.481240620310155009e+03 1.597061256351688238e-03
1.482141070535267545e+03 1.563405355692392990e-03
1.483041520760380081e+03 1.534886518661752281e-03
1.483941970985492617e+03 1.504636512448942172e-03
1.484842421210605153e+03 1.466147583437810761e-03
1.485742871435717689e+03 1.417670508036448195e-03
1.486643321660830452e+03 1.361707206284054270e-03
1.487543771885942988e+03 1.302420548016762058e-03
1.488444222111055524e+03 1.244155785144526044e-03
1.489344672336168060e+03 1.191149484691507920e-03
1.490245122561280596e+03 1.146020017147783608e-03
1.491145572786393132e+03 1.109293578131003702e-03
1.492046023011505667e+03 1.080526567385648286e-03
1.492946473236618203e+03 1.058054097805191359e-03
1.493846923461730739e+03 1.039876126420705843e-03
1.494747373686843275e+03 1.025464650526923798e-03
1.495647823911955811e+03 1.013444605223544522e-03
1.496548274137068574e+03 1.000002067163648827e-03
1.497448724362181110e+03 9.839710207875558556e-04
1.498349174587293646e+03 9.678942802936017645e-04
1.499249624812406182e+03 9.537930248703722349e-04
1.500150075037518718e+03 9.405956207960270137e-04
1.501050525262631254e+03 9.265275958531764928e-04
1.501950975487743790e+03 9.122133476341220525e-04
1.502851425712856326e+03 8.993431323268177282e-04
1.503751875937968862e+03 8.888578071037969404e-04
1.504652326163081398e+03 8.805494942943783250e-04
1.505552776388193934e+03 8.744885812048523461e-04
1.506453226613306470e+03 8.735625941486568511e-04
1.507353676838419233e+03 8.802809763487348194e-04
1.508254127063531769e+03 8.918573344220737152e-04
1.509154577288644305e+03 9.026806233866856936e-04
1.510055027513756841e+03 9.083293150442748850e-04
1.510955477738869376e+03 9.079289203598096434e-04
1.511855927963981912e+03 9.035020863842782406e-04
1.512756378189094448e+03 8.972649488350050795e-04
1.513656828414206984e+03 8.912297623053041682e-04
1.514557278639319520e+03 8.866651982559174564e-04
1.515457728864432056e+03 8.843827421847120888e-04
1.516358179089544592e+03 8.859423323484935837e-04
1.517258629314657355e+03 8.903274457225297421e-04
1.518159079539769891e+03 8.932136486458398545e-04
1.519059529764882427e+03 8.914570323452048698e-04
1.519959979989994963e+03 8.843939442244464887e-04
1.520860430215107499e+03 8.736593192663318422e-04
1.521760880440220035e+03 8.622492248262450141e-04
1.522661330665332571e+03 8.518213387492884958e-04
1.523561780890445107e+03 8.428487876556895776e-04
1.524462231115557643e+03 8.362243508746637372e-04
1.525362681340670179e+03 8.320396494409030945e-04
1.526263131565782714e+03 8.280840964471512453e-04
1.527163581790895478e+03 8.217245476707411367e-04
1.528064032016008014e+03 8.134205227001664899e-04
1.528964482241120550e+03 8.066906591480047222e-04
1.529864932466233086e+03 8.045105479903783691e-04
1.530765382691345621e+03 8.066873929248723771e-04
1.531665832916458157e+03 8.099303381996514903e-04
1.532566283141570693e+03 8.100474134451544602e-04
1.533466733366683229e+03 8.050046180013951816e-04
1.534367183591795765e+03 7.967764006859490633e-04
1.535267633816908301e+03 7.898594866672999527e-04
1.536168084042020837e+03 7.867727595171189383e-04
1.537068534267133600e+03 7.872090925252691078e-04
1.537968984492246136e+03 7.894500397328941925e-04
1.538869434717358672e+03 7.916278752723032459e-04
1.539769884942471208e+03 7.936483683048543760e-04
1.540670335167583744e+03 7.958736895792139360e-04
1.541570785392696280e+03 7.951365154018086865e-04
1.542471235617808816e+03 7.886371227608588970e-04
1.543371685842921352e+03 7.799551722805405643e-04
1.544272136068033888e+03 7.756312074095598379e-04
1.545172586293146423e+03 7.784411569475319526e-04
1.546073036518258959e+03 7.852242637437320972e-04
1.546973486743371723e+03 7.903207482067428277e-04
1.547873936968484259e+03 7.909190774858712971e-04
1.548774387193596795e+03 7.874473029906309957e-04
1.549674837418709330e+03 7.816064550325761912e-04
1.550575287643821866e+03 7.746174864858473884e-04
1.551475737868934402e+03 7.666713189957424920e-04
1.552376188094046938e+03 7.585401044434851494e-04
1.553276638319159474e+03 7.526679561710397474e-04
1.554177088544272010e+03 7.514416048894760093e-04
1.555077538769384546e+03 7.534952905152256675e-04
1.555977988994497082e+03 7.542316315225574023e-04
1.556878439219609618e+03 7.513286096969849564e-04
1.557778889444722381e+03 7.459520090293380711e-04
1.558679339669834917e+03 7.399914747898502952e-04
1.559579789894947453e+03 7.341647282355229231e-04
1.560480240120059989e+03 7.302137738606707040e-04
1.561380690345172525e+03 7.327121212417655972e-04
1.562281140570285061e+03 7.454564047537232943e-04
1.563181590795397597e+03 7.673524578052070546e-04
1.564082041020510133e+03 7.922206803269337327e-04
1.564982491245622668e+03 8.132514099224650824e-04
1.565882941470735204e+03 8.296910058031045469e-04
1.566783391695847740e+03 8.465198761696373893e-04
1.567683841920960504e+03 8.676331908812302341e-04
1.568584292146073039e+03 8.963850342211582192e-04
1.569484742371185575e+03 9.359442360342753184e-04
1.570385192596298111e+03 9.831478473805123006e-04
1.571285642821410647e+03 1.027491907508110494e-03
1.572186093046523183e+03 1.059290781842124520e-03
1.573086543271635719e+03 1.071976156629454290e-03
1.573986993496748255e+03 1.063181802253088896e-03
1.574887443721860791e+03 1.036732950583780805e-03
1.575787893946973327e+03 9.949152848186435753e-04
1.576688344172085863e+03 9.328896793379748767e-04
1.577588794397198626e+03 8.439669760792030623e-04
1.578489244622311162e+03 7.295978773124691058e-04
1.579389694847423698e+03 6.052408121419600726e-04
1.580290145072536234e+03 4.913778186795663945e-04
1.581190595297648770e+03 3.997744923789988856e-04
1.582091045522761306e+03 3.309191062078477405e-04
1.582991495747873842e+03 2.800763108840264009e-04
1.583891945972986377e+03 2.421853185387252765e-04
1.584792396198098913e+03 2.133822029505527912e-04
1.585692846423211449e+03 1.909951661085872090e-04
1.586593296648323985e+03 1.732191327914371984e-04
1.587493746873436749e+03 1.588278107674147147e-04
1.588394197098549284e+03 1.469743371526240354e-04
1.589294647323661820e+03 1.370621545680643719e-04
1.590195097548774356e+03 1.286624801825805831e-04
1.591095547773886892e+03 1.214611885878582692e-04
1.591995997998999428e+03 1.152241122438613883e-04
1.592896448224111964e+03 1.097739719158185044e-04
1.593796898449224500e+03 1.049747676362100920e-04
1.594697348674337036e+03 1.007210494183264732e-04
1.595597798899449572e+03 9.693045173286603396e-05
1.596498249124562108e+03 9.353847009688426913e-05
1.597398699349674871e+03 9.049483403785846215e-05
1.598299149574787407e+03 8.776107963353986323e-05
1.599199599799899943e+03 8.530910419758715581e-05
1.600100050025012479e+03 8.312063544114718736e-05
1.601000500250125015e+03 8.118770073285473752e-05
1.601900950475237551e+03 7.951437081382964551e-05
1.602801400700350086e+03 7.812029999416188111e-05
1.603701850925462622e+03 7.704684702188036288e-05
1.604602301150575158e+03 7.636645226013233259e-05
1.605502751375687694e+03 7.619366928282911614e-05
1.606403201600800230e+03 7.668506325512565371e-05
1.607303651825912766e+03 7.797699666453720990e-05
1.608204102051025529e+03 7.994225184243564672e-05
1.609104552276138065e+03 8.179436853717324154e-05
1.610005002501250601e+03 8.241969117123966535e-05
1.610905452726363137e+03 8.179720368874043802e-05
1.611805902951475673e+03 8.079727035237242575e-05
1.612706353176588209e+03 7.974707212999711877e-05
1.613606803401700745e+03 7.839290161812764203e-05
1.614507253626813281e+03 7.599694414482312287e-05
1.615407703851925817e+03 7.219278540700942441e-05
1.616308154077038353e+03 6.788235460561099993e-05
1.617208604302150889e+03 6.404971228739952298e-05
1.618109054527263652e+03 6.097821295032248049e-05
1.619009504752376188e+03 5.856264613760866751e-05
1.619909954977488724e+03 5.662808948132839408e-05
1.620810405202601260e+03 5.503240050214616789e-05
1.621710855427713796e+03 5.367652066111923897e-05
1.622611305652826331e+03 5.249403118838590152e-05
1.623511755877938867e+03 5.144036177081939902e-05
1.624412206103051403e+03 5.048512136987851843e-05
1.625312656328163939e+03 4.960713372413185987e-05
1.626213106553276475e+03 4.879129625833648773e-05
1.627113556778389011e+03 4.802658685786163358e-05
1.628014007003501774e+03 4.730478189139852337e-05
1.628914457228614310e+03 4.661961694878780847e-05
1.629814907453726846e+03 4.596622680867844658e-05
1.630715357678839382e+03 4.534076450961064338e-05
1.631615807903951918e+03 4.474013739494406348e-05
1.632516258129064454e+03 4.416182095204411706e-05
1.633416708354176990e+03 4.360372530915801231e-05
1.634317158579289526e+03 4.306409798122006095e-05
1.635217608804402062e+03 4.254145197071874311e-05
1.636118059029514598e+03 4.203451187287433909e-05
1.637018509254627133e+03 4.154217294805185857e-05
1.637918959479739897e+03 4.106346965901839851e-05
1.638819409704852433e+03 4.059755120395101049e-05
1.639719859929964969e+03 4.014366228179011716e-05
1.640620310155077505e+03 3.970112781497395530e-05
1.641520760380190040e+03 3.926934069703026615e-05
1.642421210605302576e+03 3.884775187545357614e-05
1.643321660830415112e+03 3.843586225464831096e-05
1.644222111055527648e+03 3.803321603021766741e-05
1.645122561280640184e+03 3.763939515854611306e-05
1.646023011505752720e+03 3.725401473422704180e-05
1.646923461730865256e+03 3.687671909910350955e-05
1.647823911955978019e+03 3.650717854528016509e-05
1.648724362181090555e+03 3.614508650376762998e-05
1.649624812406203091e+03 3.579015713288696452e-05
1.650525262631315627e+03 3.544212323784883732e-05
1.651425712856428163e+03 3.510073446640856246e-05
1.652326163081540699e+03 3.476575573600778723e-05
1.653226613306653235e+03 3.443696585611828368e-05
1.654127063531765771e+03 3.411415631608251349e-05
1.655027513756878307e+03 3.379713021397984577e-05
1.655927963981990843e+03 3.348570130627206331e-05
1.656828414207103378e+03 3.317969316136842059e-05
1.657728864432216142e+03 3.287893840300571839e-05
1.658629314657328678e+03 3.258327803159437981e-05
1.659529764882441214e+03 3.229256081351803586e-05
1.660430215107553749e+03 3.200664272989342133e-05
1.661330665332666285e+03 3.172538647755550318e-05
1.662231115557778821e+03 3.144866101607644404e-05
1.663131565782891357e+03 3.117634115550172417e-05
1.664032016008003893e+03 3.090830718021375678e-05
1.664932466233116429e+03 3.064444450495772376e-05
1.665832916458228965e+03 3.038464335957664802e-05
1.666733366683341501e+03 3.012879849945416976e-05
1.667633816908454037e+03 2.987680893903405443e-05
1.668534267133566800e+03 2.962857770610905018e-05
1.669434717358679336e+03 2.938401161485499442e-05
1.670335167583791872e+03 2.914302105580924865e-05
1.671235617808904408e+03 2.890551980122152092e-05
1.672136068034016944e+03 2.867142482435568003e-05
1.673036518259129480e+03 2.844065613149997441e-05
1.673936968484242016e+03 2.821313660556873078e-05
1.674837418709354552e+03 2.798879186028936606e-05
1.675737868934467087e+03 2.776755010408749614e-05
1.676638319159579623e+03 2.754934201286268544e-05
1.677538769384692159e+03 2.733410061093017012e-05
1.678439219609804923e+03 2.712176115947764052e-05
1.679339669834917459e+03 2.691226105194490854e-05
1.680240120060029994e+03 2.670553971579386269e-05
1.681140570285142530e+03 2.650153852018245963e-05
1.682041020510255066e+03 2.630020068910255923e-05
1.682941470735367602e+03 2.610147121957988615e-05
1.683841920960480138e+03 2.590529680457177161e-05
1.684742371185592674e+03 2.571162576022546819e-05
1.685642821410705210e+03 2.552040795719551767e-05
1.686543271635817746e+03 2.533159475573638206e-05
1.687443721860930282e+03 2.514513894431561787e-05
1.688344172086043045e+03 2.496099468151037720e-05
1.689244622311155581e+03 2.477911744097290226e-05
1.690145072536268117e+03 2.459946395925933008e-05
1.691045522761380653e+03 2.442199218634494691e-05
1.691945972986493189e+03 2.424666123864963497e-05
1.692846423211605725e+03 2.407343135441946660e-05
1.693746873436718261e+03 2.390226385131743162e-05
1.694647323661830796e+03 2.373312108608895485e-05
1.695547773886943332e+03 2.356596641617838802e-05
1.696448224112055868e+03 2.340076416317659046e-05
1.697348674337168404e+03 2.323747957799774446e-05
1.698249124562281168e+03 2.307607880767852666e-05
1.699149574787393703e+03 2.291652886371195753e-05
1.700050025012506239e+03 2.275879759182509982e-05
1.700950475237618775e+03 2.260285364312159467e-05
1.701850925462731311e+03 2.244866644651242649e-05
1.702751375687843847e+03 2.229620618236429432e-05
1.703651825912956383e+03 2.214544375729939226e-05
1.704552276138068919e+03 2.199635078008614470e-05
1.705452726363181455e+03 2.184889953856013014e-05
1.706353176588293991e+03 2.170306297752394456e-05
1.707253626813406527e+03 2.155881467757337686e-05
1.708154077038519290e+03 2.141612883480244176e-05
1.709054527263631826e+03 2.127498024134332640e-05
1.709954977488744362e+03 2.113534426669665936e-05
1.710855427713856898e+03 2.099719683981735331e-05
1.711755877938969434e+03 2.086051443191225697e-05
1.712656328164081970e+03 2.072527403992152861e-05
1.713556778389194506e+03 2.059145317064337856e-05
1.714457228614307041e+03 2.045902982547878219e-05
1.715357678839419577e+03 2.032798248575968343e-05
1.716258129064532113e+03 2.019829009863905893e-05
1.717158579289644649e+03 2.006993206351084881e-05
1.718059029514757185e+03 1.994288821894080069e-05
1.718959479739869948e+03 1.981713883008084421e-05
1.719859929964982484e+03 1.969266457654634533e-05
1.720760380190095020e+03 1.956944654073493580e-05
1.721660830415207556e+03 1.944746619656863559e-05
1.722561280640320092e+03 1.932670539863806512e-05
1.723461730865432628e+03 1.920714637173335187e-05
1.724362181090545164e+03 1.908877170074352333e-05
1.725262631315657700e+03 1.897156432090785916e-05
1.726163081540770236e+03 1.885550750840668324e-05
1.727063531765882772e+03 1.874058487127492958e-05
1.727963981990995308e+03 1.862678034062495653e-05
1.728864432216108071e+03 1.851407816216671016e-05
1.729764882441220607e+03 1.840246288801239595e-05
1.730665332666333143e+03 1.829191936875405425e-05
1.731565782891445679e+03 1.818243274580213370e-05
1.732466233116558215e+03 1.807398844397588083e-05
1.733366683341670750e+03 1.796657216433463931e-05
1.734267133566783286e+03 1.786016987723998943e-05
1.735167583791895822e+03 1.775476781564028455e-05
1.736068034017008358e+03 1.765035246856934799e-05
1.736968484242120894e+03 1.754691057484932174e-05
1.737868934467233430e+03 1.744442911699112464e-05
1.738769384692346193e+03 1.734289531528501182e-05
1.739669834917458729e+03 1.724229662207253132e-05
1.740570285142571265e+03 1.714262071619546997e-05
1.741470735367683801e+03 1.704385549761202050e-05
1.742371185592796337e+03 1.694598908217669365e-05
1.743271635817908873e+03 1.684900979657675185e-05
1.744172086043021409e+03 1.675290617341908606e-05
1.745072536268133945e+03 1.665766694646258580e-05
1.745972986493246481e+03 1.656328104599074738e-05
1.746873436718359017e+03 1.646973759431916693e-05
1.747773886943471553e+03 1.637702590143284644e-05
1.748674337168584316e+03 1.628513546075046996e-05
1.749574787393696852e+03 1.619405594500762356e-05
1.750475237618809388e+03 1.610377720225910142e-05
1.751375687843921924e+03 1.601428925199250175e-05
1.752276138069034459e+03 1.592558228135189648e-05
1.753176588294146995e+03 1.583764664146577398e-05
1.754077038519259531e+03 1.575047284387694768e-05
1.754977488744372067e+03 1.566405155707147604e-05
1.755877938969484603e+03 1.557837360310088487e-05
1.756778389194597139e+03 1.549342995429712285e-05
1.757678839419709675e+03 1.540921173007612008e-05
1.758579289644822438e+03 1.532571019382724593e-05
1.759479739869934974e+03 1.524291674988436834e-05
1.760380190095047510e+03 1.516082294057946494e-05
1.761280640320160046e+03 1.507942044337141350e-05
1.762181090545272582e+03 1.499870106805179620e-05
1.763081540770385118e+03 1.491865675402224947e-05
1.763981990995497654e+03 1.483927956764290695e-05
1.764882441220610190e+03 1.476056169964878473e-05
1.765782891445722726e+03 1.468249546263170815e-05
1.766683341670835262e+03 1.460507328858753490e-05
1.767583791895947797e+03 1.452828772652416605e-05
1.768484242121060333e+03 1.445213144012956279e-05
1.769384692346173097e+03 1.437659720549973806e-05
1.770285142571285633e+03 1.430167790892072452e-05
1.771185592796398169e+03 1.422736654470754453e-05
1.772086043021510704e+03 1.415365621309459494e-05
1.772986493246623240e+03 1.408054011817865636e-05
1.773886943471735776e+03 1.400801156591176394e-05
1.774787393696848312e+03 1.393606396214181851e-05
1.775687843921960848e+03 1.386469081070125849e-05
1.776588294147073384e+03 1.379388571154065999e-05
1.777488744372185920e+03 1.372364235890750253e-05
1.778389194597298456e+03 1.365395453956691873e-05
1.779289644822411219e+03 1.358481613106561721e-05
1.780190095047523755e+03 1.351622110003559419e-05
1.781090545272636291e+03 1.344816350053716076e-05
1.781990995497748827e+03 1.338063747244116253e-05
1.782891445722861363e+03 1.331363723984799939e-05
1.783791895947973899e+03 1.324715710954303043e-05
1.784692346173086435e+03 1.318119146948671739e-05
1.785592796398198971e+03 1.311573478734001145e-05
1.786493246623311506e+03 1.305078160902201877e-05
1.787393696848424042e+03 1.298632655730136941e-05
1.788294147073536578e+03 1.292236433041733412e-05
1.789194597298649342e+03 1.285888970073335196e-05
1.790095047523761878e+03 1.279589751341924017e-05
1.790995497748874413e+03 1.273338268516298916e-05
1.791895947973986949e+03 1.267134020291099585e-05
1.792796398199099485e+03 1.260976512263468884e-05
1.793696848424212021e+03 1.254865256812565788e-05
1.794597298649324557e+03 1.248799772981518306e-05
1.795497748874437093e+03 1.242779586362067416e-05
1.796398199099549629e+03 1.236804228981543225e-05
1.797298649324662165e+03 1.230873239192360882e-05
1.798199099549774701e+03 1.224986161563802970e-05
1.799099549774887464e+03 1.219142546776086007e-05
1.800000000000000000e+03 1.213341951516753582e-05
