0.000000000000000000e+00 9.299922928370967304e-04
9.004502251125562351e-01 1.239039977507362320e-03
1.800900450225112470e+00 1.658743599852216793e-03
2.701350675337668594e+00 2.160603004799966070e-03
3.601800900450224940e+00 2.599924647072618996e-03
4.502251125562780842e+00 2.766640396945233525e-03
5.402701350675337189e+00 2.586918297142912822e-03
6.303151575787893535e+00 2.163294137792075994e-03
7.203601800900449881e+00 1.678206968664482405e-03
8.104052026013006227e+00 1.264408408135667258e-03
9.004502251125561685e+00 9.540386142104129337e-04
9.904952476238118919e+00 7.303344679626897753e-04
1.080540270135067438e+01 5.699086297637881481e-04
1.170585292646323161e+01 4.538368378721992983e-04
1.260630315157578707e+01 3.684513210558022778e-04
1.350675337668834430e+01 3.043913845609592960e-04
1.440720360180089976e+01 2.553798280124019385e-04
1.530765382691345522e+01 2.172013118772275037e-04
1.620810405202601245e+01 1.869891939659367992e-04
1.710855427713856969e+01 1.627528413341545013e-04
1.800900450225112337e+01 1.430505192764744752e-04
1.890945472736368060e+01 1.267526748506524062e-04
1.980990495247623784e+01 1.129629990712705716e-04
2.071035517758879507e+01 1.011220319346531625e-04
2.161080540270134875e+01 9.095049003035977030e-05
2.251125562781390599e+01 8.222820683350302873e-05
2.341170585292646322e+01 7.472667487601388089e-05
2.431215607803901690e+01 6.823713131351177191e-05
2.521260630315157414e+01 6.258672159050879464e-05
2.611305652826413137e+01 5.763820880308728051e-05
2.701350675337668861e+01 5.328442715148437668e-05
2.791395697848924229e+01 4.944156617793194023e-05
2.881440720360179952e+01 4.604330891129319192e-05
2.971485742871435676e+01 4.303473375844548478e-05
3.061530765382691044e+01 4.036128017627297861e-05
3.151575787893946767e+01 3.795537530523972441e-05
3.241620810405202491e+01 3.574236541914111760e-05
3.331665832916458214e+01 3.367048077899734414e-05
3.421710855427713938e+01 3.173216405001042683e-05
3.511755877938969661e+01 2.995392779458691196e-05
3.601800900450224674e+01 2.835396233947073326e-05
3.691845922961480397e+01 2.691542204593560302e-05
3.781890945472736121e+01 2.558643529499333064e-05
3.871935967983991844e+01 2.431212147281541541e-05
3.961980990495247568e+01 2.308818305945022759e-05
4.052026013006503291e+01 2.194503614183093644e-05
4.142071035517759015e+01 2.089814869958036794e-05
4.232116058029014027e+01 1.994352085358036059e-05
4.322161080540269751e+01 1.907100649589693375e-05
4.412206103051525474e+01 1.827123535144630048e-05
4.502251125562781198e+01 1.753733282776514304e-05
4.592296148074036921e+01 1.686492983695321224e-05
4.682341170585292645e+01 1.625168675315716727e-05
4.772386193096548368e+01 1.569581391481510065e-05
4.862431215607803381e+01 1.519142190786942246e-05
4.952476238119059104e+01 1.472133434126054219e-05
5.042521260630314828e+01 1.426366653807795485e-05
5.132566283141570551e+01 1.381974695583440388e-05
5.222611305652826275e+01 1.341459026766303941e-05
5.312656328164081998e+01 1.306531125851749144e-05
5.402701350675337721e+01 1.276782370929510998e-05
5.492746373186592734e+01 1.250557487389178760e-05
5.582791395697848458e+01 1.225127853007070498e-05
5.672836418209104181e+01 1.195286236701818994e-05
5.762881440720359905e+01 1.157741419199311460e-05
5.852926463231615628e+01 1.117010279818210466e-05
5.942971485742871351e+01 1.079951134543460040e-05
6.033016508254127075e+01 1.049551565941252609e-05
6.123061530765382088e+01 1.025077183297629575e-05
6.213106553276637811e+01 1.003788559805099363e-05
6.303151575787893535e+01 9.838857377583979890e-06
6.393196598299149258e+01 9.667635022114762561e-06
6.483241620810404982e+01 9.544542776423231876e-06
6.573286643321659994e+01 9.464661192417345024e-06
6.663331665832916428e+01 9.403858666951259146e-06
6.753376688344171441e+01 9.321292156461269515e-06
6.843421710855427875e+01 9.142893794657255526e-06
6.933466733366682888e+01 8.835976506214969218e-06
7.023511755877939322e+01 8.476077478044308165e-06
7.113556778389194335e+01 8.153522824287804587e-06
7.203601800900449348e+01 7.904153124393406422e-06
7.293646823411705782e+01 7.728921144453773615e-06
7.383691845922960795e+01 7.614874166301649845e-06
7.473736868434217229e+01 7.531389035524493538e-06
7.563781890945472242e+01 7.430153516211630302e-06
7.653826913456728676e+01 7.290523233658185905e-06
7.743871935967983688e+01 7.149741871659991424e-06
7.833916958479238701e+01 7.055554432503142364e-06
7.923961980990495135e+01 7.033500822342686125e-06
8.014007003501750148e+01 7.091659648831783346e-06
8.104052026013006582e+01 7.218670441285290700e-06
8.194097048524261595e+01 7.364684762532812070e-06
8.284142071035518029e+01 7.431058640334172908e-06
8.374187093546773042e+01 7.342763209804773707e-06
8.464232116058028055e+01 7.149628966675672629e-06
8.554277138569284489e+01 6.945162551325485337e-06
8.644322161080539502e+01 6.743870739260104949e-06
8.734367183591795936e+01 6.524268817612375398e-06
8.824412206103050949e+01 6.309006036171676160e-06
8.914457228614307382e+01 6.146348071883557346e-06
9.004502251125562395e+01 6.064624425904326583e-06
9.094547273636817408e+01 6.069576157548655527e-06
9.184592296148073842e+01 6.146728227941809963e-06
9.274637318659328855e+01 6.245922941855769128e-06
9.364682341170585289e+01 6.283994237666087705e-06
9.454727363681840302e+01 6.214376364220444960e-06
9.544772386193096736e+01 6.092322954857802267e-06
9.634817408704351749e+01 6.008420497247088049e-06
9.724862431215606762e+01 5.997042248847020533e-06
9.814907453726863196e+01 6.037786319162379661e-06
9.904952476238118209e+01 6.092958576995000732e-06
9.994997498749374643e+01 6.115195117799157256e-06
1.008504252126062966e+02 6.063099293064341786e-06
1.017508754377188609e+02 5.964543914954881499e-06
1.026513256628314110e+02 5.902713800170375086e-06
1.035517758879439612e+02 5.917134337927169890e-06
1.044522261130565255e+02 5.970357029648297335e-06
1.053526763381690756e+02 5.998932790823565059e-06
1.062531265632816400e+02 5.991156391512255257e-06
1.071535767883941901e+02 5.997844269292940369e-06
1.080540270135067544e+02 6.071613304048376174e-06
1.089544772386193046e+02 6.234351314713758427e-06
1.098549274637318547e+02 6.460042402612603298e-06
1.107553776888444190e+02 6.680003963477223097e-06
1.116558279139569692e+02 6.813060428075867113e-06
1.125562781390695335e+02 6.819089798096095159e-06
1.134567283641820836e+02 6.735223572910519624e-06
1.143571785892946480e+02 6.624964765137547218e-06
1.152576288144071981e+02 6.521091383681189716e-06
1.161580790395197482e+02 6.410205847510195666e-06
1.170585292646323126e+02 6.262013821648465116e-06
1.179589794897448627e+02 6.076796171614707665e-06
1.188594297148574270e+02 5.884920331365728002e-06
1.197598799399699772e+02 5.741119599456928980e-06
1.206603301650825415e+02 5.704795909444230115e-06
1.215607803901950916e+02 5.790513240771787240e-06
1.224612306153076418e+02 5.952036000362957934e-06
1.233616808404202061e+02 6.090746160754461274e-06
1.242621310655327562e+02 6.126629070233176018e-06
1.251625812906453206e+02 6.092895961390597171e-06
1.260630315157578707e+02 6.065513413863351085e-06
1.269634817408704350e+02 6.044527906813485052e-06
1.278639319659829852e+02 6.000722325625813755e-06
1.287643821910955353e+02 5.981341155059215350e-06
1.296648324162080996e+02 6.056572437162286036e-06
1.305652826413206640e+02 6.215114650682238874e-06
1.314657328664331999e+02 6.370663981757422308e-06
1.323661830915457642e+02 6.455596239611206361e-06
1.332666333166583286e+02 6.474279507503865477e-06
1.341670835417708929e+02 6.456890802545104931e-06
1.350675337668834288e+02 6.409958796591734325e-06
1.359679839919959932e+02 6.313927941191927761e-06
1.368684342171085575e+02 6.148363372023003703e-06
1.377688844422210934e+02 5.941928324776875390e-06
1.386693346673336578e+02 5.773869184111820972e-06
1.395697848924462221e+02 5.691301646085951269e-06
1.404702351175587864e+02 5.666993240968519658e-06
1.413706853426713224e+02 5.645780207804719520e-06
1.422711355677838867e+02 5.606395453115713739e-06
1.431715857928964510e+02 5.559958704558792124e-06
1.440720360180089870e+02 5.532035399435052125e-06
1.449724862431215513e+02 5.559300818006124551e-06
1.458729364682341156e+02 5.672946979988761662e-06
1.467733866933466800e+02 5.872262311120803688e-06
1.476738369184592159e+02 6.097940186399467906e-06
1.485742871435717802e+02 6.238251940425280627e-06
1.494747373686843446e+02 6.223421454941957069e-06
1.503751875937968805e+02 6.094837453251461092e-06
1.512756378189094448e+02 5.937493351308847301e-06
1.521760880440220092e+02 5.805300972044857868e-06
1.530765382691345735e+02 5.711887030565435218e-06
1.539769884942471094e+02 5.636728993457644487e-06
1.548774387193596738e+02 5.564454962603027889e-06
1.557778889444722381e+02 5.517825095381656111e-06
1.566783391695847740e+02 5.550030716941806879e-06
1.575787893946973384e+02 5.705974781272572640e-06
1.584792396198099027e+02 5.974225163422583280e-06
1.593796898449224670e+02 6.274352454194667778e-06
1.602801400700350030e+02 6.528126722586480073e-06
1.611805902951475673e+02 6.749393029388806901e-06
1.620810405202601316e+02 6.993656552590673765e-06
1.629814907453726676e+02 7.259209853731167257e-06
1.638819409704852319e+02 7.471211002126964764e-06
1.647823911955977962e+02 7.571559368613106643e-06
1.656828414207103606e+02 7.564669589984932749e-06
1.665832916458228965e+02 7.457209030235190006e-06
1.674837418709354608e+02 7.256793932804307899e-06
1.683841920960480252e+02 7.014022079219651989e-06
1.692846423211605611e+02 6.793167403700536108e-06
1.701850925462731254e+02 6.636784204810577084e-06
1.710855427713856898e+02 6.567920547142387441e-06
1.719859929964982541e+02 6.573906183222424869e-06
1.728864432216107900e+02 6.615906362592821041e-06
1.737868934467233544e+02 6.685750281538865384e-06
1.746873436718359187e+02 6.823466236017856195e-06
1.755877938969484546e+02 7.051330376655023931e-06
1.764882441220610190e+02 7.304254978535402373e-06
1.773886943471735833e+02 7.478919744169647281e-06
1.782891445722861476e+02 7.550983288402946852e-06
1.791895947973986836e+02 7.583387180424604673e-06
1.800900450225112479e+02 7.663046315554553872e-06
1.809904952476238122e+02 7.853852468194583207e-06
1.818909454727363482e+02 8.189998641822404600e-06
1.827913956978489125e+02 8.637878901675195728e-06
1.836918459229614768e+02 9.083475357781326708e-06
1.845922961480740412e+02 9.421554086773552232e-06
1.854927463731865771e+02 9.589667000759250263e-06
1.863931965982991414e+02 9.544524488593756278e-06
1.872936468234117058e+02 9.278354205982219165e-06
1.881940970485242417e+02 8.836895267421691040e-06
1.890945472736368060e+02 8.333302862802805877e-06
1.899949974987493704e+02 7.900735542027215996e-06
1.908954477238619347e+02 7.602537763087404834e-06
1.917958979489744706e+02 7.426775747625904824e-06
1.926963481740870350e+02 7.336867764915926757e-06
1.935967983991995993e+02 7.298406223615633387e-06
1.944972486243121352e+02 7.313847913399195427e-06
1.953976988494246996e+02 7.421763336268221259e-06
1.962981490745372639e+02 7.647167292665599088e-06
1.971985992996498283e+02 7.985773212429649493e-06
1.980990495247623642e+02 8.395771704832386052e-06
1.989994997498749285e+02 8.787375584049864278e-06
1.998999499749874929e+02 9.086127824140089352e-06
2.008004002001000288e+02 9.262968278861654001e-06
2.017008504252125931e+02 9.310973163928155450e-06
2.026013006503251574e+02 9.230427514633169229e-06
2.035017508754377218e+02 9.024867365137670671e-06
2.044022011005502577e+02 8.738575307820522475e-06
2.053026513256628220e+02 8.482925615427871051e-06
2.062031015507753864e+02 8.345555931570591566e-06
2.071035517758879223e+02 8.340177055120429118e-06
2.080040020010004866e+02 8.439919622983697159e-06
2.089044522261130510e+02 8.576550894610571134e-06
2.098049024512256153e+02 8.650947368426888014e-06
2.107053526763381512e+02 8.623888148664532417e-06
2.116058029014507156e+02 8.559499216211367408e-06
2.125062531265632799e+02 8.492755429691211308e-06
2.134067033516758158e+02 8.406061226742641675e-06
2.143071535767883802e+02 8.313075522585662309e-06
2.152076038019009445e+02 8.230688613826006112e-06
2.161080540270135089e+02 8.157476858371993098e-06
2.170085042521260448e+02 8.104010021400918980e-06
2.179089544772386091e+02 8.097140347635864118e-06
2.188094047023511735e+02 8.173772302331200148e-06
2.197098549274637094e+02 8.360309782170326825e-06
2.206103051525762737e+02 8.623614965963413451e-06
2.215107553776888381e+02 8.877012906874509748e-06
2.224112056028014024e+02 9.057319214621673172e-06
2.233116558279139383e+02 9.150919555573849384e-06
2.242121060530265027e+02 9.147307278540457845e-06
2.251125562781390670e+02 9.037978866676763131e-06
2.260130065032516029e+02 8.889229942360010958e-06
2.269134567283641672e+02 8.788635892620131650e-06
2.278139069534767316e+02 8.745409849211757171e-06
2.287143571785892959e+02 8.763235870812052293e-06
2.296148074037018318e+02 8.870796480106404901e-06
2.305152576288143962e+02 9.004575368429874039e-06
2.314157078539269605e+02 9.028495663945845353e-06
2.323161580790394964e+02 8.880796346486738842e-06
2.332166083041520608e+02 8.636316264698251112e-06
2.341170585292646251e+02 8.419325083505370822e-06
2.350175087543771895e+02 8.287977600405580710e-06
2.359179589794897254e+02 8.232881888254640901e-06
2.368184092046022897e+02 8.212337402641963798e-06
2.377188594297148541e+02 8.178674677334643744e-06
2.386193096548273900e+02 8.115217884225392825e-06
2.395197598799399543e+02 8.066564362635626320e-06
2.404202101050525187e+02 8.087182718477017230e-06
2.413206603301650830e+02 8.188620700534087265e-06
2.422211105552776189e+02 8.346530782442984368e-06
2.431215607803901833e+02 8.533082818820917882e-06
2.440220110055027476e+02 8.749453583498645451e-06
2.449224612306152835e+02 8.986650681157900495e-06
2.458229114557278479e+02 9.212145145610493952e-06
2.467233616808404122e+02 9.410858167350342514e-06
2.476238119059529765e+02 9.555321042130384321e-06
2.485242621310655124e+02 9.611167245241105455e-06
2.494247123561780768e+02 9.614109046053516370e-06
2.503251625812906411e+02 9.606772951676528498e-06
2.512256128064031770e+02 9.545172717667126249e-06
2.521260630315157414e+02 9.366772840421997310e-06
2.530265132566283057e+02 9.108765421901684112e-06
2.539269634817408701e+02 8.883671968176720850e-06
2.548274137068534060e+02 8.763071460242407516e-06
2.557278639319659703e+02 8.756801276647147286e-06
2.566283141570785347e+02 8.841239749742279779e-06
2.575287643821910706e+02 8.970995655663878347e-06
2.584292146073036633e+02 9.127887740548697236e-06
2.593296648324161993e+02 9.366673173900030554e-06
2.602301150575287352e+02 9.741034036839035055e-06
2.611305652826413279e+02 1.021564609187328809e-05
2.620310155077538639e+02 1.066865976860083666e-05
2.629314657328663998e+02 1.097015489279500805e-05
2.638319159579789925e+02 1.110327098537503925e-05
2.647323661830915285e+02 1.115230925325755343e-05
2.656328164082040644e+02 1.117256607551790755e-05
2.665332666333166571e+02 1.120771558963691624e-05
2.674337168584291931e+02 1.128876008989891857e-05
2.683341670835417858e+02 1.138875916241453539e-05
2.692346173086543217e+02 1.145464904359026138e-05
2.701350675337668577e+02 1.139886408296098702e-05
2.710355177588794504e+02 1.116259908977002669e-05
2.719359679839919863e+02 1.083527890223875758e-05
2.728364182091045222e+02 1.055783484650278472e-05
2.737368684342171150e+02 1.039970249617103489e-05
2.746373186593296509e+02 1.034678872669755424e-05
2.755377688844421868e+02 1.033186134559219376e-05
2.764382191095547796e+02 1.027263785096662594e-05
2.773386693346673155e+02 1.014556162831233328e-05
2.782391195597798514e+02 1.004241657469291611e-05
2.791395697848924442e+02 1.007535944561185285e-05
2.800400200100049801e+02 1.026157061749497701e-05
2.809404702351175729e+02 1.052839476978819533e-05
2.818409204602301088e+02 1.083646311756288501e-05
2.827413706853426447e+02 1.120262775714726505e-05
2.836418209104552375e+02 1.157685267082421188e-05
2.845422711355677734e+02 1.184016898206893162e-05
2.854427213606803093e+02 1.193386143892906754e-05
2.863431715857929021e+02 1.186718896787276746e-05
2.872436218109054380e+02 1.173040677496813469e-05
2.881440720360179739e+02 1.166408601009413810e-05
2.890445222611305667e+02 1.172273598171617947e-05
2.899449724862431026e+02 1.182506319159066876e-05
2.908454227113556385e+02 1.189659482035444263e-05
2.917458729364682313e+02 1.198634522869289420e-05
2.926463231615807672e+02 1.218168015783743151e-05
2.935467733866933600e+02 1.248198879440890843e-05
2.944472236118058959e+02 1.282911866614279649e-05
2.953476738369184318e+02 1.318511806143028634e-05
2.962481240620310246e+02 1.352204270440975154e-05
2.971485742871435605e+02 1.381848824114603858e-05
2.980490245122560964e+02 1.408381626083976017e-05
2.989494747373686891e+02 1.434881229727149500e-05
2.998499249624812251e+02 1.459408657713250694e-05
3.007503751875937610e+02 1.475285692284209478e-05
3.016508254127063537e+02 1.482584137705618630e-05
3.025512756378188897e+02 1.490514438304435444e-05
3.034517258629314256e+02 1.505819630577080647e-05
3.043521760880440183e+02 1.527525051202081429e-05
3.052526263131565543e+02 1.549435498022747832e-05
3.061530765382691470e+02 1.567138595658773402e-05
3.070535267633816829e+02 1.586125291228748335e-05
3.079539769884942189e+02 1.615729156255494038e-05
3.088544272136068116e+02 1.659557232179198157e-05
3.097548774387193475e+02 1.715263275547655283e-05
3.106553276638318835e+02 1.775495605615629377e-05
3.115557778889444762e+02 1.832865724614618060e-05
3.124562281140570121e+02 1.876582157199216058e-05
3.133566783391695481e+02 1.892259065642971748e-05
3.142571285642821408e+02 1.872401163516188808e-05
3.151575787893946767e+02 1.819610755610960440e-05
3.160580290145072127e+02 1.748290603523470512e-05
3.169584792396198054e+02 1.679910836314375141e-05
3.178589294647323413e+02 1.634798834581581087e-05
3.187593796898449341e+02 1.624724369056202155e-05
3.196598299149574700e+02 1.650385014754729782e-05
3.205602801400700059e+02 1.697715649825123105e-05
3.214607303651825987e+02 1.741820793816539265e-05
3.223611805902951346e+02 1.771526417998366381e-05
3.232616308154076705e+02 1.798362596686630679e-05
3.241620810405202633e+02 1.832756738099469823e-05
3.250625312656327992e+02 1.872180597119056018e-05
3.259629814907453351e+02 1.908912386709866936e-05
3.268634317158579279e+02 1.930465142317900313e-05
3.277638819409704638e+02 1.926236063479822155e-05
3.286643321660829997e+02 1.905533530697998268e-05
3.295647823911955925e+02 1.890703934138598092e-05
3.304652326163081284e+02 1.889355799435455923e-05
3.313656828414207212e+02 1.890427101920462750e-05
3.322661330665332571e+02 1.879185104513953576e-05
3.331665832916457930e+02 1.848610832638730481e-05
3.340670335167583858e+02 1.807176345082220779e-05
3.349674837418709217e+02 1.770220171353409098e-05
3.358679339669834576e+02 1.746976687010739563e-05
3.367683841920960504e+02 1.741511243675551880e-05
3.376688344172085863e+02 1.755049367303756862e-05
3.385692846423211222e+02 1.785492726869830683e-05
3.394697348674337150e+02 1.822509684943023525e-05
3.403701850925462509e+02 1.848677199050090565e-05
3.412706353176587868e+02 1.858910119444952242e-05
3.421710855427713796e+02 1.866539101665302139e-05
3.430715357678839155e+02 1.880719745325003744e-05
3.439719859929965082e+02 1.898157960100431361e-05
3.448724362181090441e+02 1.916765556996948296e-05
3.457728864432215801e+02 1.939567391749509140e-05
3.466733366683341728e+02 1.960800122208887633e-05
3.475737868934467087e+02 1.966091446424086402e-05
3.484742371185592447e+02 1.950233894143213519e-05
3.493746873436718374e+02 1.917006121172796856e-05
3.502751375687843733e+02 1.872339282016261165e-05
3.511755877938969093e+02 1.826883221267045523e-05
3.520760380190095020e+02 1.793035090646663711e-05
3.529764882441220379e+02 1.781474260414550993e-05
3.538769384692345739e+02 1.797289332197959797e-05
3.547773886943471666e+02 1.835078119527376464e-05
3.556778389194597025e+02 1.884858423997670982e-05
3.565782891445722953e+02 1.935343534703700736e-05
3.574787393696848312e+02 1.974436140182699243e-05
3.583791895947973671e+02 2.000448879829652324e-05
3.592796398199099599e+02 2.027126500540260429e-05
3.601800900450224958e+02 2.067771864064068735e-05
3.610805402701350317e+02 2.112772828784138999e-05
3.619809904952476245e+02 2.136980624164138947e-05
3.628814407203601604e+02 2.129399575089683489e-05
3.637818909454726963e+02 2.098572350172887111e-05
3.646823411705852891e+02 2.061701205009165363e-05
3.655827913956978250e+02 2.030816442163426274e-05
3.664832416208103609e+02 2.008904194791688106e-05
3.673836918459229537e+02 1.995243476436295031e-05
3.682841420710354896e+02 1.986005617117666075e-05
3.691845922961480824e+02 1.971932814030502359e-05
3.700850425212606183e+02 1.948758211825438530e-05
3.709854927463731542e+02 1.925061392217530053e-05
3.718859429714857470e+02 1.912429311662769210e-05
3.727863931965982829e+02 1.917798838838567934e-05
3.736868434217108188e+02 1.940034921610486629e-05
3.745872936468234116e+02 1.967044190228966612e-05
3.754877438719359475e+02 1.984217904595042651e-05
3.763881940970484834e+02 1.981036251032019862e-05
3.772886443221610762e+02 1.957026229801723022e-05
3.781890945472736121e+02 1.926073482573906388e-05
3.790895447723861480e+02 1.902162836479138892e-05
3.799899949974987408e+02 1.879937415630715766e-05
3.808904452226112767e+02 1.845516774794418925e-05
3.817908954477238694e+02 1.800739940169824018e-05
3.826913456728364054e+02 1.755600406399130992e-05
3.835917958979489413e+02 1.716335399376617618e-05
3.844922461230615340e+02 1.684937842976743597e-05
3.853926963481740700e+02 1.660089147443365794e-05
3.862931465732866059e+02 1.641890028297787794e-05
3.871935967983991986e+02 1.627061282278670625e-05
3.880940470235117346e+02 1.612480526580292213e-05
3.889944972486242705e+02 1.604970554313051945e-05
3.898949474737368632e+02 1.611442364108878761e-05
3.907953976988493991e+02 1.625712738781530319e-05
3.916958479239619351e+02 1.637661943574767717e-05
3.925962981490745278e+02 1.646640222965001980e-05
3.934967483741870637e+02 1.654824825614473839e-05
3.943971985992996565e+02 1.657942961132850815e-05
3.952976488244121924e+02 1.648875314037823351e-05
3.961980990495247283e+02 1.624684525927958862e-05
3.970985492746373211e+02 1.593517223073923167e-05
3.979989994997498570e+02 1.569856241113619109e-05
3.988994497248623929e+02 1.559617121700546585e-05
3.997998999499749857e+02 1.557167796961465660e-05
4.007003501750875216e+02 1.556591778265322825e-05
4.016008004002000575e+02 1.558554698718844406e-05
4.025012506253126503e+02 1.564718281547485673e-05
4.034017008504251862e+02 1.574109584210472027e-05
4.043021510755377221e+02 1.586806272780381114e-05
4.052026013006503149e+02 1.600861670715175280e-05
4.061030515257628508e+02 1.611011983681751521e-05
4.070035017508754436e+02 1.609672584212766726e-05
4.079039519759879795e+02 1.592061817060127580e-05
4.088044022011005154e+02 1.566930550120268270e-05
4.097048524262131082e+02 1.550812225726003188e-05
4.106053026513256441e+02 1.552930033883960688e-05
4.115057528764381800e+02 1.570521647184333240e-05
4.124062031015507728e+02 1.594598486383183223e-05
4.133066533266633087e+02 1.612751784257783263e-05
4.142071035517758446e+02 1.612974077876877836e-05
4.151075537768884374e+02 1.591867987791172626e-05
4.160080040020009733e+02 1.561684573392670562e-05
4.169084542271135092e+02 1.543254671081413957e-05
4.178089044522261020e+02 1.545402382929713547e-05
4.187093546773386379e+02 1.561005463387412013e-05
4.196098049024512306e+02 1.578360622766983428e-05
4.205102551275637666e+02 1.587595730936848152e-05
4.214107053526763025e+02 1.587157014270275117e-05
4.223111555777888952e+02 1.585909634089630504e-05
4.232116058029014312e+02 1.590011404425718561e-05
4.241120560280139671e+02 1.594759643564617378e-05
4.250125062531265598e+02 1.589875644611959588e-05
4.259129564782390958e+02 1.572760880738477177e-05
4.268134067033516317e+02 1.552394648177267709e-05
4.277138569284642244e+02 1.540344576138234650e-05
4.286143071535767604e+02 1.542349007164618523e-05
4.295147573786892963e+02 1.552944062092775804e-05
4.304152076038018890e+02 1.559228761501231105e-05
4.313156578289144250e+02 1.555272397218107988e-05
4.322161080540270177e+02 1.545499201010717494e-05
4.331165582791395536e+02 1.533520104033853250e-05
4.340170085042520896e+02 1.517628185749122449e-05
4.349174587293646823e+02 1.496116152507616784e-05
4.358179089544772182e+02 1.473189358297975300e-05
4.367183591795897541e+02 1.458581360628779023e-05
4.376188094047023469e+02 1.458328787199558340e-05
4.385192596298148828e+02 1.471502933404229959e-05
4.394197098549274187e+02 1.494133887822933946e-05
4.403201600800400115e+02 1.522253829547772240e-05
4.412206103051525474e+02 1.553611285776923355e-05
4.421210605302650833e+02 1.586755077095710346e-05
4.430215107553776761e+02 1.619413975329330992e-05
4.439219609804902120e+02 1.645926167499665263e-05
4.448224112056028048e+02 1.658058803732475310e-05
4.457228614307153407e+02 1.652115271906036932e-05
4.466233116558278766e+02 1.633040301919555577e-05
4.475237618809404694e+02 1.610788989188481426e-05
4.484242121060530053e+02 1.593409855060957792e-05
4.493246623311655412e+02 1.581206505870495828e-05
4.502251125562781340e+02 1.569769989712446431e-05
4.511255627813906699e+02 1.561751665319673963e-05
4.520260130065032058e+02 1.566651316447606021e-05
4.529264632316157986e+02 1.586882105539774067e-05
4.538269134567283345e+02 1.613637522510381873e-05
4.547273636818408704e+02 1.638141759173019190e-05
4.556278139069534632e+02 1.655990380292629032e-05
4.565282641320659991e+02 1.666439913375329540e-05
4.574287143571785919e+02 1.674187698930589411e-05
4.583291645822911278e+02 1.685300715934461585e-05
4.592296148074036637e+02 1.702304215242426093e-05
4.601300650325162565e+02 1.727262400631596580e-05
4.610305152576287924e+02 1.760156798591759966e-05
4.619309654827413283e+02 1.790907245351454298e-05
4.628314157078539210e+02 1.806417645080277262e-05
4.637318659329664570e+02 1.807638001854184316e-05
4.646323161580789929e+02 1.804765502186418729e-05
4.655327663831915856e+02 1.800621257148218583e-05
4.664332166083041216e+02 1.793977838459871518e-05
4.673336668334167143e+02 1.786116381186008350e-05
4.682341170585292502e+02 1.777396411104891397e-05
4.691345672836417862e+02 1.767327433828387603e-05
4.700350175087543789e+02 1.759774990798947336e-05
4.709354677338669148e+02 1.756975895687634673e-05
4.718359179589794508e+02 1.753011308114724609e-05
4.727363681840920435e+02 1.741190401658616825e-05
4.736368184092045794e+02 1.723091600176168461e-05
4.745372686343171154e+02 1.705179589732583811e-05
4.754377188594297081e+02 1.692774704156924893e-05
4.763381690845422440e+02 1.688560694607736985e-05
4.772386193096547800e+02 1.694044559645244377e-05
4.781390695347673727e+02 1.709752594106421798e-05
4.790395197598799086e+02 1.734612313510151054e-05
4.799399699849925014e+02 1.765224410997314088e-05
4.808404202101050373e+02 1.792907860660132108e-05
4.817408704352175732e+02 1.806789792850244846e-05
4.826413206603301660e+02 1.803517090373896821e-05
4.835417708854427019e+02 1.791837365406906090e-05
4.844422211105552378e+02 1.783440112675052449e-05
4.853426713356678306e+02 1.783635692584976669e-05
4.862431215607803665e+02 1.791526364759048464e-05
4.871435717858929024e+02 1.801976725873398566e-05
4.880440220110054952e+02 1.807513043142176557e-05
4.889444722361180311e+02 1.803006285804697911e-05
4.898449224612305670e+02 1.791265769341339294e-05
4.907453726863431598e+02 1.782694562485585295e-05
4.916458229114556957e+02 1.784705003623648673e-05
4.925462731365682885e+02 1.795583803777011294e-05
4.934467233616808244e+02 1.811148497114973250e-05
4.943471735867933603e+02 1.830306855051004321e-05
4.952476238119059531e+02 1.851489868484154275e-05
4.961480740370184890e+02 1.871826247216151756e-05
4.970485242621310249e+02 1.888608780206365613e-05
4.979489744872436177e+02 1.900491720436891258e-05
4.988494247123561536e+02 1.910446265341600387e-05
4.997498749374686895e+02 1.924532832291668132e-05
5.006503251625812823e+02 1.947229144139478647e-05
5.015507753876938182e+02 1.976270755983541727e-05
5.024512256128063541e+02 2.006234076755746747e-05
5.033516758379189469e+02 2.036351077194530247e-05
5.042521260630314828e+02 2.069440776767219299e-05
5.051525762881440755e+02 2.101353571363722534e-05
5.060530265132566115e+02 2.120137248993215091e-05
5.069534767383691474e+02 2.122658414250584347e-05
5.078539269634817401e+02 2.116977504031683716e-05
5.087543771885942760e+02 2.110314500688045307e-05
5.096548274137068120e+02 2.106484323682881923e-05
5.105552776388194047e+02 2.106085211095941087e-05
5.114557278639319406e+02 2.109676474849881664e-05
5.123561780890445334e+02 2.118481126772359517e-05
5.132566283141570693e+02 2.128542360803137710e-05
5.141570785392696052e+02 2.136820734721461644e-05
5.150575287643821412e+02 2.148476021419960119e-05
5.159579789894946771e+02 2.168190446914677969e-05
5.168584292146073267e+02 2.191037463089291924e-05
5.177588794397198626e+02 2.209578801903688247e-05
5.186593296648323985e+02 2.221549132202185495e-05
5.195597798899449344e+02 2.231008693066127596e-05
5.204602301150574704e+02 2.244201306536763166e-05
5.213606803401700063e+02 2.263338986918867531e-05
5.222611305652826559e+02 2.285363291711492025e-05
5.231615807903951918e+02 2.303145526180813791e-05
5.240620310155077277e+02 2.311940166743778506e-05
5.249624812406202636e+02 2.313636303896189237e-05
5.258629314657327996e+02 2.313945244047822673e-05
5.267633816908454492e+02 2.318436301064181356e-05
5.276638319159579851e+02 2.325941943829273461e-05
5.285642821410705210e+02 2.331811874560353227e-05
5.294647323661830569e+02 2.340674644890504264e-05
5.303651825912955928e+02 2.363440579448009476e-05
5.312656328164081287e+02 2.400376634115993700e-05
5.321660830415207784e+02 2.440517292897558690e-05
5.330665332666333143e+02 2.475906816940910070e-05
5.339669834917458502e+02 2.506069624276887654e-05
5.348674337168583861e+02 2.529315834513304296e-05
5.357678839419709220e+02 2.542514816311344249e-05
5.366683341670835716e+02 2.551861361924080246e-05
5.375687843921961075e+02 2.566116136000202067e-05
5.384692346173086435e+02 2.583876946863611205e-05
5.393696848424211794e+02 2.598846838211297063e-05
5.402701350675337153e+02 2.609411130188105655e-05
5.411705852926462512e+02 2.617113997269672671e-05
5.420710355177589008e+02 2.629644892807460576e-05
5.429714857428714367e+02 2.660183437155018204e-05
5.438719359679839727e+02 2.712911997723991525e-05
5.447723861930965086e+02 2.775945476069712013e-05
5.456728364182090445e+02 2.835401562133523588e-05
5.465732866433215804e+02 2.895797578211557427e-05
5.474737368684342300e+02 2.970116263795782169e-05
5.483741870935467659e+02 3.057827889578044361e-05
5.492746373186593019e+02 3.139988994058125199e-05
5.501750875437718378e+02 3.193002989642080945e-05
5.510755377688843737e+02 3.212652214486566479e-05
5.519759879939970233e+02 3.215257114412443994e-05
5.528764382191095592e+02 3.216366127589149738e-05
5.537768884442220951e+02 3.223239881175758367e-05
5.546773386693346310e+02 3.234177895173851412e-05
5.555777888944471670e+02 3.242563113604417902e-05
5.564782391195597029e+02 3.251423724288976969e-05
5.573786893446723525e+02 3.267461986038306657e-05
5.582791395697848884e+02 3.285798432268430182e-05
5.591795897948974243e+02 3.297285123893575309e-05
5.600800400200099602e+02 3.301208399970933708e-05
5.609804902451224962e+02 3.303702494256335046e-05
5.618809404702351458e+02 3.311550926987645002e-05
5.627813906953476817e+02 3.328115587479210007e-05
5.636818409204602176e+02 3.347940518956639069e-05
5.645822911455727535e+02 3.354267204062260575e-05
5.654827413706852894e+02 3.331854924133857579e-05
5.663831915957978254e+02 3.284962852732816889e-05
5.672836418209104750e+02 3.227633864662678685e-05
5.681840920460230109e+02 3.169485365885609939e-05
5.690845422711355468e+02 3.118595738703972307e-05
5.699849924962480827e+02 3.079787641347408458e-05
5.708854427213606186e+02 3.048326226385430644e-05
5.717858929464731546e+02 3.016913754267959967e-05
5.726863431715858042e+02 2.985790308974104596e-05
5.735867933966983401e+02 2.960511484369850090e-05
5.744872436218108760e+02 2.944118057944103675e-05
5.753876938469234119e+02 2.929560091432825244e-05
5.762881440720359478e+02 2.904236630542603897e-05
5.771885942971485974e+02 2.866588160552365137e-05
5.780890445222611334e+02 2.829719010758047559e-05
5.789894947473736693e+02 2.802502004056929850e-05
5.798899449724862052e+02 2.780539283363438823e-05
5.807903951975987411e+02 2.757437126930719902e-05
5.816908454227112770e+02 2.733640166164707865e-05
5.825912956478239266e+02 2.710307412961954131e-05
5.834917458729364625e+02 2.682498847454651089e-05
5.843921960980489985e+02 2.644148987990266802e-05
5.852926463231615344e+02 2.598815541896072373e-05
5.861930965482740703e+02 2.560226925560696309e-05
5.870935467733867199e+02 2.540191108543408927e-05
5.879939969984992558e+02 2.539938770400254760e-05
5.888944472236117917e+02 2.557787025456536339e-05
5.897948974487243277e+02 2.591777611606124941e-05
5.906953476738368636e+02 2.637351836136367613e-05
5.915957978989493995e+02 2.685999168023382917e-05
5.924962481240620491e+02 2.717404337901387960e-05
5.933966983491745850e+02 2.711488823279713665e-05
5.942971485742871209e+02 2.671212856874080559e-05
5.951975987993996569e+02 2.619586419711481852e-05
5.960980490245121928e+02 2.575434827663477692e-05
5.969984992496247287e+02 2.539952063923859191e-05
5.978989494747373783e+02 2.510528112937472785e-05
5.987993996998499142e+02 2.489307158966978358e-05
5.996998499249624501e+02 2.473614436239533399e-05
6.006003001500749860e+02 2.457842914073968534e-05
6.015007503751875220e+02 2.435685719566604694e-05
6.024012006003001716e+02 2.401563688248178709e-05
6.033016508254127075e+02 2.360111085490052547e-05
6.042021010505252434e+02 2.322008511337696643e-05
6.051025512756377793e+02 2.292292431982678903e-05
6.060030015007503152e+02 2.274020594380311052e-05
6.069034517258628512e+02 2.267292596554558183e-05
6.078039019509755008e+02 2.265967467931908686e-05
6.087043521760880367e+02 2.264882476293232126e-05
6.096048024012005726e+02 2.265042785602924662e-05
6.105052526263131085e+02 2.268610814754570051e-05
6.114057028514256444e+02 2.276579443622950817e-05
6.123061530765382940e+02 2.289446478458867951e-05
6.132066033016508300e+02 2.307043159447233718e-05
6.141070535267633659e+02 2.329517908143464140e-05
6.150075037518759018e+02 2.353729515004880554e-05
6.159079539769884377e+02 2.366869558296453625e-05
6.168084042021009736e+02 2.355329821582675441e-05
6.177088544272136232e+02 2.321600316819821651e-05
6.186093046523261592e+02 2.279045051835762919e-05
6.195097548774386951e+02 2.238119813929543856e-05
6.204102051025512310e+02 2.202530466320624356e-05
6.213106553276637669e+02 2.169383253639640380e-05
6.222111055527763028e+02 2.133789412329157610e-05
6.231115557778889524e+02 2.095365864488870795e-05
6.240120060030014884e+02 2.062354280123215958e-05
6.249124562281140243e+02 2.043334079408338198e-05
6.258129064532265602e+02 2.037634290785077170e-05
6.267133566783390961e+02 2.038593736954266209e-05
6.276138069034517457e+02 2.038288069091284503e-05
6.285142571285642816e+02 2.029724979919242148e-05
6.294147073536768175e+02 2.010589214991602745e-05
6.303151575787893535e+02 1.984501115686013482e-05
6.312156078039018894e+02 1.956876517961549368e-05
6.321160580290144253e+02 1.935982134124867440e-05
6.330165082541270749e+02 1.928371354251065236e-05
6.339169584792396108e+02 1.930754252590994569e-05
6.348174087043521467e+02 1.932343162413204977e-05
6.357178589294646827e+02 1.924186944040814500e-05
6.366183091545772186e+02 1.902959011428514879e-05
6.375187593796898682e+02 1.873701077171607628e-05
6.384192096048024041e+02 1.849205627516531907e-05
6.393196598299149400e+02 1.840984695528234539e-05
6.402201100550274759e+02 1.848291581223857855e-05
6.411205602801400119e+02 1.859290926963932264e-05
6.420210105052525478e+02 1.864894423538155608e-05
6.429214607303651974e+02 1.865609303501678928e-05
6.438219109554777333e+02 1.863791245026923953e-05
6.447223611805902692e+02 1.860194586907414925e-05
6.456228114057028051e+02 1.857526933917834163e-05
6.465232616308153411e+02 1.857357278483634581e-05
6.474237118559278770e+02 1.856072664818495400e-05
6.483241620810405266e+02 1.851371233538037268e-05
6.492246123061530625e+02 1.845330698164913028e-05
6.501250625312655984e+02 1.842349612103953409e-05
6.510255127563781343e+02 1.845300161024425708e-05
6.519259629814906702e+02 1.851339702408870199e-05
6.528264132066033198e+02 1.853180541611503673e-05
6.537268634317158558e+02 1.846447936724442766e-05
6.546273136568283917e+02 1.834384196419276331e-05
6.555277638819409276e+02 1.824419655140193793e-05
6.564282141070534635e+02 1.825197260383310915e-05
6.573286643321659994e+02 1.842094125190564755e-05
6.582291145572786490e+02 1.869057626000789106e-05
6.591295647823911850e+02 1.887369305702819004e-05
6.600300150075037209e+02 1.886722914232005522e-05
6.609304652326162568e+02 1.880475297804342001e-05
6.618309154577287927e+02 1.884546252745429123e-05
6.627313656828414423e+02 1.895803543524219415e-05
6.636318159079539782e+02 1.903883853064188448e-05
6.645322661330665142e+02 1.908992735167276415e-05
6.654327163581790501e+02 1.914488831381461840e-05
6.663331665832915860e+02 1.916089822164908729e-05
6.672336168084041219e+02 1.907447581159124223e-05
6.681340670335167715e+02 1.887440669256065979e-05
6.690345172586293074e+02 1.860651355083848627e-05
6.699349674837418434e+02 1.834164699473006180e-05
6.708354177088543793e+02 1.812298283814642294e-05
6.717358679339669152e+02 1.794984424374002828e-05
6.726363181590794511e+02 1.782688227827068360e-05
6.735367683841921007e+02 1.776468454751756963e-05
6.744372186093046366e+02 1.772775708788271992e-05
6.753376688344171725e+02 1.765644442457898455e-05
6.762381190595297085e+02 1.754761292261648625e-05
6.771385692846422444e+02 1.745315501220515636e-05
6.780390195097548940e+02 1.738824195361360830e-05
6.789394697348674299e+02 1.733072631157496531e-05
6.798399199599799658e+02 1.728797353033797104e-05
6.807403701850925017e+02 1.729326445836657777e-05
6.816408204102050377e+02 1.738676065212069638e-05
6.825412706353175736e+02 1.755217159068053837e-05
6.834417208604302232e+02 1.769989143438915297e-05
6.843421710855427591e+02 1.779005450087569977e-05
6.852426213106552950e+02 1.788228948988079671e-05
6.861430715357678309e+02 1.802653931910259784e-05
6.870435217608803669e+02 1.822041924154327750e-05
6.879439719859930165e+02 1.844857407666378017e-05
6.888444222111055524e+02 1.866624665524215364e-05
6.897448724362180883e+02 1.879576726596445611e-05
6.906453226613306242e+02 1.880683060788431070e-05
6.915457728864431601e+02 1.876309132308696736e-05
6.924462231115556961e+02 1.868875510014323483e-05
6.933466733366683457e+02 1.851667966191599489e-05
6.942471235617808816e+02 1.826867728999676994e-05
6.951475737868934175e+02 1.804468299531660953e-05
6.960480240120059534e+02 1.788406389188474031e-05
6.969484742371184893e+02 1.776834149749371842e-05
6.978489244622311389e+02 1.766906247974776482e-05
6.987493746873436749e+02 1.755270896124221531e-05
6.996498249124562108e+02 1.741848564541317811e-05
7.005502751375687467e+02 1.732167033630472314e-05
7.014507253626812826e+02 1.731365512933932913e-05
7.023511755877938185e+02 1.738942729915642489e-05
7.032516258129064681e+02 1.750253445241389393e-05
7.041520760380190040e+02 1.763039345540458813e-05
7.050525262631315400e+02 1.777795318748163182e-05
7.059529764882440759e+02 1.792379474117574293e-05
7.068534267133566118e+02 1.801398785195289587e-05
7.077538769384691477e+02 1.803516916203205456e-05
7.086543271635817973e+02 1.805543049569661868e-05
7.095547773886943332e+02 1.813361453766499203e-05
7.104552276138068692e+02 1.824449885167419221e-05
7.113556778389194051e+02 1.831156697020381262e-05
7.122561280640319410e+02 1.830282177057840270e-05
7.131565782891445906e+02 1.823880451088232820e-05
7.140570285142571265e+02 1.814642017201076614e-05
7.149574787393696624e+02 1.805730539830258409e-05
7.158579289644821984e+02 1.801977882314904369e-05
7.167583791895947343e+02 1.806145709346539197e-05
7.176588294147072702e+02 1.815351264859753352e-05
7.185592796398199198e+02 1.826123922980698488e-05
7.194597298649324557e+02 1.838906891053480297e-05
7.203601800900449916e+02 1.855641226304836222e-05
7.212606303151575275e+02 1.876682726254223793e-05
7.221610805402700635e+02 1.898837058501035634e-05
7.230615307653827131e+02 1.919626524848944661e-05
7.239619809904952490e+02 1.939418811372153753e-05
7.248624312156077849e+02 1.955241187330321616e-05
7.257628814407203208e+02 1.963318317232929069e-05
7.266633316658328567e+02 1.966037359083238093e-05
7.275637818909453927e+02 1.966167946708293669e-05
7.284642321160580423e+02 1.958299369047010428e-05
7.293646823411705782e+02 1.937143185494013571e-05
7.302651325662831141e+02 1.912169189108584906e-05
7.311655827913956500e+02 1.901053072196202305e-05
7.320660330165081859e+02 1.908497476787998832e-05
7.329664832416207219e+02 1.924256729969843146e-05
7.338669334667333715e+02 1.939457366678152910e-05
7.347673836918459074e+02 1.947704021882057336e-05
7.356678339169584433e+02 1.940891597477966538e-05
7.365682841420709792e+02 1.915921092623246091e-05
7.374687343671835151e+02 1.879667091938731855e-05
7.383691845922961647e+02 1.843256598426205398e-05
7.392696348174087007e+02 1.815144588869474404e-05
7.401700850425212366e+02 1.804401461752770696e-05
7.410705352676337725e+02 1.817683708660331810e-05
7.419709854927463084e+02 1.850261794095496692e-05
7.428714357178588443e+02 1.888643837737436729e-05
7.437718859429714939e+02 1.917591850318572591e-05
7.446723361680840299e+02 1.930510270861721101e-05
7.455727863931965658e+02 1.932270337529822394e-05
7.464732366183091017e+02 1.931000210656707712e-05
7.473736868434216376e+02 1.932634865120772501e-05
7.482741370685342872e+02 1.940614322204789959e-05
7.491745872936468231e+02 1.953746019125875654e-05
7.500750375187593590e+02 1.963126254577792645e-05
7.509754877438718950e+02 1.960065179414895292e-05
7.518759379689844309e+02 1.947891915304039446e-05
7.527763881940969668e+02 1.936439808413383955e-05
7.536768384192096164e+02 1.928662900751341463e-05
7.545772886443221523e+02 1.920838582044240742e-05
7.554777388694346882e+02 1.911459923489020738e-05
7.563781890945472242e+02 1.900399600201936929e-05
7.572786393196597601e+02 1.886077936626843048e-05
7.581790895447722960e+02 1.867371936007552438e-05
7.590795397698849456e+02 1.847030548944570525e-05
7.599799899949974815e+02 1.829775271212404623e-05
7.608804402201100174e+02 1.819009710551145766e-05
7.617808904452225534e+02 1.817861142415769704e-05
7.626813406703350893e+02 1.827559103368181829e-05
7.635817908954477389e+02 1.843709022108316767e-05
7.644822411205602748e+02 1.857562570797357019e-05
7.653826913456728107e+02 1.863925733397972290e-05
7.662831415707853466e+02 1.864169772654777216e-05
7.671835917958978825e+02 1.864928695626935819e-05
7.680840420210104185e+02 1.872041239882714782e-05
7.689844922461230681e+02 1.883630333836402385e-05
7.698849424712356040e+02 1.897554121651582809e-05
7.707853926963481399e+02 1.913421815531560999e-05
7.716858429214606758e+02 1.928258741366545854e-05
7.725862931465732117e+02 1.939349958179224090e-05
7.734867433716858613e+02 1.946076866344255483e-05
7.743871935967983973e+02 1.949351765632803500e-05
7.752876438219109332e+02 1.950911946059910977e-05
7.761880940470234691e+02 1.952410169555963878e-05
7.770885442721360050e+02 1.955110747205561438e-05
7.779889944972485409e+02 1.961191367727690922e-05
7.788894447223611905e+02 1.971262238764691374e-05
7.797898949474737265e+02 1.979500044404684401e-05
7.806903451725862624e+02 1.979318425519989536e-05
7.815907953976987983e+02 1.971600457256857664e-05
7.824912456228113342e+02 1.961498141180590340e-05
7.833916958479238701e+02 1.954264647993700694e-05
7.842921460730365197e+02 1.955113780469402345e-05
7.851925962981490557e+02 1.964960157323304541e-05
7.860930465232615916e+02 1.977067434620753174e-05
7.869934967483741275e+02 1.983880215543080603e-05
7.878939469734866634e+02 1.987863342628556324e-05
7.887943971985993130e+02 1.997564187303283817e-05
7.896948474237118489e+02 2.011862834749108978e-05
7.905952976488243849e+02 2.022779016313786362e-05
7.914957478739369208e+02 2.030980044788141694e-05
7.923961980990494567e+02 2.044936603546868278e-05
7.932966483241619926e+02 2.068801056596743536e-05
7.941970985492746422e+02 2.097938721593275283e-05
7.950975487743871781e+02 2.122463177425843939e-05
7.959979989994997140e+02 2.136702046170216082e-05
7.968984492246122500e+02 2.140937842944248742e-05
7.977988994497247859e+02 2.138360913574875375e-05
7.986993496748374355e+02 2.130314158138491058e-05
7.995997998999499714e+02 2.114530037895319170e-05
8.005002501250625073e+02 2.088418125949185740e-05
8.014007003501750432e+02 2.057107784004144992e-05
8.023011505752875792e+02 2.032587728247657889e-05
8.032016008004001151e+02 2.020846651585993952e-05
8.041020510255127647e+02 2.017908821927704181e-05
8.050025012506253006e+02 2.018004566790732187e-05
8.059029514757378365e+02 2.019937561998591825e-05
8.068034017008503724e+02 2.026484409366863690e-05
8.077038519259629084e+02 2.040320754296707974e-05
8.086043021510754443e+02 2.054671228729737753e-05
8.095047523761880939e+02 2.054566704425550151e-05
8.104052026013006298e+02 2.036643372934874316e-05
8.113056528264131657e+02 2.013577268939516026e-05
8.122061030515257016e+02 1.996179762133181731e-05
8.131065532766382375e+02 1.985969392670422232e-05
8.140070035017508872e+02 1.981903984963702587e-05
8.149074537268634231e+02 1.983843096899034518e-05
8.158079039519759590e+02 1.993816797253584514e-05
8.167083541770884949e+02 2.015375763756518487e-05
8.176088044022010308e+02 2.049030883707360961e-05
8.185092546273135667e+02 2.089527915430787027e-05
8.194097048524262163e+02 2.128966850215536442e-05
8.203101550775387523e+02 2.158051285925066632e-05
8.212106053026512882e+02 2.169576002656094113e-05
8.221110555277638241e+02 2.164929691967421019e-05
8.230115057528763600e+02 2.152565520405267288e-05
8.239119559779890096e+02 2.143362511867846992e-05
8.248124062031015455e+02 2.143099854087815006e-05
8.257128564282140815e+02 2.150633135780443604e-05
8.266133066533266174e+02 2.161248920638930839e-05
8.275137568784391533e+02 2.172536962415276017e-05
8.284142071035516892e+02 2.182383757072351932e-05
8.293146573286643388e+02 2.186163948449189291e-05
8.302151075537768747e+02 2.186082806286231546e-05
8.311155577788894107e+02 2.191225011183372629e-05
8.320160080040019466e+02 2.209816766346690207e-05
8.329164582291144825e+02 2.245571700840511708e-05
8.338169084542270184e+02 2.292931066927310000e-05
8.347173586793396680e+02 2.338249796256382682e-05
8.356178089044522039e+02 2.370696935480171900e-05
8.365182591295647399e+02 2.385289629504419028e-05
8.374187093546772758e+02 2.378686127538132182e-05
8.383191595797898117e+02 2.354353159014117711e-05
8.392196098049024613e+02 2.319735911163007608e-05
8.401200600300149972e+02 2.281950605869826894e-05
8.410205102551275331e+02 2.249271837171919753e-05
8.419209604802400690e+02 2.230795753481387163e-05
8.428214107053526050e+02 2.227196754955087919e-05
8.437218609304651409e+02 2.226721735364696437e-05
8.446223111555777905e+02 2.221051409131958953e-05
8.455227613806903264e+02 2.215218658261018230e-05
8.464232116058028623e+02 2.213749027394890220e-05
8.473236618309153982e+02 2.211615927337522974e-05
8.482241120560279342e+02 2.202058117515601725e-05
8.491245622811405838e+02 2.183283498589637405e-05
8.500250125062531197e+02 2.161980178452886683e-05
8.509254627313656556e+02 2.146855478331359673e-05
8.518259129564781915e+02 2.137906872589133103e-05
8.527263631815907274e+02 2.126692818797636166e-05
8.536268134067032634e+02 2.109432335494771510e-05
8.545272636318159130e+02 2.091807504651687475e-05
8.554277138569284489e+02 2.078552722638745125e-05
8.563281640820409848e+02 2.067911894241503283e-05
8.572286143071535207e+02 2.055878930068321523e-05
8.581290645322660566e+02 2.039559723679764219e-05
8.590295147573785925e+02 2.016867890857152601e-05
8.599299649824912422e+02 1.988867702652753904e-05
8.608304152076037781e+02 1.961103744912741974e-05
8.617308654327163140e+02 1.938641960710641622e-05
8.626313156578288499e+02 1.918856743377406730e-05
8.635317658829413858e+02 1.895418382272798301e-05
8.644322161080540354e+02 1.869229196527547981e-05
8.653326663331665713e+02 1.847931605997163844e-05
8.662331165582791073e+02 1.836429253790692242e-05
8.671335667833916432e+02 1.832228692822746637e-05
8.680340170085041791e+02 1.830169966245848991e-05
8.689344672336167150e+02 1.827577391350880266e-05
8.698349174587293646e+02 1.825871031985062102e-05
8.707353676838419005e+02 1.825813362275649607e-05
8.716358179089544365e+02 1.823090856780770994e-05
8.725362681340669724e+02 1.814184650145597870e-05
8.734367183591795083e+02 1.803468826214801253e-05
8.743371685842921579e+02 1.799018924623262605e-05
8.752376188094046938e+02 1.806091900299227311e-05
8.761380690345172297e+02 1.826041960601335843e-05
8.770385192596297657e+02 1.853393227145356113e-05
8.779389694847423016e+02 1.877253117993346924e-05
8.788394197098548375e+02 1.893687701332995603e-05
8.797398699349674871e+02 1.907248746296841401e-05
8.806403201600800230e+02 1.919782258691873916e-05
8.815407703851925589e+02 1.930034331644118188e-05
8.824412206103050949e+02 1.939854803365029338e-05
8.833416708354176308e+02 1.950477777558820547e-05
8.842421210605301667e+02 1.958139461597495175e-05
8.851425712856428163e+02 1.958858511697688284e-05
8.860430215107553522e+02 1.953768273610709312e-05
8.869434717358678881e+02 1.947073182764769150e-05
8.878439219609804240e+02 1.943558609213430708e-05
8.887443721860929600e+02 1.946945710311125146e-05
8.896448224112056096e+02 1.956841722791288345e-05
8.905452726363181455e+02 1.969708255496731235e-05
8.914457228614306814e+02 1.984743502448068348e-05
8.923461730865432173e+02 2.003002399593747275e-05
8.932466233116557532e+02 2.024583796200319887e-05
8.941470735367682892e+02 2.050936158812524535e-05
8.950475237618809388e+02 2.079748607758235011e-05
8.959479739869934747e+02 2.102913795877224906e-05
8.968484242121060106e+02 2.117179482293183064e-05
8.977488744372185465e+02 2.131122054505880492e-05
8.986493246623310824e+02 2.155208815643853574e-05
8.995497748874437320e+02 2.189910235925516093e-05
9.004502251125562680e+02 2.226562584586257214e-05
9.013506753376688039e+02 2.257740314474586206e-05
9.022511255627813398e+02 2.281628089812042727e-05
9.031515757878938757e+02 2.297462414294877084e-05
9.040520260130064116e+02 2.307509499302876809e-05
9.049524762381190612e+02 2.317553459380966766e-05
9.058529264632315972e+02 2.328706624696037013e-05
9.067533766883441331e+02 2.339898779931774348e-05
9.076538269134566690e+02 2.355627356283916286e-05
9.085542771385692049e+02 2.380558710169682106e-05
9.094547273636817408e+02 2.412998631665746286e-05
9.103551775887943904e+02 2.447029594610604901e-05
9.112556278139069263e+02 2.474958275994195654e-05
9.121560780390194623e+02 2.493035151259509705e-05
9.130565282641319982e+02 2.507512726524315348e-05
9.139569784892445341e+02 2.528585167350628509e-05
9.148574287143571837e+02 2.563209867488523651e-05
9.157578789394697196e+02 2.607748164737123232e-05
9.166583291645822555e+02 2.648162813016901869e-05
9.175587793896947915e+02 2.673747175472785716e-05
9.184592296148073274e+02 2.689551195698057531e-05
9.193596798399198633e+02 2.707597066514051370e-05
9.202601300650325129e+02 2.732633006659325765e-05
9.211605802901450488e+02 2.762145941205244604e-05
9.220610305152575847e+02 2.790720569019795278e-05
9.229614807403701207e+02 2.813963122162616273e-05
9.238619309654826566e+02 2.830614712898592156e-05
9.247623811905953062e+02 2.838489352792434063e-05
9.256628314157078421e+02 2.838914709515930748e-05
9.265632816408203780e+02 2.840041085712674145e-05
9.274637318659329139e+02 2.846386664097149896e-05
9.283641820910454499e+02 2.855066951734623609e-05
9.292646323161579858e+02 2.868030353454648616e-05
9.301650825412706354e+02 2.894181515207042268e-05
9.310655327663831713e+02 2.932450455256698922e-05
9.319659829914957072e+02 2.968005209731354788e-05
9.328664332166082431e+02 2.988563370267683297e-05
9.337668834417207790e+02 2.997502410981181019e-05
9.346673336668334287e+02 3.005597105034305989e-05
9.355677838919459646e+02 3.014163680902836923e-05
9.364682341170585005e+02 3.017214993943202357e-05
9.373686843421710364e+02 3.011289453355762180e-05
9.382691345672835723e+02 3.000352266257098598e-05
9.391695847923961082e+02 2.994970932318371360e-05
9.400700350175087578e+02 3.001501406104433440e-05
9.409704852426212938e+02 3.015323466165748713e-05
9.418709354677338297e+02 3.030494404665631168e-05
9.427713856928463656e+02 3.052398171966145456e-05
9.436718359179589015e+02 3.090235490540820651e-05
9.445722861430714374e+02 3.139407592549939925e-05
9.454727363681840870e+02 3.185916682137227571e-05
9.463731865932966230e+02 3.227693303938159022e-05
9.472736368184091589e+02 3.277332199826659819e-05
9.481740870435216948e+02 3.340035245476980906e-05
9.490745372686342307e+02 3.404848077593212378e-05
9.499749874937468803e+02 3.462892439736184661e-05
9.508754377188594162e+02 3.516595778429677858e-05
9.517758879439719522e+02 3.569494728031481144e-05
9.526763381690844881e+02 3.626108551802761346e-05
9.535767883941970240e+02 3.699528593393893453e-05
9.544772386193095599e+02 3.800058660840914120e-05
9.553776888444222095e+02 3.927929205618608735e-05
9.562781390695347454e+02 4.069343993214762800e-05
9.571785892946472813e+02 4.194020329996737744e-05
9.580790395197598173e+02 4.276143214835827585e-05
9.589794897448723532e+02 4.313525546170058039e-05
9.598799399699850028e+02 4.323399500190947594e-05
9.607803901950975387e+02 4.321921013519276896e-05
9.616808404202100746e+02 4.309996980613207680e-05
9.625812906453226105e+02 4.293698625251639236e-05
9.634817408704351465e+02 4.298151834910801493e-05
9.643821910955476824e+02 4.344860339247418409e-05
9.652826413206603320e+02 4.430747363875382208e-05
9.661830915457728679e+02 4.537148492134320237e-05
9.670835417708854038e+02 4.642022880102432978e-05
9.679839919959979397e+02 4.722238473313588268e-05
9.688844422211104757e+02 4.764943173361733931e-05
9.697848924462230116e+02 4.771458462250031696e-05
9.706853426713356612e+02 4.755130918265239364e-05
9.715857928964481971e+02 4.734615445102394817e-05
9.724862431215607330e+02 4.723080297717048684e-05
9.733866933466732689e+02 4.729231757165173577e-05
9.742871435717858049e+02 4.753148943767250204e-05
9.751875937968984545e+02 4.781778153357685448e-05
9.760880440220109904e+02 4.800319283301118372e-05
9.769884942471235263e+02 4.796771964058021666e-05
9.778889444722360622e+02 4.769880856041641866e-05
9.787893946973485981e+02 4.737906241244784465e-05
9.796898449224611340e+02 4.727995468507639423e-05
9.805902951475737837e+02 4.754001416297782672e-05
9.814907453726863196e+02 4.809873639600885430e-05
9.823911955977988555e+02 4.890804693850810012e-05
9.832916458229113914e+02 4.998940611339347555e-05
9.841920960480239273e+02 5.125020506161969504e-05
9.850925462731365769e+02 5.243943011376193242e-05
9.859929964982491128e+02 5.337170946524940804e-05
9.868934467233616488e+02 5.398206237351139107e-05
9.877938969484741847e+02 5.435115048650974355e-05
9.886943471735867206e+02 5.471524982832931620e-05
9.895947973986992565e+02 5.516591723988964398e-05
9.904952476238119061e+02 5.550741871159304213e-05
9.913956978489244420e+02 5.554124545919114918e-05
9.922961480740369780e+02 5.533780562892608092e-05
9.931965982991495139e+02 5.514813317248936080e-05
9.940970485242620498e+02 5.513984440442366375e-05
9.949974987493745857e+02 5.535092899389100685e-05
9.958979489744872353e+02 5.570548320992641357e-05
9.967983991995997712e+02 5.606991921769321569e-05
9.976988494247123072e+02 5.640122734794881398e-05
9.985992996498248431e+02 5.670895296379619240e-05
9.994997498749373790e+02 5.703090268092797895e-05
1.000400200100050029e+03 5.746938076500655547e-05
1.001300650325162565e+03 5.810572535891647260e-05
1.002201100550275100e+03 5.891570457243786941e-05
1.003101550775387636e+03 5.985252972525306476e-05
1.004002001000500172e+03 6.091611490758264624e-05
1.004902451225612708e+03 6.212089087608699332e-05
1.005802901450725358e+03 6.339020505747604609e-05
1.006703351675837894e+03 6.456955061230128885e-05
1.007603801900950430e+03 6.560456811332930627e-05
1.008504252126062966e+03 6.647372715306669444e-05
1.009404702351175501e+03 6.715155293324525960e-05
1.010305152576288151e+03 6.773187723267727893e-05
1.011205602801400687e+03 6.838122201943893383e-05
1.012106053026513223e+03 6.922064102350510137e-05
1.013006503251625759e+03 7.026812672489942595e-05
1.013906953476738295e+03 7.138004349166873297e-05
1.014807403701850831e+03 7.248254779137747303e-05
1.015707853926963480e+03 7.386442909322233513e-05
1.016608304152076016e+03 7.581498860199021759e-05
1.017508754377188552e+03 7.818092178087172515e-05
1.018409204602301088e+03 8.052301967280910524e-05
1.019309654827413624e+03 8.247755844014738585e-05
1.020210105052526160e+03 8.401266022027387246e-05
1.021110555277638809e+03 8.530822725884974983e-05
1.022011005502751345e+03 8.631713962038149344e-05
1.022911455727863881e+03 8.672099002987711323e-05
1.023811905952976417e+03 8.642244282136622539e-05
1.024712356178089067e+03 8.574251736635973484e-05
1.025612806403201603e+03 8.501063058239168317e-05
1.026513256628314139e+03 8.443243839004451541e-05
1.027413706853426675e+03 8.421479444653125570e-05
1.028314157078539210e+03 8.437959504896452910e-05
1.029214607303651746e+03 8.478867248859302589e-05
1.030115057528764282e+03 8.546109540678491700e-05
1.031015507753876818e+03 8.644445302404461611e-05
1.031915957978989354e+03 8.768843783136518919e-05
1.032816408204101890e+03 8.898465708338419104e-05
1.033716858429214653e+03 9.011225848538995998e-05
1.034617308654327189e+03 9.104150137271748366e-05
1.035517758879439725e+03 9.167381958196941768e-05
1.036418209104552261e+03 9.182460858158080766e-05
1.037318659329664797e+03 9.158017907509188686e-05
1.038219109554777333e+03 9.143673649919599098e-05
1.039119559779889869e+03 9.181065567514924241e-05
1.040020010005002405e+03 9.263048233887301091e-05
1.040920460230114941e+03 9.361395855951779835e-05
1.041820910455227477e+03 9.461939059777582672e-05
1.042721360680340013e+03 9.564705616160793075e-05
1.043621810905452776e+03 9.667810769937369600e-05
1.044522261130565312e+03 9.759960725226497758e-05
1.045422711355677848e+03 9.841500198951154096e-05
1.046323161580790384e+03 9.920258093817868291e-05
1.047223611805902920e+03 1.000513268553811615e-04
1.048124062031015455e+03 1.009971651451796720e-04
1.049024512256127991e+03 1.021369683590656085e-04
1.049924962481240527e+03 1.034338816016084988e-04
1.050825412706353063e+03 1.046762394829023525e-04
1.051725862931465599e+03 1.059681860629520727e-04
1.052626313156578135e+03 1.075651160131477148e-04
1.053526763381690898e+03 1.093770380097092919e-04
1.054427213606803434e+03 1.109908011413986834e-04
1.055327663831915970e+03 1.121648061007991673e-04
1.056228114057028506e+03 1.131039886215974056e-04
1.057128564282141042e+03 1.141233196086068920e-04
1.058029014507253578e+03 1.154572647501363267e-04
1.058929464732366114e+03 1.171726054627593785e-04
1.059829914957478650e+03 1.188696307154883848e-04
1.060730365182591186e+03 1.198519499521074835e-04
1.061630815407703722e+03 1.196546516754714966e-04
1.062531265632816257e+03 1.184942685838624336e-04
1.063431715857929021e+03 1.168646101847055222e-04
1.064332166083041557e+03 1.147490394826839767e-04
1.065232616308154093e+03 1.120234352042361823e-04
1.066133066533266629e+03 1.091966363270969472e-04
1.067033516758379164e+03 1.068952146085920589e-04
1.067933966983491700e+03 1.051741530086680658e-04
1.068834417208604236e+03 1.039082893415878208e-04
1.069734867433716772e+03 1.032382739657446792e-04
1.070635317658829308e+03 1.033085586659642868e-04
1.071535767883941844e+03 1.040486237673530541e-04
1.072436218109054380e+03 1.053023754243008616e-04
1.073336668334167143e+03 1.069433184459476263e-04
1.074237118559279679e+03 1.086112241624142378e-04
1.075137568784392215e+03 1.096788847932743757e-04
1.076038019009504751e+03 1.098589271724371920e-04
1.076938469234617287e+03 1.093581555136632726e-04
1.077838919459729823e+03 1.083806813560628409e-04
1.078739369684842359e+03 1.069346315131159737e-04
1.079639819909954895e+03 1.051973952844411275e-04
1.080540270135067431e+03 1.039223191311225007e-04
1.081440720360179967e+03 1.039226090342331598e-04
1.082341170585292502e+03 1.052834496694272378e-04
1.083241620810405038e+03 1.074798987971304910e-04
1.084142071035517802e+03 1.097657658705049582e-04
1.085042521260630338e+03 1.115512751126831803e-04
1.085942971485742873e+03 1.127044467493288797e-04
1.086843421710855409e+03 1.133994041492645405e-04
1.087743871935967945e+03 1.139965695645617038e-04
1.088644322161080481e+03 1.147554127119034250e-04
1.089544772386193017e+03 1.154464961331443389e-04
1.090445222611305553e+03 1.157523520339676494e-04
1.091345672836418089e+03 1.156265358513599141e-04
1.092246123061530625e+03 1.152906743004785610e-04
1.093146573286643161e+03 1.153433165695253105e-04
1.094047023511755924e+03 1.161050529682703547e-04
1.094947473736868460e+03 1.173417983830490712e-04
1.095847923961980996e+03 1.188409062393231205e-04
1.096748374187093532e+03 1.204871748455704631e-04
1.097648824412206068e+03 1.223910459933446183e-04
1.098549274637318604e+03 1.247311354456876202e-04
1.099449724862431140e+03 1.273508082911282621e-04
1.100350175087543676e+03 1.297431942188516211e-04
1.101250625312656211e+03 1.310820378727406725e-04
1.102151075537768747e+03 1.310660933711186389e-04
1.103051525762881283e+03 1.303824409201955500e-04
1.103951975987994047e+03 1.297361213239508918e-04
1.104852426213106583e+03 1.293042742859989232e-04
1.105752876438219118e+03 1.288451507275787376e-04
1.106653326663331654e+03 1.282285236013331416e-04
1.107553776888444190e+03 1.276264183377487339e-04
1.108454227113556726e+03 1.273666784818771941e-04
1.109354677338669262e+03 1.279376042581377264e-04
1.110255127563781798e+03 1.295331927663863033e-04
1.111155577788894334e+03 1.317077434078390630e-04
1.112056028014006870e+03 1.337792267001937678e-04
1.112956478239119406e+03 1.353267401007465960e-04
1.113856928464232169e+03 1.364201305008444498e-04
1.114757378689344705e+03 1.373247443563270389e-04
1.115657828914457241e+03 1.379905716455318530e-04
1.116558279139569777e+03 1.382836157992422773e-04
1.117458729364682313e+03 1.383994351812485005e-04
1.118359179589794849e+03 1.388007579271712596e-04
1.119259629814907385e+03 1.396543536131981185e-04
1.120160080040019920e+03 1.407903304444724972e-04
1.121060530265132456e+03 1.420458440156340885e-04
1.121960980490244992e+03 1.431671390492245881e-04
1.122861430715357528e+03 1.440115777063853480e-04
1.123761880940470292e+03 1.446891932436263517e-04
1.124662331165582827e+03 1.454827314275560011e-04
1.125562781390695363e+03 1.467615584351106804e-04
1.126463231615807899e+03 1.487492926506892401e-04
1.127363681840920435e+03 1.512099145287361282e-04
1.128264132066032971e+03 1.537497884076318040e-04
1.129164582291145507e+03 1.563497079257036707e-04
1.130065032516258043e+03 1.589245829075495520e-04
1.130965482741370579e+03 1.611012443218030248e-04
1.131865932966483115e+03 1.628930115331950266e-04
1.132766383191595651e+03 1.647758490460999269e-04
1.133666833416708187e+03 1.670808870580370027e-04
1.134567283641820950e+03 1.698025295491076736e-04
1.135467733866933486e+03 1.730075899972823993e-04
1.136368184092046022e+03 1.770066837914921031e-04
1.137268634317158558e+03 1.817854235748577330e-04
1.138169084542271094e+03 1.869027279477875731e-04
1.139069534767383630e+03 1.921516549978012200e-04
1.139969984992496165e+03 1.977320801442764659e-04
1.140870435217608701e+03 2.038715499706058947e-04
1.141770885442721237e+03 2.103667099055456420e-04
1.142671335667833773e+03 2.166128948990636311e-04
1.143571785892946309e+03 2.222558017049445155e-04
1.144472236118059072e+03 2.276076216526393364e-04
1.145372686343171608e+03 2.336423049637062488e-04
1.146273136568284144e+03 2.415477698344146366e-04
1.147173586793396680e+03 2.524486196344034720e-04
1.148074037018509216e+03 2.670648715757731589e-04
1.148974487243621752e+03 2.850524122162961934e-04
1.149874937468734288e+03 3.060555226622466629e-04
1.150775387693846824e+03 3.312208350831702744e-04
1.151675837918959360e+03 3.625350192254822470e-04
1.152576288144071896e+03 4.028966382258827601e-04
1.153476738369184432e+03 4.568822126965236771e-04
1.154377188594297195e+03 5.293038556450992181e-04
1.155277638819409731e+03 6.221691652679125269e-04
1.156178089044522267e+03 7.325436690557965468e-04
1.157078539269634803e+03 8.573571785180245791e-04
1.157978989494747339e+03 9.995161828194225676e-04
1.158879439719859874e+03 1.165438312735480502e-03
1.159779889944972410e+03 1.361304263365905503e-03
1.160680340170084946e+03 1.590572665899568942e-03
1.161580790395197482e+03 1.846286168774590158e-03
1.162481240620310018e+03 2.104951562287787816e-03
1.163381690845422554e+03 2.337522766385763309e-03
1.164282141070535317e+03 2.515228466609370061e-03
1.165182591295647853e+03 2.602157663720388019e-03
1.166083041520760389e+03 2.573085910614091639e-03
1.166983491745872925e+03 2.442065984042781929e-03
1.167883941970985461e+03 2.247854070259436374e-03
1.168784392196097997e+03 2.016152412248522867e-03
1.169684842421210533e+03 1.764917659732002497e-03
1.170585292646323069e+03 1.520051491309009446e-03
1.171485742871435605e+03 1.307211916521318872e-03
1.172386193096548141e+03 1.138363175500379512e-03
1.173286643321660677e+03 1.010897426898920478e-03
1.174187093546773440e+03 9.139022072530237359e-04
1.175087543771885976e+03 8.336189014079963683e-04
1.175987993996998512e+03 7.609315767129555584e-04
1.176888444222111048e+03 6.938887549120021942e-04
1.177788894447223583e+03 6.357059319988742074e-04
1.178689344672336119e+03 5.889061605158542323e-04
1.179589794897448655e+03 5.537622508473199817e-04
1.180490245122561191e+03 5.305065820708022893e-04
1.181390695347673727e+03 5.196816022297587106e-04
1.182291145572786263e+03 5.199498126290023024e-04
1.183191595797898799e+03 5.280343084415739649e-04
1.184092046023011562e+03 5.421764910735928219e-04
1.184992496248124098e+03 5.616081008999530052e-04
1.185892946473236634e+03 5.857026207754539469e-04
1.186793396698349170e+03 6.142047025046575579e-04
1.187693846923461706e+03 6.466188313207153456e-04
1.188594297148574242e+03 6.827940501772269792e-04
1.189494747373686778e+03 7.188463186330993791e-04
1.190395197598799314e+03 7.455708799218778524e-04
1.191295647823911850e+03 7.548321840011834160e-04
1.192196098049024386e+03 7.449806155629197686e-04
1.193096548274136921e+03 7.210506391437103858e-04
1.193996998499249457e+03 6.893043094970035048e-04
1.194897448724362221e+03 6.546818422848725474e-04
1.195797898949474757e+03 6.202403287569574052e-04
1.196698349174587293e+03 5.872438146208555686e-04
1.197598799399699828e+03 5.562815651444032216e-04
1.198499249624812364e+03 5.281684715514079224e-04
1.199399699849924900e+03 5.052096682482880383e-04
1.200300150075037436e+03 4.884467750012910260e-04
1.201200600300149972e+03 4.748393293557296043e-04
1.202101050525262508e+03 4.616878803058130126e-04
1.203001500750375044e+03 4.498046688215838820e-04
1.203901950975487580e+03 4.393389260977420053e-04
1.204802401200600343e+03 4.289182118094737439e-04
1.205702851425712879e+03 4.201768691451765350e-04
1.206603301650825415e+03 4.163936166642940467e-04
1.207503751875937951e+03 4.171214069576226094e-04
1.208404202101050487e+03 4.188193330542860980e-04
1.209304652326163023e+03 4.185211524977645110e-04
1.210205102551275559e+03 4.144826504713907604e-04
1.211105552776388095e+03 4.057428602783287770e-04
1.212006003001500630e+03 3.930172729603554987e-04
1.212906453226613166e+03 3.780193726004085894e-04
1.213806903451725702e+03 3.616441173813351160e-04
1.214707353676838466e+03 3.453207217879167962e-04
1.215607803901951002e+03 3.311803666044622657e-04
1.216508254127063537e+03 3.200113287357915005e-04
1.217408704352176073e+03 3.122131087618762826e-04
1.218309154577288609e+03 3.081681460895570584e-04
1.219209604802401145e+03 3.065370194110355597e-04
1.220110055027513681e+03 3.042578406802651995e-04
1.221010505252626217e+03 3.000364693926216666e-04
1.221910955477738753e+03 2.965550298626509220e-04
1.222811405702851289e+03 2.952283762924823350e-04
1.223711855927963825e+03 2.939454369927487821e-04
1.224612306153076588e+03 2.916653551695306472e-04
1.225512756378189124e+03 2.906427361790434797e-04
1.226413206603301660e+03 2.932477370940401074e-04
1.227313656828414196e+03 2.983051870078545255e-04
1.228214107053526732e+03 3.020684934941286542e-04
1.229114557278639268e+03 3.018712543624440820e-04
1.230015007503751804e+03 2.987350188609572891e-04
1.230915457728864340e+03 2.956647792346358086e-04
1.231815907953976875e+03 2.932756958352043569e-04
1.232716358179089411e+03 2.891937498986583413e-04
1.233616808404201947e+03 2.830928271628648744e-04
1.234517258629314711e+03 2.780388544774730275e-04
1.235417708854427246e+03 2.769460273141258156e-04
1.236318159079539782e+03 2.806235325206659910e-04
1.237218609304652318e+03 2.883764856687193981e-04
1.238119059529764854e+03 2.988661558874055853e-04
1.239019509754877390e+03 3.111869342003211305e-04
1.239919959979989926e+03 3.251291691146076363e-04
1.240820410205102462e+03 3.396914417316868029e-04
1.241720860430214998e+03 3.528345085497056055e-04
1.242621310655327534e+03 3.632661189851176041e-04
1.243521760880440070e+03 3.713131391780188960e-04
1.244422211105552606e+03 3.775035883251745550e-04
1.245322661330665369e+03 3.817250593749606995e-04
1.246223111555777905e+03 3.838256893632736237e-04
1.247123561780890441e+03 3.840295562977425500e-04
1.248024012006002977e+03 3.832422281413583450e-04
1.248924462231115513e+03 3.829273578549608620e-04
1.249824912456228049e+03 3.843033498992899991e-04
1.250725362681340584e+03 3.871418754164131053e-04
1.251625812906453120e+03 3.904951500404809425e-04
1.252526263131565656e+03 3.941148659554084962e-04
1.253426713356678192e+03 3.979369868543682900e-04
1.254327163581790728e+03 4.013815293446380806e-04
1.255227613806903491e+03 4.037671492758487606e-04
1.256128064032016027e+03 4.046416529911797547e-04
1.257028514257128563e+03 4.051849019578360580e-04
1.257928964482241099e+03 4.075803091752118511e-04
1.258829414707353635e+03 4.125934984269788333e-04
1.259729864932466171e+03 4.191919655054807603e-04
1.260630315157578707e+03 4.266744521934113924e-04
1.261530765382691243e+03 4.360362953173189363e-04
1.262431215607803779e+03 4.490650493838845795e-04
1.263331665832916315e+03 4.669063514847175298e-04
1.264232116058028851e+03 4.891306627546159998e-04
1.265132566283141614e+03 5.137568857578754446e-04
1.266033016508254150e+03 5.379494587004760627e-04
1.266933466733366686e+03 5.590825846305670730e-04
1.267833916958479222e+03 5.759595530694179739e-04
1.268734367183591758e+03 5.894690910357262836e-04
1.269634817408704293e+03 6.010866688223264311e-04
1.270535267633816829e+03 6.114235227770495589e-04
1.271435717858929365e+03 6.207889619359909785e-04
1.272336168084041901e+03 6.298569286014009958e-04
1.273236618309154437e+03 6.400844170653231064e-04
1.274137068534266973e+03 6.536057743450825490e-04
1.275037518759379736e+03 6.717060381197705737e-04
1.275937968984492272e+03 6.939482622694097529e-04
1.276838419209604808e+03 7.194128285022117174e-04
1.277738869434717344e+03 7.472359708096006341e-04
1.278639319659829880e+03 7.760030171124034440e-04
1.279539769884942416e+03 8.036246967252452756e-04
1.280440220110054952e+03 8.284011852575130916e-04
1.281340670335167488e+03 8.503154655047901302e-04
1.282241120560280024e+03 8.704837116096818999e-04
1.283141570785392560e+03 8.884986434101067041e-04
1.284042021010505096e+03 9.023879204944038361e-04
1.284942471235617859e+03 9.123411727197649210e-04
1.285842921460730395e+03 9.213334312835689535e-04
1.286743371685842931e+03 9.309032972812892812e-04
1.287643821910955467e+03 9.403620724229885385e-04
1.288544272136068003e+03 9.496225372199640531e-04
1.289444722361180538e+03 9.596592890282864066e-04
1.290345172586293074e+03 9.707582751760825005e-04
1.291245622811405610e+03 9.815780600451748730e-04
1.292146073036518146e+03 9.901911351154707528e-04
1.293046523261630682e+03 9.966644474288816752e-04
1.293946973486743218e+03 1.002949791804334714e-03
1.294847423711855754e+03 1.009400972240732724e-03
1.295747873936968517e+03 1.013314096715583644e-03
1.296648324162081053e+03 1.012721798371413965e-03
1.297548774387193589e+03 1.008946936013515976e-03
1.298449224612306125e+03 1.004139400043182421e-03
1.299349674837418661e+03 1.000454157891835687e-03
1.300250125062531197e+03 9.996275895617580311e-04
1.301150575287643733e+03 1.001470516103779469e-03
1.302051025512756269e+03 1.004958996324834073e-03
1.302951475737868805e+03 1.010099587822478389e-03
1.303851925962981340e+03 1.017161303497967142e-03
1.304752376188093876e+03 1.025498692056678795e-03
1.305652826413206640e+03 1.034206417743123484e-03
1.306553276638319176e+03 1.042979298823212136e-03
1.307453726863431712e+03 1.051708004505485551e-03
1.308354177088544247e+03 1.060166943684946348e-03
1.309254627313656783e+03 1.069027744243617861e-03
1.310155077538769319e+03 1.079237774519096029e-03
1.311055527763881855e+03 1.089949689733489286e-03
1.311955977988994391e+03 1.100125085394392487e-03
1.312856428214106927e+03 1.111899419504086594e-03
1.313756878439219463e+03 1.128998349742499916e-03
1.314657328664331999e+03 1.152182556020699611e-03
1.315557778889444762e+03 1.178902553550406586e-03
1.316458229114557298e+03 1.206099622015802337e-03
1.317358679339669834e+03 1.231612064289678817e-03
1.318259129564782370e+03 1.255207686833838222e-03
1.319159579789894906e+03 1.278928561420552982e-03
1.320060030015007442e+03 1.304919978128199400e-03
1.320960480240119978e+03 1.333381035451767192e-03
1.321860930465232514e+03 1.362277162159587903e-03
1.322761380690345050e+03 1.389314917367333790e-03
1.323661830915457585e+03 1.415600407222705357e-03
1.324562281140570121e+03 1.444961245308250524e-03
1.325462731365682885e+03 1.479044285269067588e-03
1.326363181590795421e+03 1.515847956711314191e-03
1.327263631815907956e+03 1.554043708829239839e-03
1.328164082041020492e+03 1.595981521719640151e-03
1.329064532266133028e+03 1.644702272635163200e-03
1.329964982491245564e+03 1.699951186392742062e-03
1.330865432716358100e+03 1.758181505994299782e-03
1.331765882941470636e+03 1.815837917957386586e-03
1.332666333166583172e+03 1.870986202607693039e-03
1.333566783391695708e+03 1.922531392212279691e-03
1.334467233616808244e+03 1.972160800999842555e-03
1.335367683841921007e+03 2.026134227647195113e-03
1.336268134067033543e+03 2.090647607754153592e-03
1.337168584292146079e+03 2.166395325772336837e-03
1.338069034517258615e+03 2.249710076732908907e-03
1.338969484742371151e+03 2.337746736356486558e-03
1.339869934967483687e+03 2.433770672869883540e-03
1.340770385192596223e+03 2.544365556204756986e-03
1.341670835417708759e+03 2.669975818342273498e-03
1.342571285642821294e+03 2.805460871914573599e-03
1.343471735867933830e+03 2.945857515962622963e-03
1.344372186093046366e+03 3.084849832432814271e-03
1.345272636318158902e+03 3.212414121248144145e-03
1.346173086543271666e+03 3.324685969434520473e-03
1.347073536768384201e+03 3.429398996109405198e-03
1.347973986993496737e+03 3.534602817294505914e-03
1.348874437218609273e+03 3.638024927175607243e-03
1.349774887443721809e+03 3.735412662540685963e-03
1.350675337668834345e+03 3.832663598421416195e-03
1.351575787893946881e+03 3.939904011956187058e-03
1.352476238119059417e+03 4.062336533745523198e-03
1.353376688344171953e+03 4.205074456419765315e-03
1.354277138569284489e+03 4.373439351300092114e-03
1.355177588794397025e+03 4.558810489047739750e-03
1.356078039019509788e+03 4.740513931169749832e-03
1.356978489244622324e+03 4.909245667797942393e-03
1.357878939469734860e+03 5.069483680605655664e-03
1.358779389694847396e+03 5.227898067010347712e-03
1.359679839919959932e+03 5.390797095184063879e-03
1.360580290145072468e+03 5.558968018111427357e-03
1.361480740370185003e+03 5.734080902460172470e-03
1.362381190595297539e+03 5.930842978249761983e-03
1.363281640820410075e+03 6.165841030545398706e-03
1.364182091045522611e+03 6.438086061432387805e-03
1.365082541270635147e+03 6.734186406604206546e-03
1.365982991495747910e+03 7.044320093772736720e-03
1.366883441720860446e+03 7.350979375548036786e-03
1.367783891945972982e+03 7.625523342233628959e-03
1.368684342171085518e+03 7.861844207711908214e-03
1.369584792396198054e+03 8.091050668664155968e-03
1.370485242621310590e+03 8.360634268954081696e-03
1.371385692846423126e+03 8.698995976550206316e-03
1.372286143071535662e+03 9.097568011314550313e-03
1.373186593296648198e+03 9.528152115212190285e-03
1.374087043521760734e+03 9.964521944419584693e-03
1.374987493746873270e+03 1.037876378838079039e-02
1.375887943971986033e+03 1.075003833355733796e-02
1.376788394197098569e+03 1.108068767395493578e-02
1.377688844422211105e+03 1.138724419085835292e-02
1.378589294647323641e+03 1.170170939695975437e-02
1.379489744872436177e+03 1.206926062495518315e-02
1.380390195097548713e+03 1.251634101819575073e-02
1.381290645322661248e+03 1.303326132513977186e-02
1.382191095547773784e+03 1.362046744999414853e-02
1.383091545772886320e+03 1.431010904751559530e-02
1.383991995997998856e+03 1.512741913809565776e-02
1.384892446223111392e+03 1.606719631446719421e-02
1.385792896448224155e+03 1.710648706948625364e-02
1.386693346673336691e+03 1.822720702950470645e-02
1.387593796898449227e+03 1.941165502744817556e-02
1.388494247123561763e+03 2.065170674902759920e-02
1.389394697348674299e+03 2.197217224754235976e-02
1.390295147573786835e+03 2.339757289978139712e-02
1.391195597798899371e+03 2.490005315580383349e-02
1.392096048024011907e+03 2.645307502883637030e-02
1.392996498249124443e+03 2.805527295793568132e-02
1.393896948474236979e+03 2.966335687885974723e-02
1.394797398699349515e+03 3.118046349981866416e-02
1.395697848924462278e+03 3.251877301760486977e-02
1.396598299149574814e+03 3.367273100449270223e-02
1.397498749374687350e+03 3.468160395213792241e-02
1.398399199599799886e+03 3.551471174374992712e-02
1.399299649824912422e+03 3.610036958068698482e-02
1.400200100050024957e+03 3.639141562721979334e-02
1.401100550275137493e+03 3.637597303335209781e-02
1.402001000500250029e+03 3.603853808806752740e-02
1.402901450725362565e+03 3.531592031601443055e-02
1.403801900950475101e+03 3.424942713981155712e-02
1.404702351175587637e+03 3.302733276060974832e-02
1.405602801400700173e+03 3.178340898503333178e-02
1.406503251625812936e+03 3.056869282144128105e-02
1.407403701850925472e+03 2.944456550226256381e-02
1.408304152076038008e+03 2.847666130358972661e-02
1.409204602301150544e+03 2.766029395029093521e-02
1.410105052526263080e+03 2.697163082475181189e-02
1.411005502751375616e+03 2.639725647756935994e-02
1.411905952976488152e+03 2.583263796724249300e-02
1.412806403201600688e+03 2.515327371362816727e-02
1.413706853426713224e+03 2.435765945165439816e-02
1.414607303651825760e+03 2.355731070122782378e-02
1.415507753876938295e+03 2.285219669456349523e-02
1.416408204102051059e+03 2.222355667413648816e-02
1.417308654327163595e+03 2.158851455374700967e-02
1.418209104552276131e+03 2.088778480440525026e-02
1.419109554777388666e+03 2.012038051657924140e-02
1.420010005002501202e+03 1.931463665808007962e-02
1.420910455227613738e+03 1.848712656592056344e-02
1.421810905452726274e+03 1.767937522567358116e-02
1.422711355677838810e+03 1.695111394440540487e-02
1.423611805902951346e+03 1.626898154588530057e-02
1.424512256128063882e+03 1.552746048965308184e-02
1.425412706353176418e+03 1.473581966954558634e-02
1.426313156578289181e+03 1.401416928157316229e-02
1.427213606803401717e+03 1.340066141420948390e-02
1.428114057028514253e+03 1.281722016451579405e-02
1.429014507253626789e+03 1.219307683474272694e-02
1.429914957478739325e+03 1.154743851040817941e-02
1.430815407703851861e+03 1.093185967523686158e-02
1.431715857928964397e+03 1.035190244307675721e-02
1.432616308154076933e+03 9.776586750393169781e-03
1.433516758379189469e+03 9.203331182327707111e-03
1.434417208604302004e+03 8.664849877007739509e-03
1.435317658829414540e+03 8.188332846508971849e-03
1.436218109054527304e+03 7.781263273671418061e-03
1.437118559279639840e+03 7.446234454358813953e-03
1.438019009504752376e+03 7.178091380462044840e-03
1.438919459729864911e+03 6.954229233347018931e-03
1.439819909954977447e+03 6.752282468535392851e-03
1.440720360180089983e+03 6.556474054717613756e-03
1.441620810405202519e+03 6.352344810737212827e-03
1.442521260630315055e+03 6.141809730450870607e-03
1.443421710855427591e+03 5.936174145806549785e-03
1.444322161080540127e+03 5.738071166543566234e-03
1.445222611305652663e+03 5.552615812025157513e-03
1.446123061530765426e+03 5.382634085568126225e-03
1.447023511755877962e+03 5.212481999467725308e-03
1.447923961980990498e+03 5.031036821099905097e-03
1.448824412206103034e+03 4.844486866455500508e-03
1.449724862431215570e+03 4.654616198472824422e-03
1.450625312656328106e+03 4.459206813924873093e-03
1.451525762881440642e+03 4.266746452664711350e-03
1.452426213106553178e+03 4.088961472174588822e-03
1.453326663331665713e+03 3.934458965623357368e-03
1.454227113556778249e+03 3.805870820680800053e-03
1.455127563781890785e+03 3.697838707952720485e-03
1.456028014007003321e+03 3.599728531879745064e-03
1.456928464232116085e+03 3.498339024429640651e-03
1.457828914457228620e+03 3.388463588772469559e-03
1.458729364682341156e+03 3.273578173132949895e-03
1.459629814907453692e+03 3.159713933209083551e-03
1.460530265132566228e+03 3.054875574448665150e-03
1.461430715357678764e+03 2.964937290195623128e-03
1.462331165582791300e+03 2.889040173168704907e-03
1.463231615807903836e+03 2.824326646645186449e-03
1.464132066033016372e+03 2.766056122520066385e-03
1.465032516258128908e+03 2.704687302932754726e-03
1.465932966483241444e+03 2.631302839369818736e-03
1.466833416708354207e+03 2.546847180739545812e-03
1.467733866933466743e+03 2.458432025938890337e-03
1.468634317158579279e+03 2.374292070403193327e-03
1.469534767383691815e+03 2.301060041826072291e-03
1.470435217608804351e+03 2.239114074137950067e-03
1.471335667833916887e+03 2.182875103839241812e-03
1.472236118059029423e+03 2.126408757576720744e-03
1.473136568284141958e+03 2.066976882614820522e-03
1.474037018509254494e+03 2.006092387168768518e-03
1.474937468734367030e+03 1.945920027070342567e-03
1.475837918959479566e+03 1.885490376697384089e-03
1.476738369184592329e+03 1.822103676905620579e-03
1.477638819409704865e+03 1.756521742967554270e-03
1.478539269634817401e+03 1.692734830043898407e-03
1.479439719859929937e+03 1.631990240002351806e-03
1.480340170085042473e+03 1.574247744923957561e-03
1.481240620310155009e+03 1.522224318440318792e-03
1.482141070535267545e+03 1.478583206460678092e-03
1.483041520760380081e+03 1.442644706060424841e-03
1.483941970985492617e+03 1.409680322138772432e-03
1.484842421210605153e+03 1.373492674922723424e-03
1.485742871435717689e+03 1.332083386689030154e-03
1.486643321660830452e+03 1.289976908949985778e-03
1.487543771885942988e+03 1.252860300864224764e-03
1.488444222111055524e+03 1.220684541841420565e-03
1.489344672336168060e+03 1.188418382109164735e-03
1.490245122561280596e+03 1.153481006445000604e-03
1.491145572786393132e+03 1.117421130467545140e-03
1.492046023011505667e+03 1.083744978979706746e-03
1.492946473236618203e+03 1.055575207552087499e-03
1.493846923461730739e+03 1.033321548386950889e-03
1.494747373686843275e+03 1.014475973256590263e-03
1.495647823911955811e+03 9.972143025838203691e-04
1.496548274137068574e+03 9.819148878008354155e-04
1.497448724362181110e+03 9.673651558193841751e-04
1.498349174587293646e+03 9.516190422042083465e-04
1.499249624812406182e+03 9.362876509393070704e-04
1.500150075037518718e+03 9.240593421314426126e-04
1.501050525262631254e+03 9.155713682902172313e-04
1.501950975487743790e+03 9.104731171967859896e-04
1.502851425712856326e+03 9.061306815841703964e-04
1.503751875937968862e+03 8.984901019788572689e-04
1.504652326163081398e+03 8.856047153803197746e-04
1.505552776388193934e+03 8.683319495720520295e-04
1.506453226613306470e+03 8.493226723632669615e-04
1.507353676838419233e+03 8.306399382513160370e-04
1.508254127063531769e+03 8.133057526595904212e-04
1.509154577288644305e+03 7.987777470596000261e-04
1.510055027513756841e+03 7.883482183730173903e-04
1.510955477738869376e+03 7.813678918635879071e-04
1.511855927963981912e+03 7.760551678199253782e-04
1.512756378189094448e+03 7.725198690337683896e-04
1.513656828414206984e+03 7.724032137645553842e-04
1.514557278639319520e+03 7.748945021672397956e-04
1.515457728864432056e+03 7.764733472113865588e-04
1.516358179089544592e+03 7.755922719006560400e-04
1.517258629314657355e+03 7.735537576305263072e-04
1.518159079539769891e+03 7.709532600697976230e-04
1.519059529764882427e+03 7.665804407394404907e-04
1.519959979989994963e+03 7.588662656878980822e-04
1.520860430215107499e+03 7.487666066579767767e-04
1.521760880440220035e+03 7.394216988252132802e-04
1.522661330665332571e+03 7.322656306172984622e-04
1.523561780890445107e+03 7.263605551105731814e-04
1.524462231115557643e+03 7.214180060684614176e-04
1.525362681340670179e+03 7.189376090334520389e-04
1.526263131565782714e+03 7.206493929396831427e-04
1.527163581790895478e+03 7.264433761321032303e-04
1.528064032016008014e+03 7.344742594955439106e-04
1.528964482241120550e+03 7.422434000690763525e-04
1.529864932466233086e+03 7.485872324941677917e-04
1.530765382691345621e+03 7.550175897529027343e-04
1.531665832916458157e+03 7.624963766656504783e-04
1.532566283141570693e+03 7.686897507501367797e-04
1.533466733366683229e+03 7.698784671765578460e-04
1.534367183591795765e+03 7.647863291416027998e-04
1.535267633816908301e+03 7.560241955820817773e-04
1.536168084042020837e+03 7.469339464615788954e-04
1.537068534267133600e+03 7.401836067006365046e-04
1.537968984492246136e+03 7.377944946140447668e-04
1.538869434717358672e+03 7.406811827515039038e-04
1.539769884942471208e+03 7.488202221517590955e-04
1.540670335167583744e+03 7.592880787230736313e-04
1.541570785392696280e+03 7.662549535268574743e-04
1.542471235617808816e+03 7.659864673437518810e-04
1.543371685842921352e+03 7.606952282868081113e-04
1.544272136068033888e+03 7.550916042515742844e-04
1.545172586293146423e+03 7.512879888176380184e-04
1.546073036518258959e+03 7.495121671967434592e-04
1.546973486743371723e+03 7.509282733292113599e-04
1.547873936968484259e+03 7.560378877321668415e-04
1.548774387193596795e+03 7.626638254147353807e-04
1.549674837418709330e+03 7.681902825522094694e-04
1.550575287643821866e+03 7.715683916656029817e-04
1.551475737868934402e+03 7.724132922088403552e-04
1.552376188094046938e+03 7.700058299544687958e-04
1.553276638319159474e+03 7.638447158171779525e-04
1.554177088544272010e+03 7.531236158708277170e-04
1.555077538769384546e+03 7.378819400036556618e-04
1.555977988994497082e+03 7.215742032924209832e-04
1.556878439219609618e+03 7.089165542566704808e-04
1.557778889444722381e+03 7.026068025021596020e-04
1.558679339669834917e+03 7.033566190793340538e-04
1.559579789894947453e+03 7.102264905407834486e-04
1.560480240120059989e+03 7.199772083005348154e-04
1.561380690345172525e+03 7.280993780817486983e-04
1.562281140570285061e+03 7.333432374784913145e-04
1.563181590795397597e+03 7.395467641966607013e-04
1.564082041020510133e+03 7.508263199026188372e-04
1.564982491245622668e+03 7.682399743743806471e-04
1.565882941470735204e+03 7.914063403477921907e-04
1.566783391695847740e+03 8.198251945241396806e-04
1.567683841920960504e+03 8.540237960137621537e-04
1.568584292146073039e+03 8.962667065268413186e-04
1.569484742371185575e+03 9.467163258991959833e-04
1.570385192596298111e+03 1.001809392452483695e-03
1.571285642821410647e+03 1.054896813268082047e-03
1.572186093046523183e+03 1.096037045820010339e-03
1.573086543271635719e+03 1.116753745803524683e-03
1.573986993496748255e+03 1.113665892955165550e-03
1.574887443721860791e+03 1.087932816646581743e-03
1.575787893946973327e+03 1.039142670391675176e-03
1.576688344172085863e+03 9.656017633013974167e-04
1.577588794397198626e+03 8.653053511017996758e-04
1.578489244622311162e+03 7.420222485465798610e-04
1.579389694847423698e+03 6.130060290638737362e-04
1.580290145072536234e+03 4.989156442091793311e-04
1.581190595297648770e+03 4.093896008951459446e-04
1.582091045522761306e+03 3.420389413462816526e-04
1.582991495747873842e+03 2.906447969252833096e-04
1.583891945972986377e+03 2.508241296883007574e-04
1.584792396198098913e+03 2.199457105574428634e-04
1.585692846423211449e+03 1.958816070443946680e-04
1.586593296648323985e+03 1.768685184820333500e-04
1.587493746873436749e+03 1.615807497734288980e-04
1.588394197098549284e+03 1.490712293569543777e-04
1.589294647323661820e+03 1.386699196139950174e-04
1.590195097548774356e+03 1.298983264759426704e-04
1.591095547773886892e+03 1.224092271246983075e-04
1.591995997998999428e+03 1.159463013053480397e-04
1.592896448224111964e+03 1.103173087097287407e-04
1.593796898449224500e+03 1.053761362411245446e-04
1.594697348674337036e+03 1.010106557421881123e-04
1.595597798899449572e+03 9.713446445266187240e-05
1.596498249124562108e+03 9.368131802513000688e-05
1.597398699349674871e+03 9.060155208845638124e-05
1.598299149574787407e+03 8.786013404311849911e-05
1.599199599799899943e+03 8.543626897243660845e-05
1.600100050025012479e+03 8.332474288418692282e-05
1.601000500250125015e+03 8.153936655857878506e-05
1.601900950475237551e+03 8.011854222996243544e-05
1.602801400700350086e+03 7.913021041026917387e-05
1.603701850925462622e+03 7.866191631662568305e-05
1.604602301150575158e+03 7.875026542625660636e-05
1.605502751375687694e+03 7.919052110857776293e-05
1.606403201600800230e+03 7.942456353638021617e-05
1.607303651825912766e+03 7.902586054698677463e-05
1.608204102051025529e+03 7.806061337581813567e-05
1.609104552276138065e+03 7.664185360425718413e-05
1.610005002501250601e+03 7.484734998850067485e-05
1.610905452726363137e+03 7.252767586499158238e-05
1.611805902951475673e+03 6.957112422539162618e-05
1.612706353176588209e+03 6.645181551511053790e-05
1.613606803401700745e+03 6.367788662850247603e-05
1.614507253626813281e+03 6.138367888592980435e-05
1.615407703851925817e+03 5.949741812138595369e-05
1.616308154077038353e+03 5.791347121201931378e-05
1.617208604302150889e+03 5.654709063812243390e-05
1.618109054527263652e+03 5.533907965600299851e-05
1.619009504752376188e+03 5.424941215408288475e-05
1.619909954977488724e+03 5.325089623210486716e-05
1.620810405202601260e+03 5.232470171348321407e-05
1.621710855427713796e+03 5.145746576452030755e-05
1.622611305652826331e+03 5.063945742762315799e-05
1.623511755877938867e+03 4.986340864055850491e-05
1.624412206103051403e+03 4.912375890947501397e-05
1.625312656328163939e+03 4.841615812901283247e-05
1.626213106553276475e+03 4.773713274257133671e-05
1.627113556778389011e+03 4.708385705626070829e-05
1.628014007003501774e+03 4.645399351045301505e-05
1.628914457228614310e+03 4.584557901952777828e-05
1.629814907453726846e+03 4.525694265015111473e-05
1.630715357678839382e+03 4.468664499160203066e-05
1.631615807903951918e+03 4.413343279147246569e-05
1.632516258129064454e+03 4.359620450400891555e-05
1.633416708354176990e+03 4.307398375629678040e-05
1.634317158579289526e+03 4.256589864075461350e-05
1.635217608804402062e+03 4.207116535238188327e-05
1.636118059029514598e+03 4.158907510707484051e-05
1.637018509254627133e+03 4.111898356756920941e-05
1.637918959479739897e+03 4.066030220774275155e-05
1.638819409704852433e+03 4.021249119146955853e-05
1.639719859929964969e+03 3.977505344703000946e-05
1.640620310155077505e+03 3.934752969446536088e-05
1.641520760380190040e+03 3.892949423952427241e-05
1.642421210605302576e+03 3.852055138969539443e-05
1.643321660830415112e+03 3.812033237926046151e-05
1.644222111055527648e+03 3.772849271412906087e-05
1.645122561280640184e+03 3.734470986544713151e-05
1.646023011505752720e+03 3.696868125501977237e-05
1.646923461730865256e+03 3.660012248653044176e-05
1.647823911955978019e+03 3.623876578508704966e-05
1.648724362181090555e+03 3.588435861439556848e-05
1.649624812406203091e+03 3.553666244623318322e-05
1.650525262631315627e+03 3.519545166119193794e-05
1.651425712856428163e+03 3.486051256313994355e-05
1.652326163081540699e+03 3.453164249264364027e-05
1.653226613306653235e+03 3.420864902690235300e-05
1.654127063531765771e+03 3.389134925562361942e-05
1.655027513756878307e+03 3.357956912381665520e-05
1.655927963981990843e+03 3.327314283377762687e-05
1.656828414207103378e+03 3.297191229961154004e-05
1.657728864432216142e+03 3.267572664853665856e-05
1.658629314657328678e+03 3.238444176397886631e-05
1.659529764882441214e+03 3.209791986610254058e-05
1.660430215107553749e+03 3.181602912597255017e-05
1.661330665332666285e+03 3.153864331000621264e-05
1.662231115557778821e+03 3.126564145177448186e-05
1.663131565782891357e+03 3.099690754855473238e-05
1.664032016008003893e+03 3.073233028033022873e-05
1.664932466233116429e+03 3.047180274919778295e-05
1.665832916458228965e+03 3.021522223735457146e-05
1.666733366683341501e+03 2.996248998204066450e-05
1.667633816908454037e+03 2.971351096598347816e-05
1.668534267133566800e+03 2.946819372202998420e-05
1.669434717358679336e+03 2.922645015079720649e-05
1.670335167583791872e+03 2.898819535027866197e-05
1.671235617808904408e+03 2.875334745644948718e-05
1.672136068034016944e+03 2.852182749400666978e-05
1.673036518259129480e+03 2.829355923645571598e-05
1.673936968484242016e+03 2.806846907483514665e-05
1.674837418709354552e+03 2.784648589442781600e-05
1.675737868934467087e+03 2.762754095886771569e-05
1.676638319159579623e+03 2.741156780110590944e-05
1.677538769384692159e+03 2.719850212074165251e-05
1.678439219609804923e+03 2.698828168726453069e-05
1.679339669834917459e+03 2.678084624880250309e-05
1.680240120060029994e+03 2.657613744598633234e-05
1.681140570285142530e+03 2.637409873059143301e-05
1.682041020510255066e+03 2.617467528862988210e-05
1.682941470735367602e+03 2.597781396760147647e-05
1.683841920960480138e+03 2.578346320762993054e-05
1.684742371185592674e+03 2.559157297623272667e-05
1.685642821410705210e+03 2.540209470649361896e-05
1.686543271635817746e+03 2.521498123842251179e-05
1.687443721860930282e+03 2.503018676330233234e-05
1.688344172086043045e+03 2.484766677084209948e-05
1.689244622311155581e+03 2.466737799896086692e-05
1.690145072536268117e+03 2.448927838604844821e-05
1.691045522761380653e+03 2.431332702554979712e-05
1.691945972986493189e+03 2.413948412274213943e-05
1.692846423211605725e+03 2.396771095357126899e-05
1.693746873436718261e+03 2.379796982543219767e-05
1.694647323661830796e+03 2.363022403977999621e-05
1.695547773886943332e+03 2.346443785647043561e-05
1.696448224112055868e+03 2.330057645973082129e-05
1.697348674337168404e+03 2.313860592567176325e-05
1.698249124562281168e+03 2.297849319125611382e-05
1.699149574787393703e+03 2.282020602464496762e-05
1.700050025012506239e+03 2.266371299684615762e-05
1.700950475237618775e+03 2.250898345459794882e-05
1.701850925462731311e+03 2.235598749442075650e-05
1.702751375687843847e+03 2.220469593777557742e-05
1.703651825912956383e+03 2.205508030727534733e-05
1.704552276138068919e+03 2.190711280388945811e-05
1.705452726363181455e+03 2.176076628509646739e-05
1.706353176588293991e+03 2.161601424393453432e-05
1.707253626813406527e+03 2.147283078890382135e-05
1.708154077038519290e+03 2.133119062468224764e-05
1.709054527263631826e+03 2.119106903361081925e-05
1.709954977488744362e+03 2.105244185791368589e-05
1.710855427713856898e+03 2.091528548261694233e-05
1.711755877938969434e+03 2.077957681913140524e-05
1.712656328164081970e+03 2.064529328947133576e-05
1.713556778389194506e+03 2.051241281107427409e-05
1.714457228614307041e+03 2.038091378219973989e-05
1.715357678839419577e+03 2.025077506787513964e-05
1.716258129064532113e+03 2.012197598636492692e-05
1.717158579289644649e+03 1.999449629614524144e-05
1.718059029514757185e+03 1.986831618334908509e-05
1.718959479739869948e+03 1.974341624967381186e-05
1.719859929964982484e+03 1.961977750072205142e-05
1.720760380190095020e+03 1.949738133476097539e-05
1.721660830415207556e+03 1.937620953187934729e-05
1.722561280640320092e+03 1.925624424352764144e-05
1.723461730865432628e+03 1.913746798242248082e-05
1.724362181090545164e+03 1.901986361280135705e-05
1.725262631315657700e+03 1.890341434101167081e-05
1.726163081540770236e+03 1.878810370642184808e-05
1.727063531765882772e+03 1.867391557263895020e-05
1.727963981990995308e+03 1.856083411902232188e-05
1.728864432216108071e+03 1.844884383247871851e-05
1.729764882441220607e+03 1.833792949953005604e-05
1.730665332666333143e+03 1.822807619864125759e-05
1.731565782891445679e+03 1.811926929279640609e-05
1.732466233116558215e+03 1.801149442231848665e-05
1.733366683341670750e+03 1.790473749791608629e-05
1.734267133566783286e+03 1.779898469395344615e-05
1.735167583791895822e+03 1.769422244193301729e-05
1.736068034017008358e+03 1.759043742418310691e-05
1.736968484242120894e+03 1.748761656774184303e-05
1.737868934467233430e+03 1.738574703843040370e-05
1.738769384692346193e+03 1.728481623510924248e-05
1.739669834917458729e+03 1.718481178410837592e-05
1.740570285142571265e+03 1.708572153382841922e-05
1.741470735367683801e+03 1.698753354950159261e-05
1.742371185592796337e+03 1.689023610811194281e-05
1.743271635817908873e+03 1.679381769346468626e-05
1.744172086043021409e+03 1.669826699140166564e-05
1.745072536268133945e+03 1.660357288515695981e-05
1.745972986493246481e+03 1.650972445084764625e-05
1.746873436718359017e+03 1.641671095309402077e-05
1.747773886943471553e+03 1.632452184076779700e-05
1.748674337168584316e+03 1.623314674285867033e-05
1.749574787393696852e+03 1.614257546446089622e-05
1.750475237618809388e+03 1.605279798287088746e-05
1.751375687843921924e+03 1.596380444379465462e-05
1.752276138069034459e+03 1.587558515766128491e-05
1.753176588294146995e+03 1.578813059603733648e-05
1.754077038519259531e+03 1.570143138814021028e-05
1.754977488744372067e+03 1.561547831744652850e-05
1.755877938969484603e+03 1.553026231839280908e-05
1.756778389194597139e+03 1.544577447316403178e-05
1.757678839419709675e+03 1.536200600857003139e-05
1.758579289644822438e+03 1.527894829300275212e-05
1.759479739869934974e+03 1.519659283347676526e-05
1.760380190095047510e+03 1.511493127274439866e-05
1.761280640320160046e+03 1.503395538648949962e-05
1.762181090545272582e+03 1.495365708059207246e-05
1.763081540770385118e+03 1.487402838846427684e-05
1.763981990995497654e+03 1.479506146845468348e-05
1.764882441220610190e+03 1.471674860131955723e-05
1.765782891445722726e+03 1.463908218775734912e-05
1.766683341670835262e+03 1.456205474600597565e-05
1.767583791895947797e+03 1.448565890950055919e-05
1.768484242121060333e+03 1.440988742458942228e-05
1.769384692346173097e+03 1.433473314830667222e-05
1.770285142571285633e+03 1.426018904620024424e-05
1.771185592796398169e+03 1.418624819021302827e-05
1.772086043021510704e+03 1.411290375661550886e-05
1.772986493246623240e+03 1.404014902398917958e-05
1.773886943471735776e+03 1.396797737125803345e-05
1.774787393696848312e+03 1.389638227576783264e-05
1.775687843921960848e+03 1.382535731141149248e-05
1.776588294147073384e+03 1.375489614679795883e-05
1.777488744372185920e+03 1.368499254346595283e-05
1.778389194597298456e+03 1.361564035413854768e-05
1.779289644822411219e+03 1.354683352101852333e-05
1.780190095047523755e+03 1.347856607412497163e-05
1.781090545272636291e+03 1.341083212966616131e-05
1.781990995497748827e+03 1.334362588845215076e-05
1.782891445722861363e+03 1.327694163434181245e-05
1.783791895947973899e+03 1.321077373272700817e-05
1.784692346173086435e+03 1.314511662904984769e-05
1.785592796398198971e+03 1.307996484735416585e-05
1.786493246623311506e+03 1.301531298886968158e-05
1.787393696848424042e+03 1.295115573062702282e-05
1.788294147073536578e+03 1.288748782410461846e-05
1.789194597298649342e+03 1.282430409390449789e-05
1.790095047523761878e+03 1.276159943645873441e-05
1.790995497748874413e+03 1.269936881876221963e-05
1.791895947973986949e+03 1.263760727713536514e-05
1.792796398199099485e+03 1.257630991601177307e-05
1.793696848424212021e+03 1.251547190675355038e-05
1.794597298649324557e+03 1.245508848649133452e-05
1.795497748874437093e+03 1.239515495698941665e-05
1.796398199099549629e+03 1.233566668353515612e-05
1.797298649324662165e+03 1.227661909385170521e-05
1.798199099549774701e+03 1.221800767703410193e-05
1.799099549774887464e+03 1.215982798250758883e-05
1.800000000000000000e+03 1.210207561900780912e-05
