0.000000000000000000e+00 1.012916133227557448e-03
9.004502251125562351e-01 1.357544740393235461e-03
1.800900450225112470e+00 1.828124313039419888e-03
2.701350675337668594e+00 2.389676689528337072e-03
3.601800900450224940e+00 2.849292923941421866e-03
4.502251125562780842e+00 2.903755998267607084e-03
5.402701350675337189e+00 2.508400414012627606e-03
6.303151575787893535e+00 1.946260065267280950e-03
7.203601800900449881e+00 1.449990684557788453e-03
8.104052026013006227e+00 1.080057826873204174e-03
9.004502251125561685e+00 8.181197479475604047e-04
9.904952476238118919e+00 6.331764285528683738e-04
1.080540270135067438e+01 5.006986148801722191e-04
1.170585292646323161e+01 4.039444272866531019e-04
1.260630315157578707e+01 3.318051574567365178e-04
1.350675337668834430e+01 2.769199067797570041e-04
1.440720360180089976e+01 2.343791783091301564e-04
1.530765382691345522e+01 2.008645564417829027e-04
1.620810405202601245e+01 1.740914146807299371e-04
1.710855427713856969e+01 1.524467440517999735e-04
1.800900450225112337e+01 1.347278232973865499e-04
1.890945472736368060e+01 1.199466626252933325e-04
1.980990495247623784e+01 1.073060357485416109e-04
2.071035517758879507e+01 9.634959418985063781e-05
2.161080540270134875e+01 8.688477208083268829e-05
2.251125562781390599e+01 7.874295921685197036e-05
2.341170585292646322e+01 7.172588266941707161e-05
2.431215607803901690e+01 6.564633628350851442e-05
2.521260630315157414e+01 6.034912328171439401e-05
2.611305652826413137e+01 5.571202474314803938e-05
2.701350675337668861e+01 5.164090238479758895e-05
2.791395697848924229e+01 4.806394791901031830e-05
2.881440720360179952e+01 4.492416179487071281e-05
2.971485742871435676e+01 4.216333966031728358e-05
3.061530765382691044e+01 3.969415037788507413e-05
3.151575787893946767e+01 3.739865034486061616e-05
3.241620810405202491e+01 3.520150311095994038e-05
3.331665832916458214e+01 3.311343487271739869e-05
3.421710855427713938e+01 3.117982260023897072e-05
3.511755877938969661e+01 2.943578958698308211e-05
3.601800900450224674e+01 2.788358305555495501e-05
3.691845922961480397e+01 2.648894611204852245e-05
3.781890945472736121e+01 2.519220808528120940e-05
3.871935967983991844e+01 2.394328537647138342e-05
3.961980990495247568e+01 2.274553176604012352e-05
4.052026013006503291e+01 2.163218362490567479e-05
4.142071035517759015e+01 2.061847976591873281e-05
4.232116058029014027e+01 1.970013870417555379e-05
4.322161080540269751e+01 1.886705787337062364e-05
4.412206103051525474e+01 1.810997584705721579e-05
4.502251125562781198e+01 1.742349821310336036e-05
4.592296148074036921e+01 1.680770648399269290e-05
4.682341170585292645e+01 1.626643386732436105e-05
4.772386193096548368e+01 1.580290584329702147e-05
4.862431215607803381e+01 1.540866156184256841e-05
4.952476238119059104e+01 1.504503620277514164e-05
5.042521260630314828e+01 1.465409970298718979e-05
5.132566283141570551e+01 1.422545655862313055e-05
5.222611305652826275e+01 1.380935733179229153e-05
5.312656328164081998e+01 1.344118215376065433e-05
5.402701350675337721e+01 1.311262657567451265e-05
5.492746373186592734e+01 1.280315921578912517e-05
5.582791395697848458e+01 1.249764409783710040e-05
5.672836418209104181e+01 1.215935569766799529e-05
5.762881440720359905e+01 1.175430828324431472e-05
5.852926463231615628e+01 1.132650877545678884e-05
5.942971485742871351e+01 1.094965907970712922e-05
6.033016508254127075e+01 1.065505427578635500e-05
6.123061530765382088e+01 1.043106757503472896e-05
6.213106553276637811e+01 1.024363241211051483e-05
6.303151575787893535e+01 1.007129912139405171e-05
6.393196598299149258e+01 9.928617471732570487e-06
6.483241620810404982e+01 9.833764716911419409e-06
6.573286643321659994e+01 9.763168210314312386e-06
6.663331665832916428e+01 9.673685036088584984e-06
6.753376688344171441e+01 9.540064329162634591e-06
6.843421710855427875e+01 9.331259202825154030e-06
6.933466733366682888e+01 9.041616934598415843e-06
7.023511755877939322e+01 8.719803807142163338e-06
7.113556778389194335e+01 8.411770277918038179e-06
7.203601800900449348e+01 8.149880302388275253e-06
7.293646823411705782e+01 7.959570485524772879e-06
7.383691845922960795e+01 7.840031130488331814e-06
7.473736868434217229e+01 7.752355104887124999e-06
7.563781890945472242e+01 7.636872433429030602e-06
7.653826913456728676e+01 7.480588772976610708e-06
7.743871935967983688e+01 7.335306768836455073e-06
7.833916958479238701e+01 7.254887167386605659e-06
7.923961980990495135e+01 7.265104920943516954e-06
8.014007003501750148e+01 7.365365514557596577e-06
8.104052026013006582e+01 7.518215589718915805e-06
8.194097048524261595e+01 7.639443340832542074e-06
8.284142071035518029e+01 7.632753849136549108e-06
8.374187093546773042e+01 7.477544257632618320e-06
8.464232116058028055e+01 7.257051982771813913e-06
8.554277138569284489e+01 7.047409635970320260e-06
8.644322161080539502e+01 6.842496030730772089e-06
8.734367183591795936e+01 6.620601186201285990e-06
8.824412206103050949e+01 6.407609495786336786e-06
8.914457228614307382e+01 6.247586675099208904e-06
9.004502251125562395e+01 6.169055301327693649e-06
9.094547273636817408e+01 6.180281051498410191e-06
9.184592296148073842e+01 6.262007681125593546e-06
9.274637318659328855e+01 6.351683132991838215e-06
9.364682341170585289e+01 6.363863271705732212e-06
9.454727363681840302e+01 6.273541265274355059e-06
9.544772386193096736e+01 6.145129765115217780e-06
9.634817408704351749e+01 6.061375980253764089e-06
9.724862431215606762e+01 6.066318075846472502e-06
9.814907453726863196e+01 6.156051844510051513e-06
9.904952476238118209e+01 6.287622827204898602e-06
9.994997498749374643e+01 6.383419725620183154e-06
1.008504252126062966e+02 6.382263222209811402e-06
1.017508754377188609e+02 6.312045444658427484e-06
1.026513256628314110e+02 6.264740426237194031e-06
1.035517758879439612e+02 6.301900122686715851e-06
1.044522261130565255e+02 6.388575276166988958e-06
1.053526763381690756e+02 6.424349605223790235e-06
1.062531265632816400e+02 6.353164814877619366e-06
1.071535767883941901e+02 6.194116565688020690e-06
1.080540270135067544e+02 5.990218471954644705e-06
1.089544772386193046e+02 5.812008387143561537e-06
1.098549274637318547e+02 5.722184084857654213e-06
1.107553776888444190e+02 5.714051456296559937e-06
1.116558279139569692e+02 5.723337593869720096e-06
1.125562781390695335e+02 5.696769705595045660e-06
1.134567283641820836e+02 5.631082791077048773e-06
1.143571785892946480e+02 5.552685442635934261e-06
1.152576288144071981e+02 5.484405071224582984e-06
1.161580790395197482e+02 5.433105131931009273e-06
1.170585292646323126e+02 5.402143045891401055e-06
1.179589794897448627e+02 5.386337569521420577e-06
1.188594297148574270e+02 5.374251885180820570e-06
1.197598799399699772e+02 5.382736665549166674e-06
1.206603301650825415e+02 5.445435132350609336e-06
1.215607803901950916e+02 5.548646855015163522e-06
1.224612306153076418e+02 5.624070410906106818e-06
1.233616808404202061e+02 5.615872705294483153e-06
1.242621310655327562e+02 5.526917599779475684e-06
1.251625812906453206e+02 5.420521300583000706e-06
1.260630315157578707e+02 5.373134118989083497e-06
1.269634817408704350e+02 5.411349781928571964e-06
1.278639319659829852e+02 5.511840116721169508e-06
1.287643821910955353e+02 5.660700809675158675e-06
1.296648324162080996e+02 5.853038488329680020e-06
1.305652826413206640e+02 6.037740849888949294e-06
1.314657328664331999e+02 6.161186600884352449e-06
1.323661830915457642e+02 6.241382953025284324e-06
1.332666333166583286e+02 6.327456312136694075e-06
1.341670835417708929e+02 6.422305010155908774e-06
1.350675337668834288e+02 6.487328135746337473e-06
1.359679839919959932e+02 6.479810435798284549e-06
1.368684342171085575e+02 6.376568638422074842e-06
1.377688844422210934e+02 6.224755178922040183e-06
1.386693346673336578e+02 6.125978630290905916e-06
1.395697848924462221e+02 6.133131706063465018e-06
1.404702351175587864e+02 6.209839880192572159e-06
1.413706853426713224e+02 6.285555569706996045e-06
1.422711355677838867e+02 6.310870760930848367e-06
1.431715857928964510e+02 6.273659621204498871e-06
1.440720360180089870e+02 6.214640607239347999e-06
1.449724862431215513e+02 6.197817181265127816e-06
1.458729364682341156e+02 6.261800379464216109e-06
1.467733866933466800e+02 6.397966136166573650e-06
1.476738369184592159e+02 6.564363844579885446e-06
1.485742871435717802e+02 6.734211417297079925e-06
1.494747373686843446e+02 6.897196297562467379e-06
1.503751875937968805e+02 7.039911538594187114e-06
1.512756378189094448e+02 7.143309217052176115e-06
1.521760880440220092e+02 7.202666150498981933e-06
1.530765382691345735e+02 7.236736117791990349e-06
1.539769884942471094e+02 7.266922558934464244e-06
1.548774387193596738e+02 7.310085175147086226e-06
1.557778889444722381e+02 7.389866165605948043e-06
1.566783391695847740e+02 7.543552997365686715e-06
1.575787893946973384e+02 7.796299093274074659e-06
1.584792396198099027e+02 8.093453579052338961e-06
1.593796898449224670e+02 8.323489477997614928e-06
1.602801400700350030e+02 8.425352301856510741e-06
1.611805902951475673e+02 8.420822092980045925e-06
1.620810405202601316e+02 8.389086602477852965e-06
1.629814907453726676e+02 8.408943387976290196e-06
1.638819409704852319e+02 8.512414891447683948e-06
1.647823911955977962e+02 8.661568592715146315e-06
1.656828414207103606e+02 8.789466084017196124e-06
1.665832916458228965e+02 8.917100807240375878e-06
1.674837418709354608e+02 9.088017220656780302e-06
1.683841920960480252e+02 9.248006571530758071e-06
1.692846423211605611e+02 9.323106321458583741e-06
1.701850925462731254e+02 9.304283615021778457e-06
1.710855427713856898e+02 9.200366219827983599e-06
1.719859929964982541e+02 8.981857748920336844e-06
1.728864432216107900e+02 8.644365894506767883e-06
1.737868934467233544e+02 8.260456714278970557e-06
1.746873436718359187e+02 7.945222583432790680e-06
1.755877938969484546e+02 7.762423083189801007e-06
1.764882441220610190e+02 7.691811594479650312e-06
1.773886943471735833e+02 7.706221947847643767e-06
1.782891445722861476e+02 7.804372443870864502e-06
1.791895947973986836e+02 7.972718778858634817e-06
1.800900450225112479e+02 8.169043748550542546e-06
1.809904952476238122e+02 8.364186930990932963e-06
1.818909454727363482e+02 8.567586571832812561e-06
1.827913956978489125e+02 8.772048508395042856e-06
1.836918459229614768e+02 8.941079754422173791e-06
1.845922961480740412e+02 9.096135470163890877e-06
1.854927463731865771e+02 9.293942639763525085e-06
1.863931965982991414e+02 9.507349487056094818e-06
1.872936468234117058e+02 9.635979622498561610e-06
1.881940970485242417e+02 9.632309024832140201e-06
1.890945472736368060e+02 9.505936734767298735e-06
1.899949974987493704e+02 9.284610248763022441e-06
1.908954477238619347e+02 9.057504099602468954e-06
1.917958979489744706e+02 8.932906352730696166e-06
1.926963481740870350e+02 8.937682770320080160e-06
1.935967983991995993e+02 9.005915169509750255e-06
1.944972486243121352e+02 9.060728763999828126e-06
1.953976988494246996e+02 9.105533512662926859e-06
1.962981490745372639e+02 9.166724701120257049e-06
1.971985992996498283e+02 9.221880806220839066e-06
1.980990495247623642e+02 9.242601031003612873e-06
1.989994997498749285e+02 9.225583976451060846e-06
1.998999499749874929e+02 9.210268087337832846e-06
2.008004002001000288e+02 9.223864128370861732e-06
2.017008504252125931e+02 9.213393036819844353e-06
2.026013006503251574e+02 9.127835202365146256e-06
2.035017508754377218e+02 9.008748300942078633e-06
2.044022011005502577e+02 8.927041519790907467e-06
2.053026513256628220e+02 8.919329837831857518e-06
2.062031015507753864e+02 8.982134497240538759e-06
2.071035517758879223e+02 9.088816180803626691e-06
2.080040020010004866e+02 9.223423628516531087e-06
2.089044522261130510e+02 9.369786943827293079e-06
2.098049024512256153e+02 9.520619562625926406e-06
2.107053526763381512e+02 9.691547506425688733e-06
2.116058029014507156e+02 9.870656785543688045e-06
2.125062531265632799e+02 1.002122125381192914e-05
2.134067033516758158e+02 1.012790058647007137e-05
2.143071535767883802e+02 1.019716205084638893e-05
2.152076038019009445e+02 1.025428121384046987e-05
2.161080540270135089e+02 1.029844336277180447e-05
2.170085042521260448e+02 1.027903982174150672e-05
2.179089544772386091e+02 1.016323890209812563e-05
2.188094047023511735e+02 1.001375181101695543e-05
2.197098549274637094e+02 9.909742990578075054e-06
2.206103051525762737e+02 9.818023942967967743e-06
2.215107553776888381e+02 9.647927550510532779e-06
2.224112056028014024e+02 9.402146459850345078e-06
2.233116558279139383e+02 9.184372298811942692e-06
2.242121060530265027e+02 9.071715484143491354e-06
2.251125562781390670e+02 9.022198940189154060e-06
2.260130065032516029e+02 8.934460147484913793e-06
2.269134567283641672e+02 8.789905744399620813e-06
2.278139069534767316e+02 8.670130614336727458e-06
2.287143571785892959e+02 8.648384025892392446e-06
2.296148074037018318e+02 8.712207269667414738e-06
2.305152576288143962e+02 8.779350660037394302e-06
2.314157078539269605e+02 8.822586302127679732e-06
2.323161580790394964e+02 8.893301698885386664e-06
2.332166083041520608e+02 9.033255925293420338e-06
2.341170585292646251e+02 9.252969490248247821e-06
2.350175087543771895e+02 9.543860233413004228e-06
2.359179589794897254e+02 9.834754549886677935e-06
2.368184092046022897e+02 9.988025236011722493e-06
2.377188594297148541e+02 9.942644257614900421e-06
2.386193096548273900e+02 9.769468825715946244e-06
2.395197598799399543e+02 9.562880186606113349e-06
2.404202101050525187e+02 9.378328839878530463e-06
2.413206603301650830e+02 9.242702539515464902e-06
2.422211105552776189e+02 9.177905135120739815e-06
2.431215607803901833e+02 9.191561341441273315e-06
2.440220110055027476e+02 9.265868124154328210e-06
2.449224612306152835e+02 9.390924167924536727e-06
2.458229114557278479e+02 9.550298556979372651e-06
2.467233616808404122e+02 9.697513506831597022e-06
2.476238119059529765e+02 9.784860371101037095e-06
2.485242621310655124e+02 9.777987513664090918e-06
2.494247123561780768e+02 9.662092293533828212e-06
2.503251625812906411e+02 9.500096609061420671e-06
2.512256128064031770e+02 9.362891101496571771e-06
2.521260630315157414e+02 9.268341670434722315e-06
2.530265132566283057e+02 9.242810052953860195e-06
2.539269634817408701e+02 9.298847703526626378e-06
2.548274137068534060e+02 9.390940161564034631e-06
2.557278639319659703e+02 9.498318447223051594e-06
2.566283141570785347e+02 9.654530981643193727e-06
2.575287643821910706e+02 9.843287873733933514e-06
2.584292146073036633e+02 9.969949007126450625e-06
2.593296648324161993e+02 9.956706112454310399e-06
2.602301150575287352e+02 9.860189902862656530e-06
2.611305652826413279e+02 9.824093606522751873e-06
2.620310155077538639e+02 9.895427236921036800e-06
2.629314657328663998e+02 1.002986724322538548e-05
2.638319159579789925e+02 1.020505704965991942e-05
2.647323661830915285e+02 1.045930394758772989e-05
2.656328164082040644e+02 1.083589891245352363e-05
2.665332666333166571e+02 1.132470470190089172e-05
2.674337168584291931e+02 1.183512794264729190e-05
2.683341670835417858e+02 1.222900921743365293e-05
2.692346173086543217e+02 1.243666034137587331e-05
2.701350675337668577e+02 1.249441423871749657e-05
2.710355177588794504e+02 1.247586804220038530e-05
2.719359679839919863e+02 1.243346145446165052e-05
2.728364182091045222e+02 1.236824787283096518e-05
2.737368684342171150e+02 1.228073315052888417e-05
2.746373186593296509e+02 1.222455120119498289e-05
2.755377688844421868e+02 1.221651476331804407e-05
2.764382191095547796e+02 1.216915914619470844e-05
2.773386693346673155e+02 1.201216800768402108e-05
2.782391195597798514e+02 1.176024574816490123e-05
2.791395697848924442e+02 1.152022354650165263e-05
2.800400200100049801e+02 1.142900408547972353e-05
2.809404702351175729e+02 1.153331446350092493e-05
2.818409204602301088e+02 1.174397192709994824e-05
2.827413706853426447e+02 1.189937989864778335e-05
2.836418209104552375e+02 1.191097596338773031e-05
2.845422711355677734e+02 1.183457235923142163e-05
2.854427213606803093e+02 1.178062098403312345e-05
2.863431715857929021e+02 1.183479096817407461e-05
2.872436218109054380e+02 1.202381160310416370e-05
2.881440720360179739e+02 1.230932305211781404e-05
2.890445222611305667e+02 1.261722144404251211e-05
2.899449724862431026e+02 1.287822629952422912e-05
2.908454227113556385e+02 1.307110629830391189e-05
2.917458729364682313e+02 1.318175173630332926e-05
2.926463231615807672e+02 1.322329478081753524e-05
2.935467733866933600e+02 1.327150850479919533e-05
2.944472236118058959e+02 1.337979664875666037e-05
2.953476738369184318e+02 1.353772349516107538e-05
2.962481240620310246e+02 1.370813081611357702e-05
2.971485742871435605e+02 1.385693809695089652e-05
2.980490245122560964e+02 1.395114262311456741e-05
2.989494747373686891e+02 1.399363676468138645e-05
2.998499249624812251e+02 1.401794700218192839e-05
3.007503751875937610e+02 1.400690225858436128e-05
3.016508254127063537e+02 1.390038217783196420e-05
3.025512756378188897e+02 1.371123338903915834e-05
3.034517258629314256e+02 1.353694384700041787e-05
3.043521760880440183e+02 1.343993675467844796e-05
3.052526263131565543e+02 1.339180720082630956e-05
3.061530765382691470e+02 1.335455451068126813e-05
3.070535267633816829e+02 1.336262177007107004e-05
3.079539769884942189e+02 1.349097781094376057e-05
3.088544272136068116e+02 1.375043133764958719e-05
3.097548774387193475e+02 1.408817553297650684e-05
3.106553276638318835e+02 1.446400145074433094e-05
3.115557778889444762e+02 1.485188976489313757e-05
3.124562281140570121e+02 1.523914492796214933e-05
3.133566783391695481e+02 1.558774038740516119e-05
3.142571285642821408e+02 1.581244059537709101e-05
3.151575787893946767e+02 1.591838681695670292e-05
3.160580290145072127e+02 1.599640162102224702e-05
3.169584792396198054e+02 1.610009691015731629e-05
3.178589294647323413e+02 1.622595079670434683e-05
3.187593796898449341e+02 1.638868403532098324e-05
3.196598299149574700e+02 1.667333043585183527e-05
3.205602801400700059e+02 1.710609611515544155e-05
3.214607303651825987e+02 1.755645932776494350e-05
3.223611805902951346e+02 1.785433646868025474e-05
3.232616308154076705e+02 1.794878079793484031e-05
3.241620810405202633e+02 1.793840842788853527e-05
3.250625312656327992e+02 1.799419025002595268e-05
3.259629814907453351e+02 1.823458220636688630e-05
3.268634317158579279e+02 1.862857056009646156e-05
3.277638819409704638e+02 1.903970224757971973e-05
3.286643321660829997e+02 1.939314031982638495e-05
3.295647823911955925e+02 1.974024157402889880e-05
3.304652326163081284e+02 2.012281046718608448e-05
3.313656828414207212e+02 2.052121012008238708e-05
3.322661330665332571e+02 2.084464427923248225e-05
3.331665832916457930e+02 2.096567292154029796e-05
3.340670335167583858e+02 2.090072496491612880e-05
3.349674837418709217e+02 2.080274964643182904e-05
3.358679339669834576e+02 2.079888085632863274e-05
3.367683841920960504e+02 2.090797661397620732e-05
3.376688344172085863e+02 2.100514794999640386e-05
3.385692846423211222e+02 2.097558998573688220e-05
3.394697348674337150e+02 2.090115857780336657e-05
3.403701850925462509e+02 2.090728082726908091e-05
3.412706353176587868e+02 2.097342563369823968e-05
3.421710855427713796e+02 2.103981553682691947e-05
3.430715357678839155e+02 2.115481803260445845e-05
3.439719859929965082e+02 2.136810907018966052e-05
3.448724362181090441e+02 2.154958830482748113e-05
3.457728864432215801e+02 2.148126480125926510e-05
3.466733366683341728e+02 2.111592973701727387e-05
3.475737868934467087e+02 2.060695724719011638e-05
3.484742371185592447e+02 2.016313028262628056e-05
3.493746873436718374e+02 1.995655544940677924e-05
3.502751375687843733e+02 2.003749812599687634e-05
3.511755877938969093e+02 2.027033098243593448e-05
3.520760380190095020e+02 2.038024276324898145e-05
3.529764882441220379e+02 2.021012136041507943e-05
3.538769384692345739e+02 1.993066915668142102e-05
3.547773886943471666e+02 1.980265053475688627e-05
3.556778389194597025e+02 1.986255621222158231e-05
3.565782891445722953e+02 1.992677952258803864e-05
3.574787393696848312e+02 1.984307250077854652e-05
3.583791895947973671e+02 1.962518024245533935e-05
3.592796398199099599e+02 1.935306904110110956e-05
3.601800900450224958e+02 1.908342543443804123e-05
3.610805402701350317e+02 1.880235432934499270e-05
3.619809904952476245e+02 1.848279260683303483e-05
3.628814407203601604e+02 1.819955130561816810e-05
3.637818909454726963e+02 1.804114965045432672e-05
3.646823411705852891e+02 1.794493869217287358e-05
3.655827913956978250e+02 1.777628580642960995e-05
3.664832416208103609e+02 1.749030890025038692e-05
3.673836918459229537e+02 1.713667140420682152e-05
3.682841420710354896e+02 1.674090650199917940e-05
3.691845922961480824e+02 1.628428059780284484e-05
3.700850425212606183e+02 1.578493154815098186e-05
3.709854927463731542e+02 1.530242066529979134e-05
3.718859429714857470e+02 1.489919177397267771e-05
3.727863931965982829e+02 1.464871364525502667e-05
3.736868434217108188e+02 1.458771634553793411e-05
3.745872936468234116e+02 1.467171579179027482e-05
3.754877438719359475e+02 1.482340246577705296e-05
3.763881940970484834e+02 1.497656328647677527e-05
3.772886443221610762e+02 1.512498354020805251e-05
3.781890945472736121e+02 1.528684545782560126e-05
3.790895447723861480e+02 1.544537137123037007e-05
3.799899949974987408e+02 1.555200817063091939e-05
3.808904452226112767e+02 1.552358041247719846e-05
3.817908954477238694e+02 1.536830171674843045e-05
3.826913456728364054e+02 1.521195878715249802e-05
3.835917958979489413e+02 1.511750906391034532e-05
3.844922461230615340e+02 1.506622335663394516e-05
3.853926963481740700e+02 1.505616418432518065e-05
3.862931465732866059e+02 1.510889759459889109e-05
3.871935967983991986e+02 1.523917397700486501e-05
3.880940470235117346e+02 1.546360658481535710e-05
3.889944972486242705e+02 1.578356328269604463e-05
3.898949474737368632e+02 1.615974882567685304e-05
3.907953976988493991e+02 1.653755103415310534e-05
3.916958479239619351e+02 1.687491719687730433e-05
3.925962981490745278e+02 1.713762851767577648e-05
3.934967483741870637e+02 1.730477065006889845e-05
3.943971985992996565e+02 1.740984116817495211e-05
3.952976488244121924e+02 1.746834506239225703e-05
3.961980990495247283e+02 1.741095674432063716e-05
3.970985492746373211e+02 1.722981038916617354e-05
3.979989994997498570e+02 1.701191224310560316e-05
3.988994497248623929e+02 1.679550864393986487e-05
3.997998999499749857e+02 1.656437031785059553e-05
4.007003501750875216e+02 1.634291045546771822e-05
4.016008004002000575e+02 1.617115408173141808e-05
4.025012506253126503e+02 1.607412298624782588e-05
4.034017008504251862e+02 1.606371151823248397e-05
4.043021510755377221e+02 1.611302802914571218e-05
4.052026013006503149e+02 1.616802140312890472e-05
4.061030515257628508e+02 1.617827250817639755e-05
4.070035017508754436e+02 1.611057097437495472e-05
4.079039519759879795e+02 1.594620069577121967e-05
4.088044022011005154e+02 1.572729620815055076e-05
4.097048524262131082e+02 1.552594361906918546e-05
4.106053026513256441e+02 1.537467233857948295e-05
4.115057528764381800e+02 1.530405228343779020e-05
4.124062031015507728e+02 1.535036895282958200e-05
4.133066533266633087e+02 1.549179501942744532e-05
4.142071035517758446e+02 1.568674795133270699e-05
4.151075537768884374e+02 1.589906213250050776e-05
4.160080040020009733e+02 1.606445620798742374e-05
4.169084542271135092e+02 1.613898501493028192e-05
4.178089044522261020e+02 1.613179023738094239e-05
4.187093546773386379e+02 1.607918742108756387e-05
4.196098049024512306e+02 1.599098696987963475e-05
4.205102551275637666e+02 1.584919608617314731e-05
4.214107053526763025e+02 1.567458448504463882e-05
4.223111555777888952e+02 1.551178112444865642e-05
4.232116058029014312e+02 1.542767155223320494e-05
4.241120560280139671e+02 1.550129847868142690e-05
4.250125062531265598e+02 1.572576745325225388e-05
4.259129564782390958e+02 1.597923142565794153e-05
4.268134067033516317e+02 1.607662675565559431e-05
4.277138569284642244e+02 1.590723881713835227e-05
4.286143071535767604e+02 1.554276805679573645e-05
4.295147573786892963e+02 1.516129999052287192e-05
4.304152076038018890e+02 1.491028336180221589e-05
4.313156578289144250e+02 1.483010238917250058e-05
4.322161080540270177e+02 1.489352698475929161e-05
4.331165582791395536e+02 1.505097518837441204e-05
4.340170085042520896e+02 1.522422732051722613e-05
4.349174587293646823e+02 1.534740455158477789e-05
4.358179089544772182e+02 1.541753025250075003e-05
4.367183591795897541e+02 1.545829273049752298e-05
4.376188094047023469e+02 1.550550679787033060e-05
4.385192596298148828e+02 1.561039258785191098e-05
4.394197098549274187e+02 1.580637185869555652e-05
4.403201600800400115e+02 1.609291771502576219e-05
4.412206103051525474e+02 1.637918157461126990e-05
4.421210605302650833e+02 1.648299389193088281e-05
4.430215107553776761e+02 1.633689149465530289e-05
4.439219609804902120e+02 1.606300727400716008e-05
4.448224112056028048e+02 1.579171092377959458e-05
4.457228614307153407e+02 1.559494876874464303e-05
4.466233116558278766e+02 1.551540484328335753e-05
4.475237618809404694e+02 1.555505271339673354e-05
4.484242121060530053e+02 1.568189678248947590e-05
4.493246623311655412e+02 1.582514495966073529e-05
4.502251125562781340e+02 1.590354815686734655e-05
4.511255627813906699e+02 1.589383393950839993e-05
4.520260130065032058e+02 1.585264281335477450e-05
4.529264632316157986e+02 1.584681954112676536e-05
4.538269134567283345e+02 1.586192349144950630e-05
4.547273636818408704e+02 1.585346927192652269e-05
4.556278139069534632e+02 1.586078818837876494e-05
4.565282641320659991e+02 1.595313840827791932e-05
4.574287143571785919e+02 1.612726034115960364e-05
4.583291645822911278e+02 1.632989946825552898e-05
4.592296148074036637e+02 1.648682750971899291e-05
4.601300650325162565e+02 1.652366154917648698e-05
4.610305152576287924e+02 1.645293234549769239e-05
4.619309654827413283e+02 1.636633646476521087e-05
4.628314157078539210e+02 1.632400163596428434e-05
4.637318659329664570e+02 1.632045193368589835e-05
4.646323161580789929e+02 1.632877891279031562e-05
4.655327663831915856e+02 1.633838303417590185e-05
4.664332166083041216e+02 1.638261411627475338e-05
4.673336668334167143e+02 1.650154218922707507e-05
4.682341170585292502e+02 1.664981321416629723e-05
4.691345672836417862e+02 1.672819941756328971e-05
4.700350175087543789e+02 1.671290734754417057e-05
4.709354677338669148e+02 1.664655582804780936e-05
4.718359179589794508e+02 1.656200359249176054e-05
4.727363681840920435e+02 1.648849097077785983e-05
4.736368184092045794e+02 1.644925693261353926e-05
4.745372686343171154e+02 1.644528773084787498e-05
4.754377188594297081e+02 1.648056275463161596e-05
4.763381690845422440e+02 1.657143601830973905e-05
4.772386193096547800e+02 1.671506750733976719e-05
4.781390695347673727e+02 1.690560493515133703e-05
4.790395197598799086e+02 1.716462321897092348e-05
4.799399699849925014e+02 1.748858159998389103e-05
4.808404202101050373e+02 1.783105247500891917e-05
4.817408704352175732e+02 1.816747562993737295e-05
4.826413206603301660e+02 1.846532463933660937e-05
4.835417708854427019e+02 1.864763668356895051e-05
4.844422211105552378e+02 1.868175925457062514e-05
4.853426713356678306e+02 1.860704577658822196e-05
4.862431215607803665e+02 1.846144913487954091e-05
4.871435717858929024e+02 1.828229216639925070e-05
4.880440220110054952e+02 1.811837052225918069e-05
4.889444722361180311e+02 1.796412320222204437e-05
4.898449224612305670e+02 1.779143558671449066e-05
4.907453726863431598e+02 1.764862954968182619e-05
4.916458229114556957e+02 1.760010858332312333e-05
4.925462731365682885e+02 1.768367144398056817e-05
4.934467233616808244e+02 1.793007846677548248e-05
4.943471735867933603e+02 1.829717718993586814e-05
4.952476238119059531e+02 1.868661093717184448e-05
4.961480740370184890e+02 1.902537152049397015e-05
4.970485242621310249e+02 1.928210818059689229e-05
4.979489744872436177e+02 1.945195564723156611e-05
4.988494247123561536e+02 1.953202509168787461e-05
4.997498749374686895e+02 1.950599316744769035e-05
5.006503251625812823e+02 1.939516072523278495e-05
5.015507753876938182e+02 1.931606439627886658e-05
5.024512256128063541e+02 1.936948908169674590e-05
5.033516758379189469e+02 1.953831058292963924e-05
5.042521260630314828e+02 1.976216582014239849e-05
5.051525762881440755e+02 2.000793202058112814e-05
5.060530265132566115e+02 2.027099249334041932e-05
5.069534767383691474e+02 2.053271407740767365e-05
5.078539269634817401e+02 2.073937322782335116e-05
5.087543771885942760e+02 2.086052477588565615e-05
5.096548274137068120e+02 2.093379927894942010e-05
5.105552776388194047e+02 2.100365984849579486e-05
5.114557278639319406e+02 2.108305657266565462e-05
5.123561780890445334e+02 2.119445757487415044e-05
5.132566283141570693e+02 2.136146694272742861e-05
5.141570785392696052e+02 2.159301000985570145e-05
5.150575287643821412e+02 2.185402632052047472e-05
5.159579789894946771e+02 2.201909333764829328e-05
5.168584292146073267e+02 2.199649824746145456e-05
5.177588794397198626e+02 2.183952744859943369e-05
5.186593296648323985e+02 2.168277047929808901e-05
5.195597798899449344e+02 2.164024597751665468e-05
5.204602301150574704e+02 2.174780211720657219e-05
5.213606803401700063e+02 2.192896373756105565e-05
5.222611305652826559e+02 2.203377572573782307e-05
5.231615807903951918e+02 2.196781077967646783e-05
5.240620310155077277e+02 2.181268250921394733e-05
5.249624812406202636e+02 2.174968573846808230e-05
5.258629314657327996e+02 2.184392155964013006e-05
5.267633816908454492e+02 2.203901226204300136e-05
5.276638319159579851e+02 2.226657809905601497e-05
5.285642821410705210e+02 2.250186168388940968e-05
5.294647323661830569e+02 2.277285918970160859e-05
5.303651825912955928e+02 2.311706097010729515e-05
5.312656328164081287e+02 2.353162833475574885e-05
5.321660830415207784e+02 2.398471370796644082e-05
5.330665332666333143e+02 2.447753049919657649e-05
5.339669834917458502e+02 2.500158907473507342e-05
5.348674337168583861e+02 2.546192248665387698e-05
5.357678839419709220e+02 2.575548407023567100e-05
5.366683341670835716e+02 2.591045683012069609e-05
5.375687843921961075e+02 2.607262118097835969e-05
5.384692346173086435e+02 2.631162053424554887e-05
5.393696848424211794e+02 2.649924623994378447e-05
5.402701350675337153e+02 2.645040473448298461e-05
5.411705852926462512e+02 2.614788537241730673e-05
5.420710355177589008e+02 2.576745980487468569e-05
5.429714857428714367e+02 2.551698899700201469e-05
5.438719359679839727e+02 2.548363943394754997e-05
5.447723861930965086e+02 2.566171218493925411e-05
5.456728364182090445e+02 2.599480847002668592e-05
5.465732866433215804e+02 2.639094301098698564e-05
5.474737368684342300e+02 2.677038020865139009e-05
5.483741870935467659e+02 2.713437475413179778e-05
5.492746373186593019e+02 2.753716891847167249e-05
5.501750875437718378e+02 2.797183729619650845e-05
5.510755377688843737e+02 2.840344301723807333e-05
5.519759879939970233e+02 2.886015429874412550e-05
5.528764382191095592e+02 2.934634176445973647e-05
5.537768884442220951e+02 2.976949470201281626e-05
5.546773386693346310e+02 3.007535385587262528e-05
5.555777888944471670e+02 3.033809857088043125e-05
5.564782391195597029e+02 3.061514932397560625e-05
5.573786893446723525e+02 3.088318231684296719e-05
5.582791395697848884e+02 3.117212121832852573e-05
5.591795897948974243e+02 3.152222465992486015e-05
5.600800400200099602e+02 3.188699490443538590e-05
5.609804902451224962e+02 3.216860629317725144e-05
5.618809404702351458e+02 3.226175523430596274e-05
5.627813906953476817e+02 3.212436466454595508e-05
5.636818409204602176e+02 3.180001120240010556e-05
5.645822911455727535e+02 3.133934164478530354e-05
5.654827413706852894e+02 3.072714175557095788e-05
5.663831915957978254e+02 2.995655775783714851e-05
5.672836418209104750e+02 2.911430425504707973e-05
5.681840920460230109e+02 2.830596963169055988e-05
5.690845422711355468e+02 2.759139354388371687e-05
5.699849924962480827e+02 2.705794768987487009e-05
5.708854427213606186e+02 2.677347510696344459e-05
5.717858929464731546e+02 2.668252120050109596e-05
5.726863431715858042e+02 2.671451728758994184e-05
5.735867933966983401e+02 2.680284036317723089e-05
5.744872436218108760e+02 2.683214872661687808e-05
5.753876938469234119e+02 2.675797917380211058e-05
5.762881440720359478e+02 2.666929117363814683e-05
5.771885942971485974e+02 2.665761876502714713e-05
5.780890445222611334e+02 2.670166575642633747e-05
5.789894947473736693e+02 2.673793013764133841e-05
5.798899449724862052e+02 2.668823643423274639e-05
5.807903951975987411e+02 2.653939831613287892e-05
5.816908454227112770e+02 2.640604853259960824e-05
5.825912956478239266e+02 2.636774130298619631e-05
5.834917458729364625e+02 2.637229137260724252e-05
5.843921960980489985e+02 2.634651312088043932e-05
5.852926463231615344e+02 2.626045593700470623e-05
5.861930965482740703e+02 2.610172112244367297e-05
5.870935467733867199e+02 2.589515101907488210e-05
5.879939969984992558e+02 2.570151781234583438e-05
5.888944472236117917e+02 2.557851478812389704e-05
5.897948974487243277e+02 2.554261845603433031e-05
5.906953476738368636e+02 2.553791702060395589e-05
5.915957978989493995e+02 2.547227733593642509e-05
5.924962481240620491e+02 2.532201144081326849e-05
5.933966983491745850e+02 2.511894311833192097e-05
5.942971485742871209e+02 2.484841345329452306e-05
5.951975987993996569e+02 2.448563840124128125e-05
5.960980490245121928e+02 2.404996294415537249e-05
5.969984992496247287e+02 2.358443475619926891e-05
5.978989494747373783e+02 2.315852542832963365e-05
5.987993996998499142e+02 2.284972574481671526e-05
5.996998499249624501e+02 2.271439381223045877e-05
6.006003001500749860e+02 2.276952163762257080e-05
6.015007503751875220e+02 2.295572217768379334e-05
6.024012006003001716e+02 2.310747488442521075e-05
6.033016508254127075e+02 2.308557419707054682e-05
6.042021010505252434e+02 2.292895516592891993e-05
6.051025512756377793e+02 2.277311082747861015e-05
6.060030015007503152e+02 2.268188719387935834e-05
6.069034517258628512e+02 2.259692647099194684e-05
6.078039019509755008e+02 2.239470357627539192e-05
6.087043521760880367e+02 2.207052004325197179e-05
6.096048024012005726e+02 2.174857790498057946e-05
6.105052526263131085e+02 2.151806753046568900e-05
6.114057028514256444e+02 2.142725963539368316e-05
6.123061530765382940e+02 2.149511983157519792e-05
6.132066033016508300e+02 2.165773666854692981e-05
6.141070535267633659e+02 2.178681740261305169e-05
6.150075037518759018e+02 2.180578502875124536e-05
6.159079539769884377e+02 2.174214084414461149e-05
6.168084042021009736e+02 2.166380223723562209e-05
6.177088544272136232e+02 2.156036328332889884e-05
6.186093046523261592e+02 2.136711247790584520e-05
6.195097548774386951e+02 2.106183419254831411e-05
6.204102051025512310e+02 2.072020822374424139e-05
6.213106553276637669e+02 2.046156906429622384e-05
6.222111055527763028e+02 2.034175487668270178e-05
6.231115557778889524e+02 2.036057416440794485e-05
6.240120060030014884e+02 2.046432142887026463e-05
6.249124562281140243e+02 2.054440620236882146e-05
6.258129064532265602e+02 2.052684450679704615e-05
6.267133566783390961e+02 2.043066039408505483e-05
6.276138069034517457e+02 2.033386741554300858e-05
6.285142571285642816e+02 2.025945996942220072e-05
6.294147073536768175e+02 2.015554343098859648e-05
6.303151575787893535e+02 2.000842966944756934e-05
6.312156078039018894e+02 1.985931850150955030e-05
6.321160580290144253e+02 1.971058463010770125e-05
6.330165082541270749e+02 1.956082992212714462e-05
6.339169584792396108e+02 1.946681174499317657e-05
6.348174087043521467e+02 1.942908721659833670e-05
6.357178589294646827e+02 1.939600563906002849e-05
6.366183091545772186e+02 1.931909224370915732e-05
6.375187593796898682e+02 1.913633341800646196e-05
6.384192096048024041e+02 1.883383640140781016e-05
6.393196598299149400e+02 1.848982985994740422e-05
6.402201100550274759e+02 1.821587851113541773e-05
6.411205602801400119e+02 1.808575415592767594e-05
6.420210105052525478e+02 1.810113129604785760e-05
6.429214607303651974e+02 1.817283972832551815e-05
6.438219109554777333e+02 1.820216981203850797e-05
6.447223611805902692e+02 1.818137256700616747e-05
6.456228114057028051e+02 1.813942820017601783e-05
6.465232616308153411e+02 1.807590897017848270e-05
6.474237118559278770e+02 1.800038070173573095e-05
6.483241620810405266e+02 1.793466776558459954e-05
6.492246123061530625e+02 1.787584790437687221e-05
6.501250625312655984e+02 1.782545624651874473e-05
6.510255127563781343e+02 1.780713339486604286e-05
6.519259629814906702e+02 1.784936199752291139e-05
6.528264132066033198e+02 1.796330873666870451e-05
6.537268634317158558e+02 1.812619381373278905e-05
6.546273136568283917e+02 1.826676168011922928e-05
6.555277638819409276e+02 1.831350897989520005e-05
6.564282141070534635e+02 1.826719618347362399e-05
6.573286643321659994e+02 1.818734409707686199e-05
6.582291145572786490e+02 1.812081436277187445e-05
6.591295647823911850e+02 1.805053857809859060e-05
6.600300150075037209e+02 1.790228328727815941e-05
6.609304652326162568e+02 1.764325085258322976e-05
6.618309154577287927e+02 1.735683384586926274e-05
6.627313656828414423e+02 1.717534201660620588e-05
6.636318159079539782e+02 1.715938757456740324e-05
6.645322661330665142e+02 1.727625752738452740e-05
6.654327163581790501e+02 1.744022596787615412e-05
6.663331665832915860e+02 1.755514037251313021e-05
6.672336168084041219e+02 1.755535913035189503e-05
6.681340670335167715e+02 1.743086003197838723e-05
6.690345172586293074e+02 1.723822413169023778e-05
6.699349674837418434e+02 1.705343357875927833e-05
6.708354177088543793e+02 1.694467903876180294e-05
6.717358679339669152e+02 1.696924005129680946e-05
6.726363181590794511e+02 1.715452947973621111e-05
6.735367683841921007e+02 1.747449282841479200e-05
6.744372186093046366e+02 1.787813161192371863e-05
6.753376688344171725e+02 1.832945942126952131e-05
6.762381190595297085e+02 1.881441489807397251e-05
6.771385692846422444e+02 1.932303506421406602e-05
6.780390195097548940e+02 1.981186364608446490e-05
6.789394697348674299e+02 2.023583737329250697e-05
6.798399199599799658e+02 2.058219245875338881e-05
6.807403701850925017e+02 2.082723562047355693e-05
6.816408204102050377e+02 2.091776794764178729e-05
6.825412706353175736e+02 2.084236691073824020e-05
6.834417208604302232e+02 2.064678714982500852e-05
6.843421710855427591e+02 2.033981126839965329e-05
6.852426213106552950e+02 1.994462010390128307e-05
6.861430715357678309e+02 1.956440521002083562e-05
6.870435217608803669e+02 1.928746424340815085e-05
6.879439719859930165e+02 1.913000002239789043e-05
6.888444222111055524e+02 1.908224729600619399e-05
6.897448724362180883e+02 1.910730752407519342e-05
6.906453226613306242e+02 1.914116904168234310e-05
6.915457728864431601e+02 1.915081849618001383e-05
6.924462231115556961e+02 1.917556670583809133e-05
6.933466733366683457e+02 1.924217783123248674e-05
6.942471235617808816e+02 1.926117864483385773e-05
6.951475737868934175e+02 1.910044174929846714e-05
6.960480240120059534e+02 1.875648931721551145e-05
6.969484742371184893e+02 1.837059043597443015e-05
6.978489244622311389e+02 1.809156835013727132e-05
6.987493746873436749e+02 1.798018024603620976e-05
6.996498249124562108e+02 1.801438062187228105e-05
7.005502751375687467e+02 1.815214930453531671e-05
7.014507253626812826e+02 1.836943951254033165e-05
7.023511755877938185e+02 1.863954199010410550e-05
7.032516258129064681e+02 1.889576211561240344e-05
7.041520760380190040e+02 1.904333262614993483e-05
7.050525262631315400e+02 1.905385076467455875e-05
7.059529764882440759e+02 1.900596937525943030e-05
7.068534267133566118e+02 1.900642141460112891e-05
7.077538769384691477e+02 1.906003545197657690e-05
7.086543271635817973e+02 1.907780380092155144e-05
7.095547773886943332e+02 1.902509161906377772e-05
7.104552276138068692e+02 1.895381045250591406e-05
7.113556778389194051e+02 1.892707667275848803e-05
7.122561280640319410e+02 1.895235799985178630e-05
7.131565782891445906e+02 1.899033986184220715e-05
7.140570285142571265e+02 1.906439552245461403e-05
7.149574787393696624e+02 1.922524065827725513e-05
7.158579289644821984e+02 1.941283532328142098e-05
7.167583791895947343e+02 1.951118809165576588e-05
7.176588294147072702e+02 1.949049930062765268e-05
7.185592796398199198e+02 1.943846239520085307e-05
7.194597298649324557e+02 1.946740304766066441e-05
7.203601800900449916e+02 1.959735248036512559e-05
7.212606303151575275e+02 1.972787544298372638e-05
7.221610805402700635e+02 1.975566441495011716e-05
7.230615307653827131e+02 1.968904416360644434e-05
7.239619809904952490e+02 1.963134906568448477e-05
7.248624312156077849e+02 1.968840677211070026e-05
7.257628814407203208e+02 1.987267572775042889e-05
7.266633316658328567e+02 2.009496735784427411e-05
7.275637818909453927e+02 2.027883359002561746e-05
7.284642321160580423e+02 2.043341935680938849e-05
7.293646823411705782e+02 2.059493224980539402e-05
7.302651325662831141e+02 2.078862530041562486e-05
7.311655827913956500e+02 2.101187611219905031e-05
7.320660330165081859e+02 2.121609696077303363e-05
7.329664832416207219e+02 2.133194545838311914e-05
7.338669334667333715e+02 2.133768361469447376e-05
7.347673836918459074e+02 2.127520215704890527e-05
7.356678339169584433e+02 2.119491773231596074e-05
7.365682841420709792e+02 2.109102985260289480e-05
7.374687343671835151e+02 2.093346021647224213e-05
7.383691845922961647e+02 2.075574249321219113e-05
7.392696348174087007e+02 2.064608232573932311e-05
7.401700850425212366e+02 2.064925176696333435e-05
7.410705352676337725e+02 2.070822272254866839e-05
7.419709854927463084e+02 2.073893858642931502e-05
7.428714357178588443e+02 2.073383565475695308e-05
7.437718859429714939e+02 2.077215495954585654e-05
7.446723361680840299e+02 2.090227997972007973e-05
7.455727863931965658e+02 2.111134304922976488e-05
7.464732366183091017e+02 2.138762790620760970e-05
7.473736868434216376e+02 2.169062142647247912e-05
7.482741370685342872e+02 2.191432599975667354e-05
7.491745872936468231e+02 2.202100279704417661e-05
7.500750375187593590e+02 2.211838324107489586e-05
7.509754877438718950e+02 2.225765483551929907e-05
7.518759379689844309e+02 2.233837890066954607e-05
7.527763881940969668e+02 2.228269827819721131e-05
7.536768384192096164e+02 2.213822742013404551e-05
7.545772886443221523e+02 2.201083163804685365e-05
7.554777388694346882e+02 2.195035450939839431e-05
7.563781890945472242e+02 2.193107591844677861e-05
7.572786393196597601e+02 2.193109410322784198e-05
7.581790895447722960e+02 2.192473134459703679e-05
7.590795397698849456e+02 2.188521491920908217e-05
7.599799899949974815e+02 2.180998730306605478e-05
7.608804402201100174e+02 2.166064149239877457e-05
7.617808904452225534e+02 2.137042212693195434e-05
7.626813406703350893e+02 2.095449132813799836e-05
7.635817908954477389e+02 2.056977852623429969e-05
7.644822411205602748e+02 2.037315569231636238e-05
7.653826913456728107e+02 2.035702682295966733e-05
7.662831415707853466e+02 2.038211645971454487e-05
7.671835917958978825e+02 2.035331448929658007e-05
7.680840420210104185e+02 2.030332637033456172e-05
7.689844922461230681e+02 2.031410593046407935e-05
7.698849424712356040e+02 2.041080722619115337e-05
7.707853926963481399e+02 2.056237134317821634e-05
7.716858429214606758e+02 2.068705623373567570e-05
7.725862931465732117e+02 2.069086238616741448e-05
7.734867433716858613e+02 2.058708892720322180e-05
7.743871935967983973e+02 2.049816393918905632e-05
7.752876438219109332e+02 2.052485521656447542e-05
7.761880940470234691e+02 2.065021737088320569e-05
7.770885442721360050e+02 2.072447144044058684e-05
7.779889944972485409e+02 2.061715463043241678e-05
7.788894447223611905e+02 2.038521554023185083e-05
7.797898949474737265e+02 2.016940056686653091e-05
7.806903451725862624e+02 2.008460717035274551e-05
7.815907953976987983e+02 2.023342219282568702e-05
7.824912456228113342e+02 2.062924545421307169e-05
7.833916958479238701e+02 2.112819596624271939e-05
7.842921460730365197e+02 2.155291393865872427e-05
7.851925962981490557e+02 2.183939038123451569e-05
7.860930465232615916e+02 2.204310963559073542e-05
7.869934967483741275e+02 2.224459174085155241e-05
7.878939469734866634e+02 2.245445168953819149e-05
7.887943971985993130e+02 2.260961789361590129e-05
7.896948474237118489e+02 2.261429474226193248e-05
7.905952976488243849e+02 2.240541104124871974e-05
7.914957478739369208e+02 2.202547183386086845e-05
7.923961980990494567e+02 2.159458184235070116e-05
7.932966483241619926e+02 2.117479517974341931e-05
7.941970985492746422e+02 2.080630995404063096e-05
7.950975487743871781e+02 2.057378784163066992e-05
7.959979989994997140e+02 2.052857308854173099e-05
7.968984492246122500e+02 2.062635945070432448e-05
7.977988994497247859e+02 2.077523338778300386e-05
7.986993496748374355e+02 2.093308982038615584e-05
7.995997998999499714e+02 2.109050066617163387e-05
8.005002501250625073e+02 2.125004066049592715e-05
8.014007003501750432e+02 2.140430263433484590e-05
8.023011505752875792e+02 2.153994880431101929e-05
8.032016008004001151e+02 2.169007081563183891e-05
8.041020510255127647e+02 2.188282726904746653e-05
8.050025012506253006e+02 2.207331433544291191e-05
8.059029514757378365e+02 2.217696622334321648e-05
8.068034017008503724e+02 2.215777773655040495e-05
8.077038519259629084e+02 2.203811165286852163e-05
8.086043021510754443e+02 2.184511708265528268e-05
8.095047523761880939e+02 2.161497092448780852e-05
8.104052026013006298e+02 2.139229878913070638e-05
8.113056528264131657e+02 2.122385036930844710e-05
8.122061030515257016e+02 2.110952113770161686e-05
8.131065532766382375e+02 2.101096863426392405e-05
8.140070035017508872e+02 2.093375735650532387e-05
8.149074537268634231e+02 2.096170165084090830e-05
8.158079039519759590e+02 2.113514399615407807e-05
8.167083541770884949e+02 2.139338877540043955e-05
8.176088044022010308e+02 2.163856528177739622e-05
8.185092546273135667e+02 2.179349234926867789e-05
8.194097048524262163e+02 2.184508934452085809e-05
8.203101550775387523e+02 2.181958158689497519e-05
8.212106053026512882e+02 2.176788014473293715e-05
8.221110555277638241e+02 2.175536948594322228e-05
8.230115057528763600e+02 2.180689690979185306e-05
8.239119559779890096e+02 2.189295735889629381e-05
8.248124062031015455e+02 2.200141226781438797e-05
8.257128564282140815e+02 2.216163048288309533e-05
8.266133066533266174e+02 2.236921848065284574e-05
8.275137568784391533e+02 2.256711313108225684e-05
8.284142071035516892e+02 2.269397404070746708e-05
8.293146573286643388e+02 2.272340756173592572e-05
8.302151075537768747e+02 2.269061099729445411e-05
8.311155577788894107e+02 2.265776125380254517e-05
8.320160080040019466e+02 2.262278933200984708e-05
8.329164582291144825e+02 2.250915136317440944e-05
8.338169084542270184e+02 2.230347404977373599e-05
8.347173586793396680e+02 2.211197872861881276e-05
8.356178089044522039e+02 2.203240561064641741e-05
8.365182591295647399e+02 2.205610663556638136e-05
8.374187093546772758e+02 2.209752460037954028e-05
8.383191595797898117e+02 2.209669194663921757e-05
8.392196098049024613e+02 2.207886622949037687e-05
8.401200600300149972e+02 2.208329103320830398e-05
8.410205102551275331e+02 2.212749282612152586e-05
8.419209604802400690e+02 2.220100862745551714e-05
8.428214107053526050e+02 2.226520400174359274e-05
8.437218609304651409e+02 2.231543572487471508e-05
8.446223111555777905e+02 2.239534229759234467e-05
8.455227613806903264e+02 2.254011105845166472e-05
8.464232116058028623e+02 2.272430226126358977e-05
8.473236618309153982e+02 2.289648488901826267e-05
8.482241120560279342e+02 2.299053716428010625e-05
8.491245622811405838e+02 2.297880499390520285e-05
8.500250125062531197e+02 2.293249427368740885e-05
8.509254627313656556e+02 2.292919492749323122e-05
8.518259129564781915e+02 2.300965633102555180e-05
8.527263631815907274e+02 2.318282531143415966e-05
8.536268134067032634e+02 2.340381850644341865e-05
8.545272636318159130e+02 2.360209963389209466e-05
8.554277138569284489e+02 2.375008219393826849e-05
8.563281640820409848e+02 2.382579748174430001e-05
8.572286143071535207e+02 2.376953242103931990e-05
8.581290645322660566e+02 2.353821957943695654e-05
8.590295147573785925e+02 2.315567299721318914e-05
8.599299649824912422e+02 2.269311986542392644e-05
8.608304152076037781e+02 2.225274274606422399e-05
8.617308654327163140e+02 2.194399419472218050e-05
8.626313156578288499e+02 2.181770697792064829e-05
8.635317658829413858e+02 2.183220395165315006e-05
8.644322161080540354e+02 2.191757053210985790e-05
8.653326663331665713e+02 2.202123947564479399e-05
8.662331165582791073e+02 2.211540449933334512e-05
8.671335667833916432e+02 2.220402257464050712e-05
8.680340170085041791e+02 2.225975234241077034e-05
8.689344672336167150e+02 2.222930436039720304e-05
8.698349174587293646e+02 2.214510574202599780e-05
8.707353676838419005e+02 2.212354289345952858e-05
8.716358179089544365e+02 2.223185938710167431e-05
8.725362681340669724e+02 2.243533050617061664e-05
8.734367183591795083e+02 2.266656113399061805e-05
8.743371685842921579e+02 2.287876904994435288e-05
8.752376188094046938e+02 2.300480047931313971e-05
8.761380690345172297e+02 2.298917421438017200e-05
8.770385192596297657e+02 2.285309841909989237e-05
8.779389694847423016e+02 2.267495176623797592e-05
8.788394197098548375e+02 2.251998515384808855e-05
8.797398699349674871e+02 2.239206521292235439e-05
8.806403201600800230e+02 2.225197390768758667e-05
8.815407703851925589e+02 2.208262127263525883e-05
8.824412206103050949e+02 2.190959776436194500e-05
8.833416708354176308e+02 2.177064854686100402e-05
8.842421210605301667e+02 2.170751987232659154e-05
8.851425712856428163e+02 2.172254365276637966e-05
8.860430215107553522e+02 2.177913330732619599e-05
8.869434717358678881e+02 2.185197213230923678e-05
8.878439219609804240e+02 2.191219259973075986e-05
8.887443721860929600e+02 2.193805570023664480e-05
8.896448224112056096e+02 2.197015052537960051e-05
8.905452726363181455e+02 2.208807325570269809e-05
8.914457228614306814e+02 2.231700124985299747e-05
8.923461730865432173e+02 2.261192512945805368e-05
8.932466233116557532e+02 2.295118554952788845e-05
8.941470735367682892e+02 2.337769303417481040e-05
8.950475237618809388e+02 2.380931351081595629e-05
8.959479739869934747e+02 2.402938885019498006e-05
8.968484242121060106e+02 2.397398515244967440e-05
8.977488744372185465e+02 2.380911496111288661e-05
8.986493246623310824e+02 2.370623337429177434e-05
8.995497748874437320e+02 2.373386586407089045e-05
9.004502251125562680e+02 2.392372463342506660e-05
9.013506753376688039e+02 2.429160731950862258e-05
9.022511255627813398e+02 2.479353123513923675e-05
9.031515757878938757e+02 2.535965056092459816e-05
9.040520260130064116e+02 2.592485300348050024e-05
9.049524762381190612e+02 2.641742035854251111e-05
9.058529264632315972e+02 2.675420365500136947e-05
9.067533766883441331e+02 2.684983021306232236e-05
9.076538269134566690e+02 2.669140518185083189e-05
9.085542771385692049e+02 2.640802364530162033e-05
9.094547273636817408e+02 2.615400335234841525e-05
9.103551775887943904e+02 2.597845960948819494e-05
9.112556278139069263e+02 2.581069138020768795e-05
9.121560780390194623e+02 2.561573215243756534e-05
9.130565282641319982e+02 2.545616186229573079e-05
9.139569784892445341e+02 2.540221379654154812e-05
9.148574287143571837e+02 2.548971593731056779e-05
9.157578789394697196e+02 2.575015119445432153e-05
9.166583291645822555e+02 2.620352651260252541e-05
9.175587793896947915e+02 2.680555154836168863e-05
9.184592296148073274e+02 2.742971117994970619e-05
9.193596798399198633e+02 2.794745074671278705e-05
9.202601300650325129e+02 2.827994140457907229e-05
9.211605802901450488e+02 2.841164957238586654e-05
9.220610305152575847e+02 2.842095701854990990e-05
9.229614807403701207e+02 2.844090686126174599e-05
9.238619309654826566e+02 2.858400559009493841e-05
9.247623811905953062e+02 2.890032436698329320e-05
9.256628314157078421e+02 2.937504523584280440e-05
9.265632816408203780e+02 2.991154117061141452e-05
9.274637318659329139e+02 3.040922575209837735e-05
9.283641820910454499e+02 3.082053800518424623e-05
9.292646323161579858e+02 3.110591442087489101e-05
9.301650825412706354e+02 3.132701654309268113e-05
9.310655327663831713e+02 3.160996705136037162e-05
9.319659829914957072e+02 3.198564983017352373e-05
9.328664332166082431e+02 3.244271898154201255e-05
9.337668834417207790e+02 3.303414521011795326e-05
9.346673336668334287e+02 3.378174337871120197e-05
9.355677838919459646e+02 3.456623476122628794e-05
9.364682341170585005e+02 3.522938397987174068e-05
9.373686843421710364e+02 3.572660960188236339e-05
9.382691345672835723e+02 3.613156817518511997e-05
9.391695847923961082e+02 3.647432738331679607e-05
9.400700350175087578e+02 3.668941660672215665e-05
9.409704852426212938e+02 3.674594892499016119e-05
9.418709354677338297e+02 3.674819669844729231e-05
9.427713856928463656e+02 3.687608469619670180e-05
9.436718359179589015e+02 3.729088294631070061e-05
9.445722861430714374e+02 3.807070752594417034e-05
9.454727363681840870e+02 3.911103975480261158e-05
9.463731865932966230e+02 4.015816467542802882e-05
9.472736368184091589e+02 4.096077066664049684e-05
9.481740870435216948e+02 4.135572864091323705e-05
9.490745372686342307e+02 4.134827004495156055e-05
9.499749874937468803e+02 4.109016245102523513e-05
9.508754377188594162e+02 4.079313951655151051e-05
9.517758879439719522e+02 4.067161011673675201e-05
9.526763381690844881e+02 4.083092956831879731e-05
9.535767883941970240e+02 4.122418620056634219e-05
9.544772386193095599e+02 4.170725011639534027e-05
9.553776888444222095e+02 4.216630257909506922e-05
9.562781390695347454e+02 4.256752694488460541e-05
9.571785892946472813e+02 4.292175498030390544e-05
9.580790395197598173e+02 4.331217940358447142e-05
9.589794897448723532e+02 4.383006088464602425e-05
9.598799399699850028e+02 4.439034844511055420e-05
9.607803901950975387e+02 4.483325073192314134e-05
9.616808404202100746e+02 4.518903091341955352e-05
9.625812906453226105e+02 4.561683403521950091e-05
9.634817408704351465e+02 4.621034111806331384e-05
9.643821910955476824e+02 4.707335924063217727e-05
9.652826413206603320e+02 4.829677153930282360e-05
9.661830915457728679e+02 4.976293779343135939e-05
9.670835417708854038e+02 5.121357032398334469e-05
9.679839919959979397e+02 5.248157101424463756e-05
9.688844422211104757e+02 5.355891340776386514e-05
9.697848924462230116e+02 5.449965747272697878e-05
9.706853426713356612e+02 5.521395405430834183e-05
9.715857928964481971e+02 5.555991292665806526e-05
9.724862431215607330e+02 5.559460308920240797e-05
9.733866933466732689e+02 5.556448867121185204e-05
9.742871435717858049e+02 5.563116756593718967e-05
9.751875937968984545e+02 5.573860910581960237e-05
9.760880440220109904e+02 5.587375455848525243e-05
9.769884942471235263e+02 5.622212382419929159e-05
9.778889444722360622e+02 5.698983032533482793e-05
9.787893946973485981e+02 5.812207135280092284e-05
9.796898449224611340e+02 5.934180807303843485e-05
9.805902951475737837e+02 6.045876264617288092e-05
9.814907453726863196e+02 6.138854553017564154e-05
9.823911955977988555e+02 6.210854990686601033e-05
9.832916458229113914e+02 6.259841534163590731e-05
9.841920960480239273e+02 6.267413406445338972e-05
9.850925462731365769e+02 6.226214498203906395e-05
9.859929964982491128e+02 6.183071395517661807e-05
9.868934467233616488e+02 6.193863033660027375e-05
9.877938969484741847e+02 6.268015357096333559e-05
9.886943471735867206e+02 6.370420965650702477e-05
9.895947973986992565e+02 6.465064181997367285e-05
9.904952476238119061e+02 6.537982614276725910e-05
9.913956978489244420e+02 6.570600679260393871e-05
9.922961480740369780e+02 6.553547913858101287e-05
9.931965982991495139e+02 6.503289434668847345e-05
9.940970485242620498e+02 6.450960479930230263e-05
9.949974987493745857e+02 6.416704164401412151e-05
9.958979489744872353e+02 6.404621294176823896e-05
9.967983991995997712e+02 6.421478140813718970e-05
9.976988494247123072e+02 6.462790549005033433e-05
9.985992996498248431e+02 6.515480191212920911e-05
9.994997498749373790e+02 6.569320451200853393e-05
1.000400200100050029e+03 6.624283871464910342e-05
1.001300650325162565e+03 6.692131837773337554e-05
1.002201100550275100e+03 6.779646379964478025e-05
1.003101550775387636e+03 6.885840238205149025e-05
1.004002001000500172e+03 7.002498546128595755e-05
1.004902451225612708e+03 7.118570409973334152e-05
1.005802901450725358e+03 7.228254860653760916e-05
1.006703351675837894e+03 7.330812930944816922e-05
1.007603801900950430e+03 7.424735876094377290e-05
1.008504252126062966e+03 7.500007899733071083e-05
1.009404702351175501e+03 7.534380078014626741e-05
1.010305152576288151e+03 7.513020336701578051e-05
1.011205602801400687e+03 7.451156749257753942e-05
1.012106053026513223e+03 7.377674122240121264e-05
1.013006503251625759e+03 7.316350635684023705e-05
1.013906953476738295e+03 7.296786387268831679e-05
1.014807403701850831e+03 7.339733135572428749e-05
1.015707853926963480e+03 7.430075752641266817e-05
1.016608304152076016e+03 7.538168775024918196e-05
1.017508754377188552e+03 7.662907115898591774e-05
1.018409204602301088e+03 7.826727501302916941e-05
1.019309654827413624e+03 8.033194034139066477e-05
1.020210105052526160e+03 8.259191965575746783e-05
1.021110555277638809e+03 8.478317928956421090e-05
1.022011005502751345e+03 8.658154797675398273e-05
1.022911455727863881e+03 8.762721607838137687e-05
1.023811905952976417e+03 8.790179871439324634e-05
1.024712356178089067e+03 8.779228804135188102e-05
1.025612806403201603e+03 8.777589720573585909e-05
1.026513256628314139e+03 8.815561857545395992e-05
1.027413706853426675e+03 8.902440907977255899e-05
1.028314157078539210e+03 9.041293671825136047e-05
1.029214607303651746e+03 9.210402857220296449e-05
1.030115057528764282e+03 9.356344544110794777e-05
1.031015507753876818e+03 9.450941028373870448e-05
1.031915957978989354e+03 9.521842731850213874e-05
1.032816408204101890e+03 9.617248959975281620e-05
1.033716858429214653e+03 9.747644697702817094e-05
1.034617308654327189e+03 9.877990316755605373e-05
1.035517758879439725e+03 9.972777713981807648e-05
1.036418209104552261e+03 1.003459491934574919e-04
1.037318659329664797e+03 1.009087044938407904e-04
1.038219109554777333e+03 1.014793296042064587e-04
1.039119559779889869e+03 1.019486795615112370e-04
1.040020010005002405e+03 1.023068239825962851e-04
1.040920460230114941e+03 1.026991712268422350e-04
1.041820910455227477e+03 1.034704754283948918e-04
1.042721360680340013e+03 1.048600558835426620e-04
1.043621810905452776e+03 1.067218224280818377e-04
1.044522261130565312e+03 1.086436247653118557e-04
1.045422711355677848e+03 1.102462583721979460e-04
1.046323161580790384e+03 1.112983772809145622e-04
1.047223611805902920e+03 1.118796512402433227e-04
1.048124062031015455e+03 1.124513415150745459e-04
1.049024512256127991e+03 1.133731542800076470e-04
1.049924962481240527e+03 1.147263812557575000e-04
1.050825412706353063e+03 1.163454754169965808e-04
1.051725862931465599e+03 1.176534075479569096e-04
1.052626313156578135e+03 1.181656104066272802e-04
1.053526763381690898e+03 1.183000878133211244e-04
1.054427213606803434e+03 1.187274733518350406e-04
1.055327663831915970e+03 1.193252502125522564e-04
1.056228114057028506e+03 1.195956259489129104e-04
1.057128564282141042e+03 1.193090951196032939e-04
1.058029014507253578e+03 1.182278296397518819e-04
1.058929464732366114e+03 1.161695868033780837e-04
1.059829914957478650e+03 1.135711097807082199e-04
1.060730365182591186e+03 1.113272806713093546e-04
1.061630815407703722e+03 1.099377957776028587e-04
1.062531265632816257e+03 1.090832976310672655e-04
1.063431715857929021e+03 1.083152910502783425e-04
1.064332166083041557e+03 1.077928265182052502e-04
1.065232616308154093e+03 1.078781923073488913e-04
1.066133066533266629e+03 1.087270115203028639e-04
1.067033516758379164e+03 1.104290199966084909e-04
1.067933966983491700e+03 1.128872739804633220e-04
1.068834417208604236e+03 1.156142116556193764e-04
1.069734867433716772e+03 1.178225830990117134e-04
1.070635317658829308e+03 1.187131716860131031e-04
1.071535767883941844e+03 1.181913805993732190e-04
1.072436218109054380e+03 1.168703014151653395e-04
1.073336668334167143e+03 1.154250184588769240e-04
1.074237118559279679e+03 1.143400834380396057e-04
1.075137568784392215e+03 1.137554281043344370e-04
1.076038019009504751e+03 1.135856218683424426e-04
1.076938469234617287e+03 1.136609376533774741e-04
1.077838919459729823e+03 1.137582855474261761e-04
1.078739369684842359e+03 1.137806273696245920e-04
1.079639819909954895e+03 1.136926731059502042e-04
1.080540270135067431e+03 1.134543251565666583e-04
1.081440720360179967e+03 1.132142990036200851e-04
1.082341170585292502e+03 1.133592729528161755e-04
1.083241620810405038e+03 1.141665222053802605e-04
1.084142071035517802e+03 1.154104468280322648e-04
1.085042521260630338e+03 1.162570352663191297e-04
1.085942971485742873e+03 1.159327936761039108e-04
1.086843421710855409e+03 1.146250981592668555e-04
1.087743871935967945e+03 1.130650808904848104e-04
1.088644322161080481e+03 1.117930619283696370e-04
1.089544772386193017e+03 1.110498376148103569e-04
1.090445222611305553e+03 1.108141209372658981e-04
1.091345672836418089e+03 1.107942314406059345e-04
1.092246123061530625e+03 1.107096618604669184e-04
1.093146573286643161e+03 1.104635951729662796e-04
1.094047023511755924e+03 1.101419174068622166e-04
1.094947473736868460e+03 1.100362366781555099e-04
1.095847923961980996e+03 1.105995262555877482e-04
1.096748374187093532e+03 1.121499669910473886e-04
1.097648824412206068e+03 1.144241205887610099e-04
1.098549274637318604e+03 1.166408341454930293e-04
1.099449724862431140e+03 1.182823766595463434e-04
1.100350175087543676e+03 1.193295596859498300e-04
1.101250625312656211e+03 1.200842215447763504e-04
1.102151075537768747e+03 1.209621834157455212e-04
1.103051525762881283e+03 1.218284571533084131e-04
1.103951975987994047e+03 1.220842895137671321e-04
1.104852426213106583e+03 1.216334733389179531e-04
1.105752876438219118e+03 1.210812786735101322e-04
1.106653326663331654e+03 1.209879266776258278e-04
1.107553776888444190e+03 1.215123452202203824e-04
1.108454227113556726e+03 1.227476957629019725e-04
1.109354677338669262e+03 1.247604061045385249e-04
1.110255127563781798e+03 1.273468436796593075e-04
1.111155577788894334e+03 1.303515821519830994e-04
1.112056028014006870e+03 1.339103168672552504e-04
1.112956478239119406e+03 1.378680957975985343e-04
1.113856928464232169e+03 1.415055185935770385e-04
1.114757378689344705e+03 1.443164197773492117e-04
1.115657828914457241e+03 1.462722576566327626e-04
1.116558279139569777e+03 1.476929380050445630e-04
1.117458729364682313e+03 1.489769653275037147e-04
1.118359179589794849e+03 1.503286596017544292e-04
1.119259629814907385e+03 1.516942013852990497e-04
1.120160080040019920e+03 1.528192707161266822e-04
1.121060530265132456e+03 1.538827517810978927e-04
1.121960980490244992e+03 1.552969497739452266e-04
1.122861430715357528e+03 1.572144281530331582e-04
1.123761880940470292e+03 1.592890648812239141e-04
1.124662331165582827e+03 1.609074920531443603e-04
1.125562781390695363e+03 1.622104322889570251e-04
1.126463231615807899e+03 1.637497316792274127e-04
1.127363681840920435e+03 1.655888614937606207e-04
1.128264132066032971e+03 1.677801312598640310e-04
1.129164582291145507e+03 1.703324676788888696e-04
1.130065032516258043e+03 1.725287302707153171e-04
1.130965482741370579e+03 1.740029674680841935e-04
1.131865932966483115e+03 1.753894950070493451e-04
1.132766383191595651e+03 1.766999677428960150e-04
1.133666833416708187e+03 1.768032303853392319e-04
1.134567283641820950e+03 1.751557971894885475e-04
1.135467733866933486e+03 1.726501805190235256e-04
1.136368184092046022e+03 1.705242165547350773e-04
1.137268634317158558e+03 1.695724591861793641e-04
1.138169084542271094e+03 1.701605136856960683e-04
1.139069534767383630e+03 1.723328789997432208e-04
1.139969984992496165e+03 1.757697701770914993e-04
1.140870435217608701e+03 1.801137533197226569e-04
1.141770885442721237e+03 1.855115303109120385e-04
1.142671335667833773e+03 1.924188933122065689e-04
1.143571785892946309e+03 2.010078397405713855e-04
1.144472236118059072e+03 2.111468622056944554e-04
1.145372686343171608e+03 2.230011658539652068e-04
1.146273136568284144e+03 2.368916720087207843e-04
1.147173586793396680e+03 2.527645795956180220e-04
1.148074037018509216e+03 2.711384417134245499e-04
1.148974487243621752e+03 2.938134094301099062e-04
1.149874937468734288e+03 3.231294724893627010e-04
1.150775387693846824e+03 3.613849810458535710e-04
1.151675837918959360e+03 4.104013363213211783e-04
1.152576288144071896e+03 4.713531428966404144e-04
1.153476738369184432e+03 5.443583970814024758e-04
1.154377188594297195e+03 6.264796522234388756e-04
1.155277638819409731e+03 7.110757213860269006e-04
1.156178089044522267e+03 7.916008886255043947e-04
1.157078539269634803e+03 8.686154830543518258e-04
1.157978989494747339e+03 9.525281215726380361e-04
1.158879439719859874e+03 1.053606943013378440e-03
1.159779889944972410e+03 1.171890344178414802e-03
1.160680340170084946e+03 1.306280285501071944e-03
1.161580790395197482e+03 1.459492232405361399e-03
1.162481240620310018e+03 1.627839041775970769e-03
1.163381690845422554e+03 1.796373682939292338e-03
1.164282141070535317e+03 1.945313774649495538e-03
1.165182591295647853e+03 2.052455498318516997e-03
1.166083041520760389e+03 2.095512385527908104e-03
1.166983491745872925e+03 2.069498662347671845e-03
1.167883941970985461e+03 1.983210231390015663e-03
1.168784392196097997e+03 1.843645361516588026e-03
1.169684842421210533e+03 1.663920546792507262e-03
1.170585292646323069e+03 1.469271452193821091e-03
1.171485742871435605e+03 1.284409326486563941e-03
1.172386193096548141e+03 1.124319702166617528e-03
1.173286643321660677e+03 9.931023527714496861e-04
1.174187093546773440e+03 8.861116355162030039e-04
1.175087543771885976e+03 7.963874251184560257e-04
1.175987993996998512e+03 7.187927158249796935e-04
1.176888444222111048e+03 6.510156840822939718e-04
1.177788894447223583e+03 5.959637311049849557e-04
1.178689344672336119e+03 5.584716358508519515e-04
1.179589794897448655e+03 5.405716182434832078e-04
1.180490245122561191e+03 5.383057431103219648e-04
1.181390695347673727e+03 5.439175898375675586e-04
1.182291145572786263e+03 5.513466177042755092e-04
1.183191595797898799e+03 5.579636843500567368e-04
1.184092046023011562e+03 5.636590469129298042e-04
1.184992496248124098e+03 5.678467045757368357e-04
1.185892946473236634e+03 5.691027721113710823e-04
1.186793396698349170e+03 5.711379789878586518e-04
1.187693846923461706e+03 5.811472322813859229e-04
1.188594297148574242e+03 6.027123454170669505e-04
1.189494747373686778e+03 6.329738455681809027e-04
1.190395197598799314e+03 6.639071349850513871e-04
1.191295647823911850e+03 6.866972465191174043e-04
1.192196098049024386e+03 6.961079523988927776e-04
1.193096548274136921e+03 6.895885526386047850e-04
1.193996998499249457e+03 6.669877640003777893e-04
1.194897448724362221e+03 6.322668619299798981e-04
1.195797898949474757e+03 5.936688761389759261e-04
1.196698349174587293e+03 5.587369225784136195e-04
1.197598799399699828e+03 5.307456564782743035e-04
1.198499249624812364e+03 5.089640082576372916e-04
1.199399699849924900e+03 4.914475803313345277e-04
1.200300150075037436e+03 4.779615971326292047e-04
1.201200600300149972e+03 4.690112935282256777e-04
1.202101050525262508e+03 4.635215399811267573e-04
1.203001500750375044e+03 4.587249737067095891e-04
1.203901950975487580e+03 4.514036805614802866e-04
1.204802401200600343e+03 4.412334139869305335e-04
1.205702851425712879e+03 4.307183980948412903e-04
1.206603301650825415e+03 4.203618488581500130e-04
1.207503751875937951e+03 4.085127284603623792e-04
1.208404202101050487e+03 3.962746007112656231e-04
1.209304652326163023e+03 3.861256821356674166e-04
1.210205102551275559e+03 3.779200195452601181e-04
1.211105552776388095e+03 3.693468441755427259e-04
1.212006003001500630e+03 3.595555566132192294e-04
1.212906453226613166e+03 3.501673857967816435e-04
1.213806903451725702e+03 3.419657105542642543e-04
1.214707353676838466e+03 3.344543874908426149e-04
1.215607803901951002e+03 3.264545869123228346e-04
1.216508254127063537e+03 3.163060086343528121e-04
1.217408704352176073e+03 3.047627538839023332e-04
1.218309154577288609e+03 2.952586079103093966e-04
1.219209604802401145e+03 2.905331287162825240e-04
1.220110055027513681e+03 2.898995223912187533e-04
1.221010505252626217e+03 2.903486505551262681e-04
1.221910955477738753e+03 2.907320357072915419e-04
1.222811405702851289e+03 2.926407745121722146e-04
1.223711855927963825e+03 2.981824920639196928e-04
1.224612306153076588e+03 3.081487623234604382e-04
1.225512756378189124e+03 3.193558133744502114e-04
1.226413206603301660e+03 3.250722274965634514e-04
1.227313656828414196e+03 3.215555318144222596e-04
1.228214107053526732e+03 3.124582948266649220e-04
1.229114557278639268e+03 3.042602349247353088e-04
1.230015007503751804e+03 2.987876766235710393e-04
1.230915457728864340e+03 2.926840634172748817e-04
1.231815907953976875e+03 2.848353859172353354e-04
1.232716358179089411e+03 2.791735886678916863e-04
1.233616808404201947e+03 2.797497091225932542e-04
1.234517258629314711e+03 2.868470824441653861e-04
1.235417708854427246e+03 2.976721667551026382e-04
1.236318159079539782e+03 3.092702391637442544e-04
1.237218609304652318e+03 3.197886852097811083e-04
1.238119059529764854e+03 3.289629076429825545e-04
1.239019509754877390e+03 3.386451051855056990e-04
1.239919959979989926e+03 3.506885824572579221e-04
1.240820410205102462e+03 3.641142584577750020e-04
1.241720860430214998e+03 3.762097187745386566e-04
1.242621310655327534e+03 3.847252992382737408e-04
1.243521760880440070e+03 3.891676972452664022e-04
1.244422211105552606e+03 3.905043395751803801e-04
1.245322661330665369e+03 3.894003506649141308e-04
1.246223111555777905e+03 3.859446921164183661e-04
1.247123561780890441e+03 3.806756228810320416e-04
1.248024012006002977e+03 3.747554019678410648e-04
1.248924462231115513e+03 3.696182931432667111e-04
1.249824912456228049e+03 3.660693327871613343e-04
1.250725362681340584e+03 3.644454088152977744e-04
1.251625812906453120e+03 3.650725071612950334e-04
1.252526263131565656e+03 3.678756729969330681e-04
1.253426713356678192e+03 3.721845810978513828e-04
1.254327163581790728e+03 3.771604930770649372e-04
1.255227613806903491e+03 3.816985239087991328e-04
1.256128064032016027e+03 3.850596020785372413e-04
1.257028514257128563e+03 3.886377969558033247e-04
1.257928964482241099e+03 3.945826592804872290e-04
1.258829414707353635e+03 4.030732392756905102e-04
1.259729864932466171e+03 4.124300606025034098e-04
1.260630315157578707e+03 4.220338931142287209e-04
1.261530765382691243e+03 4.333855283895802980e-04
1.262431215607803779e+03 4.481072761333288737e-04
1.263331665832916315e+03 4.668536175637208485e-04
1.264232116058028851e+03 4.889818115219738467e-04
1.265132566283141614e+03 5.128485651483194116e-04
1.266033016508254150e+03 5.367087542122374755e-04
1.266933466733366686e+03 5.587890511264188191e-04
1.267833916958479222e+03 5.776599204642528934e-04
1.268734367183591758e+03 5.932231707784874162e-04
1.269634817408704293e+03 6.073255859617477954e-04
1.270535267633816829e+03 6.226913901745179981e-04
1.271435717858929365e+03 6.400875159952096804e-04
1.272336168084041901e+03 6.566792925424511660e-04
1.273236618309154437e+03 6.687789307664056531e-04
1.274137068534266973e+03 6.762898707445860833e-04
1.275037518759379736e+03 6.832013437056552252e-04
1.275937968984492272e+03 6.942214010784961186e-04
1.276838419209604808e+03 7.116542546799893782e-04
1.277738869434717344e+03 7.341849323663332582e-04
1.278639319659829880e+03 7.582771572356270971e-04
1.279539769884942416e+03 7.812367908164090336e-04
1.280440220110054952e+03 8.025111349335953314e-04
1.281340670335167488e+03 8.215197315675434615e-04
1.282241120560280024e+03 8.363956665078190736e-04
1.283141570785392560e+03 8.468697796463709945e-04
1.284042021010505096e+03 8.558351742593264724e-04
1.284942471235617859e+03 8.661122221806557544e-04
1.285842921460730395e+03 8.782465900887231718e-04
1.286743371685842931e+03 8.916155715196011832e-04
1.287643821910955467e+03 9.053661556510471777e-04
1.288544272136068003e+03 9.186502915018700819e-04
1.289444722361180538e+03 9.303043811876353462e-04
1.290345172586293074e+03 9.392237674798292442e-04
1.291245622811405610e+03 9.463851804571467297e-04
1.292146073036518146e+03 9.538017062604365248e-04
1.293046523261630682e+03 9.616764426247510463e-04
1.293946973486743218e+03 9.694783656400254900e-04
1.294847423711855754e+03 9.779291797556439580e-04
1.295747873936968517e+03 9.884955607127317127e-04
1.296648324162081053e+03 1.001496987616195362e-03
1.297548774387193589e+03 1.015213792608399323e-03
1.298449224612306125e+03 1.027674220405207228e-03
1.299349674837418661e+03 1.038978396405214289e-03
1.300250125062531197e+03 1.050815323367062593e-03
1.301150575287643733e+03 1.063394615832597215e-03
1.302051025512756269e+03 1.074382987127098406e-03
1.302951475737868805e+03 1.082239944466156139e-03
1.303851925962981340e+03 1.088472284528558100e-03
1.304752376188093876e+03 1.095150090077909354e-03
1.305652826413206640e+03 1.102853521613460968e-03
1.306553276638319176e+03 1.110966831656974097e-03
1.307453726863431712e+03 1.117998012493209197e-03
1.308354177088544247e+03 1.123260548759619833e-03
1.309254627313656783e+03 1.127903477523680949e-03
1.310155077538769319e+03 1.134065735688817231e-03
1.311055527763881855e+03 1.144016424630320793e-03
1.311955977988994391e+03 1.157849690414677543e-03
1.312856428214106927e+03 1.173885619409152387e-03
1.313756878439219463e+03 1.191377494682262358e-03
1.314657328664331999e+03 1.210076993653963614e-03
1.315557778889444762e+03 1.229260219037153681e-03
1.316458229114557298e+03 1.247504913688405074e-03
1.317358679339669834e+03 1.263271076286048931e-03
1.318259129564782370e+03 1.277421649794000229e-03
1.319159579789894906e+03 1.292756976846574056e-03
1.320060030015007442e+03 1.310317710812049057e-03
1.320960480240119978e+03 1.329644986866063312e-03
1.321860930465232514e+03 1.350405615120305871e-03
1.322761380690345050e+03 1.371793639606607752e-03
1.323661830915457585e+03 1.394362528603551891e-03
1.324562281140570121e+03 1.420648597282111189e-03
1.325462731365682885e+03 1.451422963311383091e-03
1.326363181590795421e+03 1.484140422883153520e-03
1.327263631815907956e+03 1.516052925940622725e-03
1.328164082041020492e+03 1.548206788786655021e-03
1.329064532266133028e+03 1.583348253255262295e-03
1.329964982491245564e+03 1.622181884830725934e-03
1.330865432716358100e+03 1.664850926626461596e-03
1.331765882941470636e+03 1.711586128060478421e-03
1.332666333166583172e+03 1.762144563224329798e-03
1.333566783391695708e+03 1.815234324706549614e-03
1.334467233616808244e+03 1.869030726479128414e-03
1.335367683841921007e+03 1.923649416216310047e-03
1.336268134067033543e+03 1.982253720519781218e-03
1.337168584292146079e+03 2.047486601143512410e-03
1.338069034517258615e+03 2.116800270130747477e-03
1.338969484742371151e+03 2.185311524895481358e-03
1.339869934967483687e+03 2.253147384925473489e-03
1.340770385192596223e+03 2.326314177504409941e-03
1.341670835417708759e+03 2.412157752834653834e-03
1.342571285642821294e+03 2.513144274293230632e-03
1.343471735867933830e+03 2.624409565410752796e-03
1.344372186093046366e+03 2.736857157288114049e-03
1.345272636318158902e+03 2.842809385459958618e-03
1.346173086543271666e+03 2.940052251587276910e-03
1.347073536768384201e+03 3.032513808454337031e-03
1.347973986993496737e+03 3.127170403102228977e-03
1.348874437218609273e+03 3.228213379146443150e-03
1.349774887443721809e+03 3.334544557529948907e-03
1.350675337668834345e+03 3.442289047723446575e-03
1.351575787893946881e+03 3.550748917228961458e-03
1.352476238119059417e+03 3.660485174723707071e-03
1.353376688344171953e+03 3.777140632126009534e-03
1.354277138569284489e+03 3.913080460021656388e-03
1.355177588794397025e+03 4.073233535293601000e-03
1.356078039019509788e+03 4.249530158831615022e-03
1.356978489244622324e+03 4.429926781773429675e-03
1.357878939469734860e+03 4.612662277450356972e-03
1.358779389694847396e+03 4.810424604457685938e-03
1.359679839919959932e+03 5.035897889089143570e-03
1.360580290145072468e+03 5.289590010936094308e-03
1.361480740370185003e+03 5.557161244799413945e-03
1.362381190595297539e+03 5.816625238757873462e-03
1.363281640820410075e+03 6.064741909068686876e-03
1.364182091045522611e+03 6.324972312614312794e-03
1.365082541270635147e+03 6.619019566209480634e-03
1.365982991495747910e+03 6.951376028593834328e-03
1.366883441720860446e+03 7.308228408507041508e-03
1.367783891945972982e+03 7.668522626108497178e-03
1.368684342171085518e+03 8.031740652213230358e-03
1.369584792396198054e+03 8.417315984305980339e-03
1.370485242621310590e+03 8.830299967299152022e-03
1.371385692846423126e+03 9.242375619615912988e-03
1.372286143071535662e+03 9.627402774387044254e-03
1.373186593296648198e+03 9.984028419791764544e-03
1.374087043521760734e+03 1.031966494925621106e-02
1.374987493746873270e+03 1.065797588116922795e-02
1.375887943971986033e+03 1.103371461807491592e-02
1.376788394197098569e+03 1.145567484713722051e-02
1.377688844422211105e+03 1.192375157879927566e-02
1.378589294647323641e+03 1.245647190157802946e-02
1.379489744872436177e+03 1.306093152263020606e-02
1.380390195097548713e+03 1.371341939427416293e-02
1.381290645322661248e+03 1.437167237670568254e-02
1.382191095547773784e+03 1.500494532519471534e-02
1.383091545772886320e+03 1.561667593811950396e-02
1.383991995997998856e+03 1.621786363102430475e-02
1.384892446223111392e+03 1.681970489060742938e-02
1.385792896448224155e+03 1.743962059437425063e-02
1.386693346673336691e+03 1.810095902014648844e-02
1.387593796898449227e+03 1.884471223849878974e-02
1.388494247123561763e+03 1.971931334371860786e-02
1.389394697348674299e+03 2.074426671827889895e-02
1.390295147573786835e+03 2.191056533702717690e-02
1.391195597798899371e+03 2.321841829208873623e-02
1.392096048024011907e+03 2.467476378470008155e-02
1.392996498249124443e+03 2.626712690801303110e-02
1.393896948474236979e+03 2.793894040264459366e-02
1.394797398699349515e+03 2.960835822056593833e-02
1.395697848924462278e+03 3.123421309647610167e-02
1.396598299149574814e+03 3.280676856460418289e-02
1.397498749374687350e+03 3.426999252255224365e-02
1.398399199599799886e+03 3.554324485116299587e-02
1.399299649824912422e+03 3.661222877331575531e-02
1.400200100050024957e+03 3.744636410327317755e-02
1.401100550275137493e+03 3.792742684785258694e-02
1.402001000500250029e+03 3.786464124930900149e-02
1.402901450725362565e+03 3.715349522084277628e-02
1.403801900950475101e+03 3.601058014253571971e-02
1.404702351175587637e+03 3.479282523372374814e-02
1.405602801400700173e+03 3.369337322805297796e-02
1.406503251625812936e+03 3.277531669649453444e-02
1.407403701850925472e+03 3.199066053065584975e-02
1.408304152076038008e+03 3.116018382631179431e-02
1.409204602301150544e+03 3.014795359053900822e-02
1.410105052526263080e+03 2.901967864392692234e-02
1.411005502751375616e+03 2.794014159554977783e-02
1.411905952976488152e+03 2.703939342663610329e-02
1.412806403201600688e+03 2.635926278512600723e-02
1.413706853426713224e+03 2.582649630865423152e-02
1.414607303651825760e+03 2.526803390596256416e-02
1.415507753876938295e+03 2.456321398740443640e-02
1.416408204102051059e+03 2.374486009665897901e-02
1.417308654327163595e+03 2.294094649612894027e-02
1.418209104552276131e+03 2.223136300510844890e-02
1.419109554777388666e+03 2.151980538385721980e-02
1.420010005002501202e+03 2.063983313231877378e-02
1.420910455227613738e+03 1.951805249921744617e-02
1.421810905452726274e+03 1.821521144060590791e-02
1.422711355677838810e+03 1.688838089967241787e-02
1.423611805902951346e+03 1.566659029943982123e-02
1.424512256128063882e+03 1.457878065675807279e-02
1.425412706353176418e+03 1.359126711219438115e-02
1.426313156578289181e+03 1.268570587248595179e-02
1.427213606803401717e+03 1.188688964020246860e-02
1.428114057028514253e+03 1.122293430864057528e-02
1.429014507253626789e+03 1.068728056369664878e-02
1.429914957478739325e+03 1.024864985350426930e-02
1.430815407703851861e+03 9.860743819237566613e-03
1.431715857928964397e+03 9.476801995337111317e-03
1.432616308154076933e+03 9.084859681083409105e-03
1.433516758379189469e+03 8.710194376095837729e-03
1.434417208604302004e+03 8.375748263546891476e-03
1.435317658829414540e+03 8.073403672082705290e-03
1.436218109054527304e+03 7.766567674942379158e-03
1.437118559279639840e+03 7.426280719049886854e-03
1.438019009504752376e+03 7.064814485478388383e-03
1.438919459729864911e+03 6.718791303182948364e-03
1.439819909954977447e+03 6.403916499064681023e-03
1.440720360180089983e+03 6.116587194588639191e-03
1.441620810405202519e+03 5.860133153618723653e-03
1.442521260630315055e+03 5.644288128617392687e-03
1.443421710855427591e+03 5.467977471904882092e-03
1.444322161080540127e+03 5.312513929668243040e-03
1.445222611305652663e+03 5.157293680872070823e-03
1.446123061530765426e+03 4.989791087423985950e-03
1.447023511755877962e+03 4.807762679792170618e-03
1.447923961980990498e+03 4.628286909715647116e-03
1.448824412206103034e+03 4.470522215272854441e-03
1.449724862431215570e+03 4.338990466604355882e-03
1.450625312656328106e+03 4.231796605733655417e-03
1.451525762881440642e+03 4.147106772203534852e-03
1.452426213106553178e+03 4.077901868348835640e-03
1.453326663331665713e+03 4.015292948391720358e-03
1.454227113556778249e+03 3.948430728943482133e-03
1.455127563781890785e+03 3.859275360829144894e-03
1.456028014007003321e+03 3.735936678673132047e-03
1.456928464232116085e+03 3.597088444521717634e-03
1.457828914457228620e+03 3.466946608606110217e-03
1.458729364682341156e+03 3.346657982639853878e-03
1.459629814907453692e+03 3.230726370824612941e-03
1.460530265132566228e+03 3.119523185428273778e-03
1.461430715357678764e+03 3.012381561561455496e-03
1.462331165582791300e+03 2.906473486310135954e-03
1.463231615807903836e+03 2.803665471514260685e-03
1.464132066033016372e+03 2.709795059016129309e-03
1.465032516258128908e+03 2.626051346005441652e-03
1.465932966483241444e+03 2.544569068912550577e-03
1.466833416708354207e+03 2.457394157510841507e-03
1.467733866933466743e+03 2.366220628652401011e-03
1.468634317158579279e+03 2.280827723766012862e-03
1.469534767383691815e+03 2.210711054053650631e-03
1.470435217608804351e+03 2.159121733927361984e-03
1.471335667833916887e+03 2.121253050641698761e-03
1.472236118059029423e+03 2.083844787385048282e-03
1.473136568284141958e+03 2.032394084383012164e-03
1.474037018509254494e+03 1.963624584334188860e-03
1.474937468734367030e+03 1.888721799668075137e-03
1.475837918959479566e+03 1.820497303802963169e-03
1.476738369184592329e+03 1.760706881221411283e-03
1.477638819409704865e+03 1.701245376305025436e-03
1.478539269634817401e+03 1.635635345255728387e-03
1.479439719859929937e+03 1.566283436593238904e-03
1.480340170085042473e+03 1.499503721634838811e-03
1.481240620310155009e+03 1.440218130311949653e-03
1.482141070535267545e+03 1.390401969661495506e-03
1.483041520760380081e+03 1.349331839483791781e-03
1.483941970985492617e+03 1.313982270729493508e-03
1.484842421210605153e+03 1.279866097303896007e-03
1.485742871435717689e+03 1.244250992106885924e-03
1.486643321660830452e+03 1.209041132282307179e-03
1.487543771885942988e+03 1.176316856278432441e-03
1.488444222111055524e+03 1.146541956346731677e-03
1.489344672336168060e+03 1.120882278991034179e-03
1.490245122561280596e+03 1.100330417872797837e-03
1.491145572786393132e+03 1.084492331429460317e-03
1.492046023011505667e+03 1.070327563241267035e-03
1.492946473236618203e+03 1.052997386471228028e-03
1.493846923461730739e+03 1.031275378978648710e-03
1.494747373686843275e+03 1.008851700905619630e-03
1.495647823911955811e+03 9.882730512199165620e-04
1.496548274137068574e+03 9.683547194128038979e-04
1.497448724362181110e+03 9.485972782338845249e-04
1.498349174587293646e+03 9.294838489335400470e-04
1.499249624812406182e+03 9.113671973223428768e-04
1.500150075037518718e+03 8.943757094116397714e-04
1.501050525262631254e+03 8.778250016643979409e-04
1.501950975487743790e+03 8.632387202989948247e-04
1.502851425712856326e+03 8.520699395571498585e-04
1.503751875937968862e+03 8.416117883889614581e-04
1.504652326163081398e+03 8.291189032998104924e-04
1.505552776388193934e+03 8.154857006564825020e-04
1.506453226613306470e+03 8.023570840442838638e-04
1.507353676838419233e+03 7.894092982769415883e-04
1.508254127063531769e+03 7.772078168965472879e-04
1.509154577288644305e+03 7.674811725621689604e-04
1.510055027513756841e+03 7.607536237913543713e-04
1.510955477738869376e+03 7.569037586839813753e-04
1.511855927963981912e+03 7.555993436164685313e-04
1.512756378189094448e+03 7.558727967704961413e-04
1.513656828414206984e+03 7.566760792867947578e-04
1.514557278639319520e+03 7.567424403560503703e-04
1.515457728864432056e+03 7.542138221578900507e-04
1.516358179089544592e+03 7.489300332901447027e-04
1.517258629314657355e+03 7.427429860986965249e-04
1.518159079539769891e+03 7.369724216737399969e-04
1.519059529764882427e+03 7.324736848062019575e-04
1.519959979989994963e+03 7.300447593498962271e-04
1.520860430215107499e+03 7.295410838077557658e-04
1.521760880440220035e+03 7.308261427104650399e-04
1.522661330665332571e+03 7.331359916003221374e-04
1.523561780890445107e+03 7.346175849630638991e-04
1.524462231115557643e+03 7.336263369134492056e-04
1.525362681340670179e+03 7.298342414747259086e-04
1.526263131565782714e+03 7.242889829698204640e-04
1.527163581790895478e+03 7.186698750237825034e-04
1.528064032016008014e+03 7.145293167028915482e-04
1.528964482241120550e+03 7.110145778486819286e-04
1.529864932466233086e+03 7.046292053090246832e-04
1.530765382691345621e+03 6.948788821593655319e-04
1.531665832916458157e+03 6.868202534885080573e-04
1.532566283141570693e+03 6.845062533552180800e-04
1.533466733366683229e+03 6.879469110243042161e-04
1.534367183591795765e+03 6.954212176480768564e-04
1.535267633816908301e+03 7.059142286356440317e-04
1.536168084042020837e+03 7.189529073041370103e-04
1.537068534267133600e+03 7.326793283218996930e-04
1.537968984492246136e+03 7.440116751539268408e-04
1.538869434717358672e+03 7.512104978215245485e-04
1.539769884942471208e+03 7.545519886563037491e-04
1.540670335167583744e+03 7.539240556396063124e-04
1.541570785392696280e+03 7.486674229845804735e-04
1.542471235617808816e+03 7.416245494902721580e-04
1.543371685842921352e+03 7.377817135828258202e-04
1.544272136068033888e+03 7.373727081249843501e-04
1.545172586293146423e+03 7.371507228376567022e-04
1.546073036518258959e+03 7.347629708730339009e-04
1.546973486743371723e+03 7.285548370296897726e-04
1.547873936968484259e+03 7.191000035912570353e-04
1.548774387193596795e+03 7.103899083243368252e-04
1.549674837418709330e+03 7.066824252149872792e-04
1.550575287643821866e+03 7.092885475319901005e-04
1.551475737868934402e+03 7.156398694956639557e-04
1.552376188094046938e+03 7.202182084667837743e-04
1.553276638319159474e+03 7.184006114480609179e-04
1.554177088544272010e+03 7.105183903014009430e-04
1.555077538769384546e+03 6.989464559191115858e-04
1.555977988994497082e+03 6.856799550575613756e-04
1.556878439219609618e+03 6.736843185861218081e-04
1.557778889444722381e+03 6.659825783678875125e-04
1.558679339669834917e+03 6.634540620147975475e-04
1.559579789894947453e+03 6.646269582640047975e-04
1.560480240120059989e+03 6.674341533621282879e-04
1.561380690345172525e+03 6.715043594060663909e-04
1.562281140570285061e+03 6.774718299065466071e-04
1.563181590795397597e+03 6.857313557821970770e-04
1.564082041020510133e+03 6.959800056127012904e-04
1.564982491245622668e+03 7.066816605743992362e-04
1.565882941470735204e+03 7.167215732061047850e-04
1.566783391695847740e+03 7.267114782259457163e-04
1.567683841920960504e+03 7.396344304705346250e-04
1.568584292146073039e+03 7.587453577267669509e-04
1.569484742371185575e+03 7.832512314904135345e-04
1.570385192596298111e+03 8.054910606217091261e-04
1.571285642821410647e+03 8.189511751751551430e-04
1.572186093046523183e+03 8.294325711932779618e-04
1.573086543271635719e+03 8.466983047109941790e-04
1.573986993496748255e+03 8.694803350411651165e-04
1.574887443721860791e+03 8.852798332731802661e-04
1.575787893946973327e+03 8.804234839610659618e-04
1.576688344172085863e+03 8.498099462493203084e-04
1.577588794397198626e+03 7.922949911551456156e-04
1.578489244622311162e+03 7.069988606378010661e-04
1.579389694847423698e+03 6.010553557455647041e-04
1.580290145072536234e+03 4.924595303497623661e-04
1.581190595297648770e+03 3.990773256728706846e-04
1.582091045522761306e+03 3.271618304786637235e-04
1.582991495747873842e+03 2.740696965715299434e-04
1.583891945972986377e+03 2.349261776868646185e-04
1.584792396198098913e+03 2.055880982836368824e-04
1.585692846423211449e+03 1.831096019503710164e-04
1.586593296648323985e+03 1.654975547070893351e-04
1.587493746873436749e+03 1.514095441222586161e-04
1.588394197098549284e+03 1.399300118419457694e-04
1.589294647323661820e+03 1.304228233689323259e-04
1.590195097548774356e+03 1.224371351475408705e-04
1.591095547773886892e+03 1.156473178224287607e-04
1.591995997998999428e+03 1.098141803502101105e-04
1.592896448224111964e+03 1.047595680491680923e-04
1.593796898449224500e+03 1.003494924498534216e-04
1.594697348674337036e+03 9.648283975491613279e-05
1.595597798899449572e+03 9.308386134995824018e-05
1.596498249124562108e+03 9.009737977170648843e-05
1.597398699349674871e+03 8.748613798727513898e-05
1.598299149574787407e+03 8.523010004431232100e-05
1.599199599799899943e+03 8.332784884826858194e-05
1.600100050025012479e+03 8.180050682591586732e-05
1.601000500250125015e+03 8.069849739459402380e-05
1.601900950475237551e+03 8.010946601658933304e-05
1.602801400700350086e+03 8.015691968353372504e-05
1.603701850925462622e+03 8.095676189974005061e-05
1.604602301150575158e+03 8.250095867436200818e-05
1.605502751375687694e+03 8.462889721103767325e-05
1.606403201600800230e+03 8.726283415730669713e-05
1.607303651825912766e+03 9.003422453617105433e-05
1.608204102051025529e+03 9.141209168263919420e-05
1.609104552276138065e+03 8.989872312059282266e-05
1.610005002501250601e+03 8.605268774860969886e-05
1.610905452726363137e+03 8.160366515457166486e-05
1.611805902951475673e+03 7.760069501932174670e-05
1.612706353176588209e+03 7.424062399825941605e-05
1.613606803401700745e+03 7.150818048482618827e-05
1.614507253626813281e+03 6.903028166066646455e-05
1.615407703851925817e+03 6.623216678719765849e-05
1.616308154077038353e+03 6.317377157574754782e-05
1.617208604302150889e+03 6.034086628889860870e-05
1.618109054527263652e+03 5.797131431609783901e-05
1.619009504752376188e+03 5.603891790425766944e-05
1.619909954977488724e+03 5.444211057970505880e-05
1.620810405202601260e+03 5.308896728049082949e-05
1.621710855427713796e+03 5.191268252302253574e-05
1.622611305652826331e+03 5.086738190537159094e-05
1.623511755877938867e+03 4.992170771242163027e-05
1.624412206103051403e+03 4.905390571883627427e-05
1.625312656328163939e+03 4.824855176148361920e-05
1.626213106553276475e+03 4.749444836046686652e-05
1.627113556778389011e+03 4.678327504327884495e-05
1.628014007003501774e+03 4.610871152810973295e-05
1.628914457228614310e+03 4.546585785767377178e-05
1.629814907453726846e+03 4.485084331258119725e-05
1.630715357678839382e+03 4.426055738366720902e-05
1.631615807903951918e+03 4.369246114120244094e-05
1.632516258129064454e+03 4.314445256032708927e-05
1.633416708354176990e+03 4.261476872285639570e-05
1.634317158579289526e+03 4.210191366324521535e-05
1.635217608804402062e+03 4.160460434195992224e-05
1.636118059029514598e+03 4.112172963109657711e-05
1.637018509254627133e+03 4.065231877572205620e-05
1.637918959479739897e+03 4.019551684902826759e-05
1.638819409704852433e+03 3.975056543486248957e-05
1.639719859929964969e+03 3.931678726371437094e-05
1.640620310155077505e+03 3.889357387197966937e-05
1.641520760380190040e+03 3.848037559736267786e-05
1.642421210605302576e+03 3.807669339722183507e-05
1.643321660830415112e+03 3.768207210260486817e-05
1.644222111055527648e+03 3.729609481289817050e-05
1.645122561280640184e+03 3.691837820417131046e-05
1.646023011505752720e+03 3.654856857519241732e-05
1.646923461730865256e+03 3.618633849342966515e-05
1.647823911955978019e+03 3.583138393251256870e-05
1.648724362181090555e+03 3.548342181494381953e-05
1.649624812406203091e+03 3.514218789113285183e-05
1.650525262631315627e+03 3.480743489921862800e-05
1.651425712856428163e+03 3.447893096069388770e-05
1.652326163081540699e+03 3.415645817513398479e-05
1.653226613306653235e+03 3.383981138393176195e-05
1.654127063531765771e+03 3.352879707820915583e-05
1.655027513756878307e+03 3.322323243030557638e-05
1.655927963981990843e+03 3.292294443168333816e-05
1.656828414207103378e+03 3.262776912285397861e-05
1.657728864432216142e+03 3.233755090322590250e-05
1.658629314657328678e+03 3.205214191062222777e-05
1.659529764882441214e+03 3.177140146177594371e-05
1.660430215107553749e+03 3.149519554638113280e-05
1.661330665332666285e+03 3.122339636834136305e-05
1.662231115557778821e+03 3.095588192875821056e-05
1.663131565782891357e+03 3.069253564593675499e-05
1.664032016008003893e+03 3.043324600833049562e-05
1.664932466233116429e+03 3.017790625687411616e-05
1.665832916458228965e+03 2.992641409360782373e-05
1.666733366683341501e+03 2.967867141388969850e-05
1.667633816908454037e+03 2.943458405981811787e-05
1.668534267133566800e+03 2.919406159277519031e-05
1.669434717358679336e+03 2.895701708324560582e-05
1.670335167583791872e+03 2.872336691628028319e-05
1.671235617808904408e+03 2.849303061115656045e-05
1.672136068034016944e+03 2.826593065394322030e-05
1.673036518259129480e+03 2.804199234182846540e-05
1.673936968484242016e+03 2.782114363817749704e-05
1.674837418709354552e+03 2.760331503740646048e-05
1.675737868934467087e+03 2.738843943884153943e-05
1.676638319159579623e+03 2.717645202882779579e-05
1.677538769384692159e+03 2.696729017041186283e-05
1.678439219609804923e+03 2.676089329999975153e-05
1.679339669834917459e+03 2.655720283043989293e-05
1.680240120060029994e+03 2.635616206003717985e-05
1.681140570285142530e+03 2.615771608704952760e-05
1.682041020510255066e+03 2.596181172925345583e-05
1.682941470735367602e+03 2.576839744821357312e-05
1.683841920960480138e+03 2.557742327790771836e-05
1.684742371185592674e+03 2.538884075740290166e-05
1.685642821410705210e+03 2.520260286729709959e-05
1.686543271635817746e+03 2.501866396966267783e-05
1.687443721860930282e+03 2.483697975125825642e-05
1.688344172086043045e+03 2.465750716978534681e-05
1.689244622311155581e+03 2.448020440298843782e-05
1.690145072536268117e+03 2.430503080041463633e-05
1.691045522761380653e+03 2.413194683765911922e-05
1.691945972986493189e+03 2.396091407293917045e-05
1.692846423211605725e+03 2.379189510585025288e-05
1.693746873436718261e+03 2.362485353816910799e-05
1.694647323661830796e+03 2.345975393657719453e-05
1.695547773886943332e+03 2.329656179719045544e-05
1.696448224112055868e+03 2.313524351178448886e-05
1.697348674337168404e+03 2.297576633562008980e-05
1.698249124562281168e+03 2.281809835676795192e-05
1.699149574787393703e+03 2.266220846685352170e-05
1.700050025012506239e+03 2.250806633313878917e-05
1.700950475237618775e+03 2.235564237186195974e-05
1.701850925462731311e+03 2.220490772277048029e-05
1.702751375687843847e+03 2.205583422477888097e-05
1.703651825912956383e+03 2.190839439268886071e-05
1.704552276138068919e+03 2.176256139491814830e-05
1.705452726363181455e+03 2.161830903217999188e-05
1.706353176588293991e+03 2.147561171706691041e-05
1.707253626813406527e+03 2.133444445448843385e-05
1.708154077038519290e+03 2.119478282292158166e-05
1.709054527263631826e+03 2.105660295642917661e-05
1.709954977488744362e+03 2.091988152741061513e-05
1.710855427713856898e+03 2.078459573004566989e-05
1.711755877938969434e+03 2.065072326439799878e-05
1.712656328164081970e+03 2.051824232114735918e-05
1.713556778389194506e+03 2.038713156691535501e-05
1.714457228614307041e+03 2.025737013016287011e-05
1.715357678839419577e+03 2.012893758762561490e-05
1.716258129064532113e+03 2.000181395126643079e-05
1.717158579289644649e+03 1.987597965571704425e-05
1.718059029514757185e+03 1.975141554619028994e-05
1.718959479739869948e+03 1.962810286683724990e-05
1.719859929964982484e+03 1.950602324953172413e-05
1.720760380190095020e+03 1.938515870306142612e-05
1.721660830415207556e+03 1.926549160270858314e-05
1.722561280640320092e+03 1.914700468020080510e-05
1.723461730865432628e+03 1.902968101401959446e-05
1.724362181090545164e+03 1.891350402004603965e-05
1.725262631315657700e+03 1.879845744253314126e-05
1.726163081540770236e+03 1.868452534538940935e-05
1.727063531765882772e+03 1.857169210375914930e-05
1.727963981990995308e+03 1.845994239588924125e-05
1.728864432216108071e+03 1.834926119526908433e-05
1.729764882441220607e+03 1.823963376303226053e-05
1.730665332666333143e+03 1.813104564060944877e-05
1.731565782891445679e+03 1.802348264262369220e-05
1.732466233116558215e+03 1.791693085001480807e-05
1.733366683341670750e+03 1.781137660338783795e-05
1.734267133566783286e+03 1.770680649657310364e-05
1.735167583791895822e+03 1.760320737039258000e-05
1.736068034017008358e+03 1.750056630662132255e-05
1.736968484242120894e+03 1.739887062213908782e-05
1.737868934467233430e+03 1.729810786326385570e-05
1.738769384692346193e+03 1.719826580025890216e-05
1.739669834917458729e+03 1.709933242200931567e-05
1.740570285142571265e+03 1.700129593085990067e-05
1.741470735367683801e+03 1.690414473760881302e-05
1.742371185592796337e+03 1.680786745665096107e-05
1.743271635817908873e+03 1.671245290126609350e-05
1.744172086043021409e+03 1.661789007904606829e-05
1.745072536268133945e+03 1.652416818745616961e-05
1.745972986493246481e+03 1.643127660952535681e-05
1.746873436718359017e+03 1.633920490966124739e-05
1.747773886943471553e+03 1.624794282958584964e-05
1.748674337168584316e+03 1.615748028438628508e-05
1.749574787393696852e+03 1.606780735867825437e-05
1.750475237618809388e+03 1.597891430287650040e-05
1.751375687843921924e+03 1.589079152957046276e-05
1.752276138069034459e+03 1.580342960999964489e-05
1.753176588294146995e+03 1.571681927062738274e-05
1.754077038519259531e+03 1.563095138980691290e-05
1.754977488744372067e+03 1.554581699453978436e-05
1.755877938969484603e+03 1.546140725732064036e-05
1.756778389194597139e+03 1.537771349306800138e-05
1.757678839419709675e+03 1.529472715613592264e-05
1.758579289644822438e+03 1.521243983740544398e-05
1.759479739869934974e+03 1.513084326145343638e-05
1.760380190095047510e+03 1.504992928379385974e-05
1.761280640320160046e+03 1.496968988819334773e-05
1.762181090545272582e+03 1.489011718405361002e-05
1.763081540770385118e+03 1.481120340386378590e-05
1.763981990995497654e+03 1.473294090071599497e-05
1.764882441220610190e+03 1.465532214588502012e-05
1.765782891445722726e+03 1.457833972646918017e-05
1.766683341670835262e+03 1.450198634308992391e-05
1.767583791895947797e+03 1.442625480764989653e-05
1.768484242121060333e+03 1.435113804114544482e-05
1.769384692346173097e+03 1.427662907153437946e-05
1.770285142571285633e+03 1.420272103165509627e-05
1.771185592796398169e+03 1.412940715719730045e-05
1.772086043021510704e+03 1.405668078472132668e-05
1.772986493246623240e+03 1.398453534972601471e-05
1.773886943471735776e+03 1.391296438476243469e-05
1.774787393696848312e+03 1.384196151759282549e-05
1.775687843921960848e+03 1.377152046939357536e-05
1.776588294147073384e+03 1.370163505299971733e-05
1.777488744372185920e+03 1.363229917119229296e-05
1.778389194597298456e+03 1.356350681502382415e-05
1.779289644822411219e+03 1.349525206218464741e-05
1.780190095047523755e+03 1.342752907540545719e-05
1.781090545272636291e+03 1.336033210089729989e-05
1.781990995497748827e+03 1.329365546682753119e-05
1.782891445722861363e+03 1.322749358182997148e-05
1.783791895947973899e+03 1.316184093354912052e-05
1.784692346173086435e+03 1.309669208721683037e-05
1.785592796398198971e+03 1.303204168426144003e-05
1.786493246623311506e+03 1.296788444094775052e-05
1.787393696848424042e+03 1.290421514704672238e-05
1.788294147073536578e+03 1.284102866453542241e-05
1.789194597298649342e+03 1.277831992632471917e-05
1.790095047523761878e+03 1.271608393501547101e-05
1.790995497748874413e+03 1.265431576168150239e-05
1.791895947973986949e+03 1.259301054467868397e-05
1.792796398199099485e+03 1.253216348848092811e-05
1.793696848424212021e+03 1.247176986253882721e-05
1.794597298649324557e+03 1.241182500016528870e-05
1.795497748874437093e+03 1.235232429744311155e-05
1.796398199099549629e+03 1.229326321215632550e-05
1.797298649324662165e+03 1.223463726274447970e-05
1.798199099549774701e+03 1.217644202727748555e-05
1.799099549774887464e+03 1.211867314245348015e-05
1.800000000000000000e+03 1.206132630261642733e-05
