0.000000000000000000e+00 1.052415279257500058e-03
9.004502251125562351e-01 1.412759220386042075e-03
1.800900450225112470e+00 1.898767516564626133e-03
2.701350675337668594e+00 2.459012703176013080e-03
3.601800900450224940e+00 2.877114175115751387e-03
4.502251125562780842e+00 2.866508368079123854e-03
5.402701350675337189e+00 2.436719735115104590e-03
6.303151575787893535e+00 1.877717481840312543e-03
7.203601800900449881e+00 1.397233687342628889e-03
8.104052026013006227e+00 1.041940934366835519e-03
9.004502251125561685e+00 7.907994743243095545e-04
9.904952476238118919e+00 6.134628353619648797e-04
1.080540270135067438e+01 4.863020893104725716e-04
1.170585292646323161e+01 3.932484887354119633e-04
1.260630315157578707e+01 3.236981270237024593e-04
1.350675337668834430e+01 2.706508068418659349e-04
1.440720360180089976e+01 2.294359984598027126e-04
1.530765382691345522e+01 1.968885373172213858e-04
1.620810405202601245e+01 1.708256064661088777e-04
1.710855427713856969e+01 1.497062875768549815e-04
1.800900450225112337e+01 1.323863834907076302e-04
1.890945472736368060e+01 1.179332250261270966e-04
1.980990495247623784e+01 1.055850042063052798e-04
2.071035517758879507e+01 9.488251762710802348e-05
2.161080540270134875e+01 8.562245107093602932e-05
2.251125562781390599e+01 7.763994567301478337e-05
2.341170585292646322e+01 7.074524831180808754e-05
2.431215607803901690e+01 6.475731540467419712e-05
2.521260630315157414e+01 5.952409690224546576e-05
2.611305652826413137e+01 5.492365834305268292e-05
2.701350675337668861e+01 5.085921024659839250e-05
2.791395697848924229e+01 4.725359514847681598e-05
2.881440720360179952e+01 4.404453661768711485e-05
2.971485742871435676e+01 4.117964131300662616e-05
3.061530765382691044e+01 3.860952670966115202e-05
3.151575787893946767e+01 3.628385231090365542e-05
3.241620810405202491e+01 3.416118121359638184e-05
3.331665832916458214e+01 3.222049223830465497e-05
3.421710855427713938e+01 3.045674009243704982e-05
3.511755877938969661e+01 2.886951389796806486e-05
3.601800900450224674e+01 2.745106199467275724e-05
3.691845922961480397e+01 2.617321294133716212e-05
3.781890945472736121e+01 2.497392127160086279e-05
3.871935967983991844e+01 2.378851324268863751e-05
3.961980990495247568e+01 2.262168543864650095e-05
4.052026013006503291e+01 2.152473326499920527e-05
4.142071035517759015e+01 2.052623504705038899e-05
4.232116058029014027e+01 1.962697962611647113e-05
4.322161080540269751e+01 1.881928662643670726e-05
4.412206103051525474e+01 1.809716745230661176e-05
4.502251125562781198e+01 1.745944468278062573e-05
4.592296148074036921e+01 1.691076108518405107e-05
4.682341170585292645e+01 1.646137560706762180e-05
4.772386193096548368e+01 1.612178510209131345e-05
4.862431215607803381e+01 1.588047322982132043e-05
4.952476238119059104e+01 1.565789373190885266e-05
5.042521260630314828e+01 1.530188100330765824e-05
5.132566283141570551e+01 1.473616789279620211e-05
5.222611305652826275e+01 1.407270672469354570e-05
5.312656328164081998e+01 1.345861895301487117e-05
5.402701350675337721e+01 1.295092257149075119e-05
5.492746373186592734e+01 1.254435953075643437e-05
5.582791395697848458e+01 1.220567004165826482e-05
5.672836418209104181e+01 1.187560833298142871e-05
5.762881440720359905e+01 1.151246014742136062e-05
5.852926463231615628e+01 1.114647119795219753e-05
5.942971485742871351e+01 1.083399103273131853e-05
6.033016508254127075e+01 1.060109337260566341e-05
6.123061530765382088e+01 1.043681856776267003e-05
6.213106553276637811e+01 1.029457305220013075e-05
6.303151575787893535e+01 1.012294631647201417e-05
6.393196598299149258e+01 9.927416995016865217e-06
6.483241620810404982e+01 9.756667711095328883e-06
6.573286643321659994e+01 9.630488423554396183e-06
6.663331665832916428e+01 9.532512600572417844e-06
6.753376688344171441e+01 9.421318823415967820e-06
6.843421710855427875e+01 9.214846006175525213e-06
6.933466733366682888e+01 8.880276860919804769e-06
7.023511755877939322e+01 8.500792682111713822e-06
7.113556778389194335e+01 8.167195600952300135e-06
7.203601800900449348e+01 7.911858639119953419e-06
7.293646823411705782e+01 7.732809817264714135e-06
7.383691845922960795e+01 7.614919371532216846e-06
7.473736868434217229e+01 7.529033616756971542e-06
7.563781890945472242e+01 7.438325202333012851e-06
7.653826913456728676e+01 7.335144280710758036e-06
7.743871935967983688e+01 7.256284249745558636e-06
7.833916958479238701e+01 7.244594581781600278e-06
7.923961980990495135e+01 7.321825196312683333e-06
8.014007003501750148e+01 7.479631974406682199e-06
8.104052026013006582e+01 7.666702397714226567e-06
8.194097048524261595e+01 7.798241031148655568e-06
8.284142071035518029e+01 7.791748047518167101e-06
8.374187093546773042e+01 7.624907476121705988e-06
8.464232116058028055e+01 7.382834686755793629e-06
8.554277138569284489e+01 7.161229204446606374e-06
8.644322161080539502e+01 6.960078544567082375e-06
8.734367183591795936e+01 6.734097453916857692e-06
8.824412206103050949e+01 6.496333690883823806e-06
8.914457228614307382e+01 6.308370947309246000e-06
9.004502251125562395e+01 6.211645433464917660e-06
9.094547273636817408e+01 6.216098270054960951e-06
9.184592296148073842e+01 6.304721924429860197e-06
9.274637318659328855e+01 6.416514998820325873e-06
9.364682341170585289e+01 6.455638627833819350e-06
9.454727363681840302e+01 6.381527424622162821e-06
9.544772386193096736e+01 6.264369918165152834e-06
9.634817408704351749e+01 6.195191188811940588e-06
9.724862431215606762e+01 6.195582444239074070e-06
9.814907453726863196e+01 6.236051080245586079e-06
9.904952476238118209e+01 6.285450963998141399e-06
9.994997498749374643e+01 6.302099122967100049e-06
1.008504252126062966e+02 6.231949035553879604e-06
1.017508754377188609e+02 6.073925303697355002e-06
1.026513256628314110e+02 5.901180158693325005e-06
1.035517758879439612e+02 5.774723963102094317e-06
1.044522261130565255e+02 5.690022929389159338e-06
1.053526763381690756e+02 5.614210278806401392e-06
1.062531265632816400e+02 5.546555913289961429e-06
1.071535767883941901e+02 5.511285123971482836e-06
1.080540270135067544e+02 5.523756828792948245e-06
1.089544772386193046e+02 5.598684984524791992e-06
1.098549274637318547e+02 5.744299575202498519e-06
1.107553776888444190e+02 5.939578389929922021e-06
1.116558279139569692e+02 6.124655773127922693e-06
1.125562781390695335e+02 6.236913053999923425e-06
1.134567283641820836e+02 6.281797792433084743e-06
1.143571785892946480e+02 6.315732799340268822e-06
1.152576288144071981e+02 6.351266096106441880e-06
1.161580790395197482e+02 6.361081116239466874e-06
1.170585292646323126e+02 6.342477926494497432e-06
1.179589794897448627e+02 6.293587447690240446e-06
1.188594297148574270e+02 6.174958027333987271e-06
1.197598799399699772e+02 5.989350215972154245e-06
1.206603301650825415e+02 5.830731583691315931e-06
1.215607803901950916e+02 5.775052304758948059e-06
1.224612306153076418e+02 5.801576091841065020e-06
1.233616808404202061e+02 5.815041092440322243e-06
1.242621310655327562e+02 5.727737510580908889e-06
1.251625812906453206e+02 5.547094417752555082e-06
1.260630315157578707e+02 5.359897990461602291e-06
1.269634817408704350e+02 5.242424773539471854e-06
1.278639319659829852e+02 5.225374712235936519e-06
1.287643821910955353e+02 5.302362380486910701e-06
1.296648324162080996e+02 5.434164880759955496e-06
1.305652826413206640e+02 5.576234375865181415e-06
1.314657328664331999e+02 5.714351936098449800e-06
1.323661830915457642e+02 5.860044968620289293e-06
1.332666333166583286e+02 6.007224757284548621e-06
1.341670835417708929e+02 6.123986160475505583e-06
1.350675337668834288e+02 6.193068973541473482e-06
1.359679839919959932e+02 6.214854807780695506e-06
1.368684342171085575e+02 6.194958987107449059e-06
1.377688844422210934e+02 6.191550547392168218e-06
1.386693346673336578e+02 6.289982792806267968e-06
1.395697848924462221e+02 6.484390242943876854e-06
1.404702351175587864e+02 6.660390311650039245e-06
1.413706853426713224e+02 6.696375527824320407e-06
1.422711355677838867e+02 6.549669774139711300e-06
1.431715857928964510e+02 6.289789083159409700e-06
1.440720360180089870e+02 6.048422018459010980e-06
1.449724862431215513e+02 5.918632658938399063e-06
1.458729364682341156e+02 5.913191690654702802e-06
1.467733866933466800e+02 6.009832587541593062e-06
1.476738369184592159e+02 6.196856649113856995e-06
1.485742871435717802e+02 6.454602721101272131e-06
1.494747373686843446e+02 6.724758724101534855e-06
1.503751875937968805e+02 6.930351661581506382e-06
1.512756378189094448e+02 7.039629634010700608e-06
1.521760880440220092e+02 7.079277673385704853e-06
1.530765382691345735e+02 7.061510210557177897e-06
1.539769884942471094e+02 6.985000398658425815e-06
1.548774387193596738e+02 6.887518606028016106e-06
1.557778889444722381e+02 6.832530219432056099e-06
1.566783391695847740e+02 6.886727348453931052e-06
1.575787893946973384e+02 7.069555649822324562e-06
1.584792396198099027e+02 7.340578236814228953e-06
1.593796898449224670e+02 7.666901134389771854e-06
1.602801400700350030e+02 8.016921428290991892e-06
1.611805902951475673e+02 8.308854355671672451e-06
1.620810405202601316e+02 8.441987270759361233e-06
1.629814907453726676e+02 8.390579041505947462e-06
1.638819409704852319e+02 8.233783607623595168e-06
1.647823911955977962e+02 8.059315417036961538e-06
1.656828414207103606e+02 7.890201867300060959e-06
1.665832916458228965e+02 7.744038435136113614e-06
1.674837418709354608e+02 7.657211259663786272e-06
1.683841920960480252e+02 7.633084359995993365e-06
1.692846423211605611e+02 7.649519428331930982e-06
1.701850925462731254e+02 7.689719326004604738e-06
1.710855427713856898e+02 7.711335883072373894e-06
1.719859929964982541e+02 7.656530798907229462e-06
1.728864432216107900e+02 7.540006119132759372e-06
1.737868934467233544e+02 7.438966869037217190e-06
1.746873436718359187e+02 7.397599144785013598e-06
1.755877938969484546e+02 7.410675139494361216e-06
1.764882441220610190e+02 7.470441760796364656e-06
1.773886943471735833e+02 7.568725792041476259e-06
1.782891445722861476e+02 7.675787316348226677e-06
1.791895947973986836e+02 7.763280219241551976e-06
1.800900450225112479e+02 7.819772508366666885e-06
1.809904952476238122e+02 7.872239980015792468e-06
1.818909454727363482e+02 7.965136059730377688e-06
1.827913956978489125e+02 8.088076257178463345e-06
1.836918459229614768e+02 8.165267171055578927e-06
1.845922961480740412e+02 8.149768932771745108e-06
1.854927463731865771e+02 8.105834176457419661e-06
1.863931965982991414e+02 8.109756787337378198e-06
1.872936468234117058e+02 8.161772950581951301e-06
1.881940970485242417e+02 8.237325732153000891e-06
1.890945472736368060e+02 8.333785476934254453e-06
1.899949974987493704e+02 8.436213275053339137e-06
1.908954477238619347e+02 8.475909453898514671e-06
1.917958979489744706e+02 8.411481263396154094e-06
1.926963481740870350e+02 8.291981014287745912e-06
1.935967983991995993e+02 8.191028149983537761e-06
1.944972486243121352e+02 8.152394800298668747e-06
1.953976988494246996e+02 8.175467992176414781e-06
1.962981490745372639e+02 8.245079066703374601e-06
1.971985992996498283e+02 8.362941543055075393e-06
1.980990495247623642e+02 8.510682474814254732e-06
1.989994997498749285e+02 8.636630564640849822e-06
1.998999499749874929e+02 8.708050120242287009e-06
2.008004002001000288e+02 8.696523231405354151e-06
2.017008504252125931e+02 8.553759774239341163e-06
2.026013006503251574e+02 8.273280777848847389e-06
2.035017508754377218e+02 7.930824459410276762e-06
2.044022011005502577e+02 7.622214721680611287e-06
2.053026513256628220e+02 7.410119920878930353e-06
2.062031015507753864e+02 7.297596174733886402e-06
2.071035517758879223e+02 7.239460421700413444e-06
2.080040020010004866e+02 7.224239588321707603e-06
2.089044522261130510e+02 7.300084865033288651e-06
2.098049024512256153e+02 7.499789517103619817e-06
2.107053526763381512e+02 7.798633631010753813e-06
2.116058029014507156e+02 8.132104113392072517e-06
2.125062531265632799e+02 8.443147921833443341e-06
2.134067033516758158e+02 8.719684811381108697e-06
2.143071535767883802e+02 8.950458458752866576e-06
2.152076038019009445e+02 9.091992813400931632e-06
2.161080540270135089e+02 9.114150050216100749e-06
2.170085042521260448e+02 9.027455910138139968e-06
2.179089544772386091e+02 8.876313394194973566e-06
2.188094047023511735e+02 8.690946052411487610e-06
2.197098549274637094e+02 8.496073102596766799e-06
2.206103051525762737e+02 8.332286863256380916e-06
2.215107553776888381e+02 8.206397807926335656e-06
2.224112056028014024e+02 8.092423028768813595e-06
2.233116558279139383e+02 8.008685524534519802e-06
2.242121060530265027e+02 7.997469286282725889e-06
2.251125562781390670e+02 8.048100301799812769e-06
2.260130065032516029e+02 8.098492859517521971e-06
2.269134567283641672e+02 8.133567937692312626e-06
2.278139069534767316e+02 8.206122793957328573e-06
2.287143571785892959e+02 8.376038733192086468e-06
2.296148074037018318e+02 8.676014819996636008e-06
2.305152576288143962e+02 9.062890214245637385e-06
2.314157078539269605e+02 9.433738507434566884e-06
2.323161580790394964e+02 9.725069612411610319e-06
2.332166083041520608e+02 9.957256187614790845e-06
2.341170585292646251e+02 1.016083747139684114e-05
2.350175087543771895e+02 1.031351309387864970e-05
2.359179589794897254e+02 1.036726474253538331e-05
2.368184092046022897e+02 1.029192378908035409e-05
2.377188594297148541e+02 1.009938426044345595e-05
2.386193096548273900e+02 9.832290140703658319e-06
2.395197598799399543e+02 9.534706548700680890e-06
2.404202101050525187e+02 9.234234082618382545e-06
2.413206603301650830e+02 8.970527525967163951e-06
2.422211105552776189e+02 8.793769607188238626e-06
2.431215607803901833e+02 8.741849319596578608e-06
2.440220110055027476e+02 8.833595456312356994e-06
2.449224612306152835e+02 9.044395467584974438e-06
2.458229114557278479e+02 9.305373526483745370e-06
2.467233616808404122e+02 9.556635011899386529e-06
2.476238119059529765e+02 9.788832267183948912e-06
2.485242621310655124e+02 1.000499108210566013e-05
2.494247123561780768e+02 1.017333762598645465e-05
2.503251625812906411e+02 1.027633701405369256e-05
2.512256128064031770e+02 1.034561144422554974e-05
2.521260630315157414e+02 1.039855252145522334e-05
2.530265132566283057e+02 1.035874899383483036e-05
2.539269634817408701e+02 1.014140468615393157e-05
2.548274137068534060e+02 9.800070927881839736e-06
2.557278639319659703e+02 9.482446454992278980e-06
2.566283141570785347e+02 9.302910860720373904e-06
2.575287643821910706e+02 9.288011263435112078e-06
2.584292146073036633e+02 9.415604408232466506e-06
2.593296648324161993e+02 9.666509941202317278e-06
2.602301150575287352e+02 1.000202862695724844e-05
2.611305652826413279e+02 1.033601855762964289e-05
2.620310155077538639e+02 1.059749545112854772e-05
2.629314657328663998e+02 1.081602767916324824e-05
2.638319159579789925e+02 1.105211246358076774e-05
2.647323661830915285e+02 1.126129029121268797e-05
2.656328164082040644e+02 1.133593525831939575e-05
2.665332666333166571e+02 1.125566855997317188e-05
2.674337168584291931e+02 1.108178380020555884e-05
2.683341670835417858e+02 1.086852637444965121e-05
2.692346173086543217e+02 1.065581460272972813e-05
2.701350675337668577e+02 1.048929979231784973e-05
2.710355177588794504e+02 1.038195798699557599e-05
2.719359679839919863e+02 1.030794347487543138e-05
2.728364182091045222e+02 1.024850607092671884e-05
2.737368684342171150e+02 1.019741047823420130e-05
2.746373186593296509e+02 1.015683030970303442e-05
2.755377688844421868e+02 1.012166552606833406e-05
2.764382191095547796e+02 1.007279310149552338e-05
2.773386693346673155e+02 1.005957555158313151e-05
2.782391195597798514e+02 1.017676240098811443e-05
2.791395697848924442e+02 1.043660749465487805e-05
2.800400200100049801e+02 1.077482703267677547e-05
2.809404702351175729e+02 1.112859475361279994e-05
2.818409204602301088e+02 1.142915769005722325e-05
2.827413706853426447e+02 1.161662686824818101e-05
2.836418209104552375e+02 1.172034827747391572e-05
2.845422711355677734e+02 1.178821847230743923e-05
2.854427213606803093e+02 1.182270442634882010e-05
2.863431715857929021e+02 1.183177437988755275e-05
2.872436218109054380e+02 1.182399671282321749e-05
2.881440720360179739e+02 1.180709753304354877e-05
2.890445222611305667e+02 1.178815021061624323e-05
2.899449724862431026e+02 1.178128119340312927e-05
2.908454227113556385e+02 1.182935070350960317e-05
2.917458729364682313e+02 1.196751780869839941e-05
2.926463231615807672e+02 1.215021265603358433e-05
2.935467733866933600e+02 1.227653315294669833e-05
2.944472236118058959e+02 1.232195235830777293e-05
2.953476738369184318e+02 1.233600987376123767e-05
2.962481240620310246e+02 1.232976382677821994e-05
2.971485742871435605e+02 1.229152703287725485e-05
2.980490245122560964e+02 1.225303855104323343e-05
2.989494747373686891e+02 1.224903588804900817e-05
2.998499249624812251e+02 1.225997483427686491e-05
3.007503751875937610e+02 1.224353744097250313e-05
3.016508254127063537e+02 1.217105150039002147e-05
3.025512756378188897e+02 1.205259502655738154e-05
3.034517258629314256e+02 1.192847908971731670e-05
3.043521760880440183e+02 1.185411266366459689e-05
3.052526263131565543e+02 1.192183737536340730e-05
3.061530765382691470e+02 1.223179657769674570e-05
3.070535267633816829e+02 1.279630141968117538e-05
3.079539769884942189e+02 1.351019073700076446e-05
3.088544272136068116e+02 1.421537077213500493e-05
3.097548774387193475e+02 1.483262592599838249e-05
3.106553276638318835e+02 1.541580662049910034e-05
3.115557778889444762e+02 1.599032631588434209e-05
3.124562281140570121e+02 1.647640620671278689e-05
3.133566783391695481e+02 1.674443429963666315e-05
3.142571285642821408e+02 1.666898017404532924e-05
3.151575787893946767e+02 1.629361747255088144e-05
3.160580290145072127e+02 1.586627259815703985e-05
3.169584792396198054e+02 1.560622285905066082e-05
3.178589294647323413e+02 1.556361189653463482e-05
3.187593796898449341e+02 1.570277542775972221e-05
3.196598299149574700e+02 1.600629441827794734e-05
3.205602801400700059e+02 1.647082730180292684e-05
3.214607303651825987e+02 1.706030335699575907e-05
3.223611805902951346e+02 1.762354652846629262e-05
3.232616308154076705e+02 1.794020771165018451e-05
3.241620810405202633e+02 1.787830625821675153e-05
3.250625312656327992e+02 1.752076843779264728e-05
3.259629814907453351e+02 1.711486978810506800e-05
3.268634317158579279e+02 1.686221792461645820e-05
3.277638819409704638e+02 1.683025033128985294e-05
3.286643321660829997e+02 1.695834473363809562e-05
3.295647823911955925e+02 1.710163572683143153e-05
3.304652326163081284e+02 1.716475022240940705e-05
3.313656828414207212e+02 1.723152694712897572e-05
3.322661330665332571e+02 1.744057295771665042e-05
3.331665832916457930e+02 1.778744931219644843e-05
3.340670335167583858e+02 1.815575503267201924e-05
3.349674837418709217e+02 1.844726712045500209e-05
3.358679339669834576e+02 1.860171012092920912e-05
3.367683841920960504e+02 1.865705680612761978e-05
3.376688344172085863e+02 1.873307458131488393e-05
3.385692846423211222e+02 1.894986431098870001e-05
3.394697348674337150e+02 1.934261920437644504e-05
3.403701850925462509e+02 1.979735876095108912e-05
3.412706353176587868e+02 2.017105556489907385e-05
3.421710855427713796e+02 2.045805801685390748e-05
3.430715357678839155e+02 2.066795422437466397e-05
3.439719859929965082e+02 2.073445019275316477e-05
3.448724362181090441e+02 2.067751844410925307e-05
3.457728864432215801e+02 2.063420833287835950e-05
3.466733366683341728e+02 2.065749379202035032e-05
3.475737868934467087e+02 2.069523521244201304e-05
3.484742371185592447e+02 2.074957960962720796e-05
3.493746873436718374e+02 2.081707968764373216e-05
3.502751375687843733e+02 2.078790150025161833e-05
3.511755877938969093e+02 2.060687294678383743e-05
3.520760380190095020e+02 2.033388918908194694e-05
3.529764882441220379e+02 2.006698623600337028e-05
3.538769384692345739e+02 1.988418784280955584e-05
3.547773886943471666e+02 1.982847077821254646e-05
3.556778389194597025e+02 1.993958266116458290e-05
3.565782891445722953e+02 2.019115650180798344e-05
3.574787393696848312e+02 2.047691074062561682e-05
3.583791895947973671e+02 2.071706233295419911e-05
3.592796398199099599e+02 2.086580196000357331e-05
3.601800900450224958e+02 2.086896547206135537e-05
3.610805402701350317e+02 2.073661577130367354e-05
3.619809904952476245e+02 2.060048009279258371e-05
3.628814407203601604e+02 2.057629033368901664e-05
3.637818909454726963e+02 2.061300645724884289e-05
3.646823411705852891e+02 2.057609211094876562e-05
3.655827913956978250e+02 2.034302961306577850e-05
3.664832416208103609e+02 1.990026241214660054e-05
3.673836918459229537e+02 1.938801718706341260e-05
3.682841420710354896e+02 1.897870423737062868e-05
3.691845922961480824e+02 1.874375097611177791e-05
3.700850425212606183e+02 1.864978640955885865e-05
3.709854927463731542e+02 1.860400019086531545e-05
3.718859429714857470e+02 1.853901496799030058e-05
3.727863931965982829e+02 1.843145552408041103e-05
3.736868434217108188e+02 1.825910703847609745e-05
3.745872936468234116e+02 1.801710222830462849e-05
3.754877438719359475e+02 1.776163352003608440e-05
3.763881940970484834e+02 1.756463282074928321e-05
3.772886443221610762e+02 1.744579286800185063e-05
3.781890945472736121e+02 1.737292886308707871e-05
3.790895447723861480e+02 1.725554749350308550e-05
3.799899949974987408e+02 1.699601978299978387e-05
3.808904452226112767e+02 1.666540065729077527e-05
3.817908954477238694e+02 1.642730784107681848e-05
3.826913456728364054e+02 1.633380331540800948e-05
3.835917958979489413e+02 1.634221148302070174e-05
3.844922461230615340e+02 1.638217058076132850e-05
3.853926963481740700e+02 1.641339475094073010e-05
3.862931465732866059e+02 1.646688779044873160e-05
3.871935967983991986e+02 1.656622886332419009e-05
3.880940470235117346e+02 1.667001880282114495e-05
3.889944972486242705e+02 1.673098095200068687e-05
3.898949474737368632e+02 1.671704184263948038e-05
3.907953976988493991e+02 1.657825413626674488e-05
3.916958479239619351e+02 1.631881581263231487e-05
3.925962981490745278e+02 1.604261443401839077e-05
3.934967483741870637e+02 1.588128799926954968e-05
3.943971985992996565e+02 1.588803754884240011e-05
3.952976488244121924e+02 1.604235146726565086e-05
3.961980990495247283e+02 1.630354400683089487e-05
3.970985492746373211e+02 1.661043628198269378e-05
3.979989994997498570e+02 1.688562025446829545e-05
3.988994497248623929e+02 1.707809710554062386e-05
3.997998999499749857e+02 1.716407284603512612e-05
4.007003501750875216e+02 1.715094835225560875e-05
4.016008004002000575e+02 1.710083844798276071e-05
4.025012506253126503e+02 1.709306853888048047e-05
4.034017008504251862e+02 1.712059568083971250e-05
4.043021510755377221e+02 1.708579609174497847e-05
4.052026013006503149e+02 1.696067661460649270e-05
4.061030515257628508e+02 1.683266164183860484e-05
4.070035017508754436e+02 1.677324537576146117e-05
4.079039519759879795e+02 1.677233856247339680e-05
4.088044022011005154e+02 1.680377047070173607e-05
4.097048524262131082e+02 1.683917113578438604e-05
4.106053026513256441e+02 1.682250464256477868e-05
4.115057528764381800e+02 1.673469973468528029e-05
4.124062031015507728e+02 1.657049483754658508e-05
4.133066533266633087e+02 1.632025305624216610e-05
4.142071035517758446e+02 1.603351660644152459e-05
4.151075537768884374e+02 1.578247515084765207e-05
4.160080040020009733e+02 1.560257238585911884e-05
4.169084542271135092e+02 1.548616568507523854e-05
4.178089044522261020e+02 1.542331489010010046e-05
4.187093546773386379e+02 1.544621223589232045e-05
4.196098049024512306e+02 1.559220205133000860e-05
4.205102551275637666e+02 1.579639453360733833e-05
4.214107053526763025e+02 1.592776622976332872e-05
4.223111555777888952e+02 1.594651191288540241e-05
4.232116058029014312e+02 1.590989738007857432e-05
4.241120560280139671e+02 1.589105864789368817e-05
4.250125062531265598e+02 1.589383617369915795e-05
4.259129564782390958e+02 1.587302769469326787e-05
4.268134067033516317e+02 1.585556944487455811e-05
4.277138569284642244e+02 1.591668866908454901e-05
4.286143071535767604e+02 1.609039784252028378e-05
4.295147573786892963e+02 1.637465932282237808e-05
4.304152076038018890e+02 1.670929323635101540e-05
4.313156578289144250e+02 1.697042925998889457e-05
4.322161080540270177e+02 1.702604592492090889e-05
4.331165582791395536e+02 1.683724014958831369e-05
4.340170085042520896e+02 1.651963642575286287e-05
4.349174587293646823e+02 1.623760813661128340e-05
4.358179089544772182e+02 1.606591862399774816e-05
4.367183591795897541e+02 1.591920156410792485e-05
4.376188094047023469e+02 1.568356184717558765e-05
4.385192596298148828e+02 1.540143412236790659e-05
4.394197098549274187e+02 1.516101229117055262e-05
4.403201600800400115e+02 1.498540971074075698e-05
4.412206103051525474e+02 1.486715206173727801e-05
4.421210605302650833e+02 1.480884008147730604e-05
4.430215107553776761e+02 1.486275293709644580e-05
4.439219609804902120e+02 1.505376263719019836e-05
4.448224112056028048e+02 1.527008939341091822e-05
4.457228614307153407e+02 1.537214531100996736e-05
4.466233116558278766e+02 1.536342181669872901e-05
4.475237618809404694e+02 1.536108843769049074e-05
4.484242121060530053e+02 1.545301448022759364e-05
4.493246623311655412e+02 1.564867649831782018e-05
4.502251125562781340e+02 1.592672693787929993e-05
4.511255627813906699e+02 1.625137521829034812e-05
4.520260130065032058e+02 1.656466253406680954e-05
4.529264632316157986e+02 1.680309746293279292e-05
4.538269134567283345e+02 1.690505333334534736e-05
4.547273636818408704e+02 1.684083824024807858e-05
4.556278139069534632e+02 1.666026548798253643e-05
4.565282641320659991e+02 1.648665930417217789e-05
4.574287143571785919e+02 1.640576980274652407e-05
4.583291645822911278e+02 1.639655710258278523e-05
4.592296148074036637e+02 1.638490891576772427e-05
4.601300650325162565e+02 1.632357217371744923e-05
4.610305152576287924e+02 1.625247426152864549e-05
4.619309654827413283e+02 1.624624795413315409e-05
4.628314157078539210e+02 1.632134323691151719e-05
4.637318659329664570e+02 1.640691450040033833e-05
4.646323161580789929e+02 1.643250676836706151e-05
4.655327663831915856e+02 1.639189411179966692e-05
4.664332166083041216e+02 1.632039622634732853e-05
4.673336668334167143e+02 1.626819478145403165e-05
4.682341170585292502e+02 1.627632313436477027e-05
4.691345672836417862e+02 1.636662634764665639e-05
4.700350175087543789e+02 1.647587458511267879e-05
4.709354677338669148e+02 1.647962643697508010e-05
4.718359179589794508e+02 1.637417834049948565e-05
4.727363681840920435e+02 1.625621245540927136e-05
4.736368184092045794e+02 1.620055319983907392e-05
4.745372686343171154e+02 1.624464593405459153e-05
4.754377188594297081e+02 1.637974107241082112e-05
4.763381690845422440e+02 1.653719806806625239e-05
4.772386193096547800e+02 1.664969869048808085e-05
4.781390695347673727e+02 1.668192479547955676e-05
4.790395197598799086e+02 1.665069375276570919e-05
4.799399699849925014e+02 1.662989718123132518e-05
4.808404202101050373e+02 1.666624723234713613e-05
4.817408704352175732e+02 1.674026354025359397e-05
4.826413206603301660e+02 1.682128782988206030e-05
4.835417708854427019e+02 1.692114721972392259e-05
4.844422211105552378e+02 1.706375441808060750e-05
4.853426713356678306e+02 1.723779209240269307e-05
4.862431215607803665e+02 1.740965802082132901e-05
4.871435717858929024e+02 1.755992196989253701e-05
4.880440220110054952e+02 1.768572748195228016e-05
4.889444722361180311e+02 1.777104468794275167e-05
4.898449224612305670e+02 1.782298160239624227e-05
4.907453726863431598e+02 1.789595715157038134e-05
4.916458229114556957e+02 1.799415152620626962e-05
4.925462731365682885e+02 1.806479947189636046e-05
4.934467233616808244e+02 1.810245788017561576e-05
4.943471735867933603e+02 1.812403110344872279e-05
4.952476238119059531e+02 1.811713512500756398e-05
4.961480740370184890e+02 1.815002329201969444e-05
4.970485242621310249e+02 1.833424282630654193e-05
4.979489744872436177e+02 1.866464004122220710e-05
4.988494247123561536e+02 1.901919982999704086e-05
4.997498749374686895e+02 1.923497900858847756e-05
5.006503251625812823e+02 1.926935208957215621e-05
5.015507753876938182e+02 1.927359927630706207e-05
5.024512256128063541e+02 1.940442555545556199e-05
5.033516758379189469e+02 1.969438925617822913e-05
5.042521260630314828e+02 2.006856118102896187e-05
5.051525762881440755e+02 2.043786533384395223e-05
5.060530265132566115e+02 2.074581155220197166e-05
5.069534767383691474e+02 2.095749734492574707e-05
5.078539269634817401e+02 2.108530142328456848e-05
5.087543771885942760e+02 2.114856487105039464e-05
5.096548274137068120e+02 2.116502263675416697e-05
5.105552776388194047e+02 2.119514060072441523e-05
5.114557278639319406e+02 2.126686548618024776e-05
5.123561780890445334e+02 2.128091906330730021e-05
5.132566283141570693e+02 2.109791308332480513e-05
5.141570785392696052e+02 2.075808330461654844e-05
5.150575287643821412e+02 2.043445379043315916e-05
5.159579789894946771e+02 2.026044480228463072e-05
5.168584292146073267e+02 2.028183697236830201e-05
5.177588794397198626e+02 2.047987501710417542e-05
5.186593296648323985e+02 2.079413347512383461e-05
5.195597798899449344e+02 2.113935538646402682e-05
5.204602301150574704e+02 2.145918227110497708e-05
5.213606803401700063e+02 2.171752270788954417e-05
5.222611305652826559e+02 2.189845731876670376e-05
5.231615807903951918e+02 2.203992669605393901e-05
5.240620310155077277e+02 2.218903406014219562e-05
5.249624812406202636e+02 2.237052449205600567e-05
5.258629314657327996e+02 2.259560696196425328e-05
5.267633816908454492e+02 2.286348753850026108e-05
5.276638319159579851e+02 2.315839655401113938e-05
5.285642821410705210e+02 2.348760128323164732e-05
5.294647323661830569e+02 2.388732332538926224e-05
5.303651825912955928e+02 2.428859090355067093e-05
5.312656328164081287e+02 2.452154787776674239e-05
5.321660830415207784e+02 2.453467414623602990e-05
5.330665332666333143e+02 2.446401029469046586e-05
5.339669834917458502e+02 2.444500630861119966e-05
5.348674337168583861e+02 2.450791166681010928e-05
5.357678839419709220e+02 2.465172931128426165e-05
5.366683341670835716e+02 2.485331654095467304e-05
5.375687843921961075e+02 2.506892812634584989e-05
5.384692346173086435e+02 2.531587913418247213e-05
5.393696848424211794e+02 2.563899771336414639e-05
5.402701350675337153e+02 2.599372210801396502e-05
5.411705852926462512e+02 2.630969128515486675e-05
5.420710355177589008e+02 2.660059821016516293e-05
5.429714857428714367e+02 2.689896083450373589e-05
5.438719359679839727e+02 2.721145178418847061e-05
5.447723861930965086e+02 2.755237531025712559e-05
5.456728364182090445e+02 2.791840032745869569e-05
5.465732866433215804e+02 2.824674155904419542e-05
5.474737368684342300e+02 2.845105651597478090e-05
5.483741870935467659e+02 2.852479247921627925e-05
5.492746373186593019e+02 2.858410079602724860e-05
5.501750875437718378e+02 2.871576690335607857e-05
5.510755377688843737e+02 2.888620775964198360e-05
5.519759879939970233e+02 2.904745802528687547e-05
5.528764382191095592e+02 2.921695071093737334e-05
5.537768884442220951e+02 2.945221187811383100e-05
5.546773386693346310e+02 2.977104250853222691e-05
5.555777888944471670e+02 3.015391731068239065e-05
5.564782391195597029e+02 3.054992083753551077e-05
5.573786893446723525e+02 3.088487008832649269e-05
5.582791395697848884e+02 3.114572732043688330e-05
5.591795897948974243e+02 3.132792535538660882e-05
5.600800400200099602e+02 3.142244415964047532e-05
5.609804902451224962e+02 3.146322464613573235e-05
5.618809404702351458e+02 3.149124488652854317e-05
5.627813906953476817e+02 3.152050939894722128e-05
5.636818409204602176e+02 3.154157799577441302e-05
5.645822911455727535e+02 3.151519795632255695e-05
5.654827413706852894e+02 3.140165267611494940e-05
5.663831915957978254e+02 3.122783249733984728e-05
5.672836418209104750e+02 3.107791509982673977e-05
5.681840920460230109e+02 3.101103398917818990e-05
5.690845422711355468e+02 3.103005489496236800e-05
5.699849924962480827e+02 3.106072145336787613e-05
5.708854427213606186e+02 3.099456617656395349e-05
5.717858929464731546e+02 3.079306624185034467e-05
5.726863431715858042e+02 3.047257980318502583e-05
5.735867933966983401e+02 3.003332395633611724e-05
5.744872436218108760e+02 2.953898162886338011e-05
5.753876938469234119e+02 2.913991893559814424e-05
5.762881440720359478e+02 2.890345275717681300e-05
5.771885942971485974e+02 2.877317556660974657e-05
5.780890445222611334e+02 2.870445857434225813e-05
5.789894947473736693e+02 2.867177996412499435e-05
5.798899449724862052e+02 2.860800804014922930e-05
5.807903951975987411e+02 2.843120214480767720e-05
5.816908454227112770e+02 2.810011163148325438e-05
5.825912956478239266e+02 2.765356315273961814e-05
5.834917458729364625e+02 2.717982707388949689e-05
5.843921960980489985e+02 2.678389617066580410e-05
5.852926463231615344e+02 2.653761540214931455e-05
5.861930965482740703e+02 2.641097833149939317e-05
5.870935467733867199e+02 2.630757630935764510e-05
5.879939969984992558e+02 2.619538090061716146e-05
5.888944472236117917e+02 2.612606971048640704e-05
5.897948974487243277e+02 2.610932654016699358e-05
5.906953476738368636e+02 2.608678467511517810e-05
5.915957978989493995e+02 2.602038234842672827e-05
5.924962481240620491e+02 2.595260661872464812e-05
5.933966983491745850e+02 2.588044063815685508e-05
5.942971485742871209e+02 2.569016693775687807e-05
5.951975987993996569e+02 2.533995175291184278e-05
5.960980490245121928e+02 2.493743940473213853e-05
5.969984992496247287e+02 2.464323491503228586e-05
5.978989494747373783e+02 2.455310641290825690e-05
5.987993996998499142e+02 2.463715324556538168e-05
5.996998499249624501e+02 2.480290932501223115e-05
6.006003001500749860e+02 2.495386719578370852e-05
6.015007503751875220e+02 2.499810680400963003e-05
6.024012006003001716e+02 2.491383065833937757e-05
6.033016508254127075e+02 2.477256097498840517e-05
6.042021010505252434e+02 2.462432548068905534e-05
6.051025512756377793e+02 2.445697243902786598e-05
6.060030015007503152e+02 2.420286492296808877e-05
6.069034517258628512e+02 2.377417361639188250e-05
6.078039019509755008e+02 2.322054810543919016e-05
6.087043521760880367e+02 2.268215755567086592e-05
6.096048024012005726e+02 2.222342991278755661e-05
6.105052526263131085e+02 2.186676376293144661e-05
6.114057028514256444e+02 2.158633091123428625e-05
6.123061530765382940e+02 2.130429649642522863e-05
6.132066033016508300e+02 2.098264707436025322e-05
6.141070535267633659e+02 2.067098542673990639e-05
6.150075037518759018e+02 2.040816747073309395e-05
6.159079539769884377e+02 2.019063206493535532e-05
6.168084042021009736e+02 2.005381055522396274e-05
6.177088544272136232e+02 2.001668337424162056e-05
6.186093046523261592e+02 2.002842102582349718e-05
6.195097548774386951e+02 2.002548567392458217e-05
6.204102051025512310e+02 1.998851447613095693e-05
6.213106553276637669e+02 1.996057845140907522e-05
6.222111055527763028e+02 2.004593412020644046e-05
6.231115557778889524e+02 2.026394209165440874e-05
6.240120060030014884e+02 2.046990527973191490e-05
6.249124562281140243e+02 2.055378360740508671e-05
6.258129064532265602e+02 2.053661627151054939e-05
6.267133566783390961e+02 2.047374199017540551e-05
6.276138069034517457e+02 2.041725247003204401e-05
6.285142571285642816e+02 2.039526194542242519e-05
6.294147073536768175e+02 2.035645195826162756e-05
6.303151575787893535e+02 2.021010358546366037e-05
6.312156078039018894e+02 1.993424669602651092e-05
6.321160580290144253e+02 1.960955706042475391e-05
6.330165082541270749e+02 1.931401552881582451e-05
6.339169584792396108e+02 1.907346847600100204e-05
6.348174087043521467e+02 1.891039199363509545e-05
6.357178589294646827e+02 1.881668578105615973e-05
6.366183091545772186e+02 1.872535041702849792e-05
6.375187593796898682e+02 1.858921550842364837e-05
6.384192096048024041e+02 1.845006326563889727e-05
6.393196598299149400e+02 1.840239329845633415e-05
6.402201100550274759e+02 1.849441525033313505e-05
6.411205602801400119e+02 1.867908622183570675e-05
6.420210105052525478e+02 1.885965832405142088e-05
6.429214607303651974e+02 1.899848080619601139e-05
6.438219109554777333e+02 1.909650672250437473e-05
6.447223611805902692e+02 1.911864206564981892e-05
6.456228114057028051e+02 1.903959811115938389e-05
6.465232616308153411e+02 1.887334274610584021e-05
6.474237118559278770e+02 1.866156346012617253e-05
6.483241620810405266e+02 1.847608184799765226e-05
6.492246123061530625e+02 1.835971256669120748e-05
6.501250625312655984e+02 1.830638717715417200e-05
6.510255127563781343e+02 1.829621001801330432e-05
6.519259629814906702e+02 1.834051046644661300e-05
6.528264132066033198e+02 1.845504971398111968e-05
6.537268634317158558e+02 1.860510492908365674e-05
6.546273136568283917e+02 1.872002445447395506e-05
6.555277638819409276e+02 1.877538904121236747e-05
6.564282141070534635e+02 1.879332239512386348e-05
6.573286643321659994e+02 1.876782536677953884e-05
6.582291145572786490e+02 1.871188727724352013e-05
6.591295647823911850e+02 1.866081421651772604e-05
6.600300150075037209e+02 1.862380771405667765e-05
6.609304652326162568e+02 1.863029947114211142e-05
6.618309154577287927e+02 1.872415159030064774e-05
6.627313656828414423e+02 1.887881090705703269e-05
6.636318159079539782e+02 1.900769796971321770e-05
6.645322661330665142e+02 1.906783335571244256e-05
6.654327163581790501e+02 1.905514824667047294e-05
6.663331665832915860e+02 1.896539506160239830e-05
6.672336168084041219e+02 1.886570233822039148e-05
6.681340670335167715e+02 1.883036645620787843e-05
6.690345172586293074e+02 1.880861572043508362e-05
6.699349674837418434e+02 1.872483239515745977e-05
6.708354177088543793e+02 1.858383006621710075e-05
6.717358679339669152e+02 1.839911895206749993e-05
6.726363181590794511e+02 1.817675268124732595e-05
6.735367683841921007e+02 1.794068360687643267e-05
6.744372186093046366e+02 1.773958680974739758e-05
6.753376688344171725e+02 1.758444334632742657e-05
6.762381190595297085e+02 1.742605674879635171e-05
6.771385692846422444e+02 1.721959259312251736e-05
6.780390195097548940e+02 1.700978423813559215e-05
6.789394697348674299e+02 1.687873932637791010e-05
6.798399199599799658e+02 1.683879123165033887e-05
6.807403701850925017e+02 1.685984757363449249e-05
6.816408204102050377e+02 1.692192876498042653e-05
6.825412706353175736e+02 1.698792632238953012e-05
6.834417208604302232e+02 1.701194167597770070e-05
6.843421710855427591e+02 1.701240350534435390e-05
6.852426213106552950e+02 1.705765436209971230e-05
6.861430715357678309e+02 1.721205834716782657e-05
6.870435217608803669e+02 1.748161900211901972e-05
6.879439719859930165e+02 1.776546326972263943e-05
6.888444222111055524e+02 1.792271237029698683e-05
6.897448724362180883e+02 1.789180381164377374e-05
6.906453226613306242e+02 1.773736597776487449e-05
6.915457728864431601e+02 1.759344105269213966e-05
6.924462231115556961e+02 1.753826423684841249e-05
6.933466733366683457e+02 1.753371215210390254e-05
6.942471235617808816e+02 1.751111493729253491e-05
6.951475737868934175e+02 1.749488719518598156e-05
6.960480240120059534e+02 1.758669870060496242e-05
6.969484742371184893e+02 1.783922168166099698e-05
6.978489244622311389e+02 1.818811885913762622e-05
6.987493746873436749e+02 1.848485544887449884e-05
6.996498249124562108e+02 1.864389936268174075e-05
7.005502751375687467e+02 1.869353843560055782e-05
7.014507253626812826e+02 1.866852764869886104e-05
7.023511755877938185e+02 1.860252700211975150e-05
7.032516258129064681e+02 1.855501435828034673e-05
7.041520760380190040e+02 1.855831354090909784e-05
7.050525262631315400e+02 1.860161557699919530e-05
7.059529764882440759e+02 1.864879447688597353e-05
7.068534267133566118e+02 1.866289137772954103e-05
7.077538769384691477e+02 1.860894572092876281e-05
7.086543271635817973e+02 1.846613664951469403e-05
7.095547773886943332e+02 1.829098766327617902e-05
7.104552276138068692e+02 1.818487518012527058e-05
7.113556778389194051e+02 1.818937574532365073e-05
7.122561280640319410e+02 1.827152267733892868e-05
7.131565782891445906e+02 1.835540619771121543e-05
7.140570285142571265e+02 1.837461798816190933e-05
7.149574787393696624e+02 1.831861616799053147e-05
7.158579289644821984e+02 1.822696519179572793e-05
7.167583791895947343e+02 1.814599285301254604e-05
7.176588294147072702e+02 1.806855837992529879e-05
7.185592796398199198e+02 1.797145309684532269e-05
7.194597298649324557e+02 1.789325468447438314e-05
7.203601800900449916e+02 1.789656975788713676e-05
7.212606303151575275e+02 1.800059310724988802e-05
7.221610805402700635e+02 1.816769163412532834e-05
7.230615307653827131e+02 1.835999353002177765e-05
7.239619809904952490e+02 1.858354573230797135e-05
7.248624312156077849e+02 1.884931607081299424e-05
7.257628814407203208e+02 1.912178960225736652e-05
7.266633316658328567e+02 1.934701767955201209e-05
7.275637818909453927e+02 1.947472379946425252e-05
7.284642321160580423e+02 1.949443768250113960e-05
7.293646823411705782e+02 1.949507335892893600e-05
7.302651325662831141e+02 1.962707379310971512e-05
7.311655827913956500e+02 1.995345302193258263e-05
7.320660330165081859e+02 2.036353975179582115e-05
7.329664832416207219e+02 2.065906909538152601e-05
7.338669334667333715e+02 2.070944616190882435e-05
7.347673836918459074e+02 2.053093630996173446e-05
7.356678339169584433e+02 2.024728630324424964e-05
7.365682841420709792e+02 1.998106675386722197e-05
7.374687343671835151e+02 1.978456228221186543e-05
7.383691845922961647e+02 1.966043129031525089e-05
7.392696348174087007e+02 1.961418608812790082e-05
7.401700850425212366e+02 1.961645874932865165e-05
7.410705352676337725e+02 1.960227096534182179e-05
7.419709854927463084e+02 1.954731846469495420e-05
7.428714357178588443e+02 1.947313862007752879e-05
7.437718859429714939e+02 1.940719645180932412e-05
7.446723361680840299e+02 1.936447446841743560e-05
7.455727863931965658e+02 1.934382896464072687e-05
7.464732366183091017e+02 1.932496132436963961e-05
7.473736868434216376e+02 1.930861054651949210e-05
7.482741370685342872e+02 1.934487322228347622e-05
7.491745872936468231e+02 1.945988570371363303e-05
7.500750375187593590e+02 1.959964846475386861e-05
7.509754877438718950e+02 1.970207978778418337e-05
7.518759379689844309e+02 1.977082836354863865e-05
7.527763881940969668e+02 1.983494650599793786e-05
7.536768384192096164e+02 1.990486814747238897e-05
7.545772886443221523e+02 1.997629874103201028e-05
7.554777388694346882e+02 2.005226442479869783e-05
7.563781890945472242e+02 2.009049501169327272e-05
7.572786393196597601e+02 2.005192986099386582e-05
7.581790895447722960e+02 1.999931846649606989e-05
7.590795397698849456e+02 2.001365031944289511e-05
7.599799899949974815e+02 2.010874003388923818e-05
7.608804402201100174e+02 2.026185149674559498e-05
7.617808904452225534e+02 2.046774583783368866e-05
7.626813406703350893e+02 2.070683789686655614e-05
7.635817908954477389e+02 2.093791949916684305e-05
7.644822411205602748e+02 2.114284620218047893e-05
7.653826913456728107e+02 2.131540361166596161e-05
7.662831415707853466e+02 2.142851557462841275e-05
7.671835917958978825e+02 2.145794093966695327e-05
7.680840420210104185e+02 2.139954602523304696e-05
7.689844922461230681e+02 2.125683749688759988e-05
7.698849424712356040e+02 2.107766743388902179e-05
7.707853926963481399e+02 2.091877648368649720e-05
7.716858429214606758e+02 2.076455030360574379e-05
7.725862931465732117e+02 2.058945109540480310e-05
7.734867433716858613e+02 2.042830958396413130e-05
7.743871935967983973e+02 2.030950478833531590e-05
7.752876438219109332e+02 2.021853442948834997e-05
7.761880940470234691e+02 2.014664290794463428e-05
7.770885442721360050e+02 2.010682250618113845e-05
7.779889944972485409e+02 2.006591691300913384e-05
7.788894447223611905e+02 1.991473992646995789e-05
7.797898949474737265e+02 1.961116700468971914e-05
7.806903451725862624e+02 1.925202867299147610e-05
7.815907953976987983e+02 1.899134070660173372e-05
7.824912456228113342e+02 1.895594761224754155e-05
7.833916958479238701e+02 1.916632928473185565e-05
7.842921460730365197e+02 1.953685193121295371e-05
7.851925962981490557e+02 1.992493991617597191e-05
7.860930465232615916e+02 2.020013079378149562e-05
7.869934967483741275e+02 2.033890232697140911e-05
7.878939469734866634e+02 2.039327647566139504e-05
7.887943971985993130e+02 2.041164235421577620e-05
7.896948474237118489e+02 2.042595996835436917e-05
7.905952976488243849e+02 2.044097775124426811e-05
7.914957478739369208e+02 2.045081238182123301e-05
7.923961980990494567e+02 2.048743008119509613e-05
7.932966483241619926e+02 2.059930978004429196e-05
7.941970985492746422e+02 2.078597924023043594e-05
7.950975487743871781e+02 2.099319610789087239e-05
7.959979989994997140e+02 2.119019866679722829e-05
7.968984492246122500e+02 2.136273828241371566e-05
7.977988994497247859e+02 2.147977607197319413e-05
7.986993496748374355e+02 2.152375236421357689e-05
7.995997998999499714e+02 2.150454122485428708e-05
8.005002501250625073e+02 2.146840293611461097e-05
8.014007003501750432e+02 2.149674238193632615e-05
8.023011505752875792e+02 2.159566692847897772e-05
8.032016008004001151e+02 2.164913576749623658e-05
8.041020510255127647e+02 2.156512080921494816e-05
8.050025012506253006e+02 2.137315151037038152e-05
8.059029514757378365e+02 2.115533630444802463e-05
8.068034017008503724e+02 2.091553472503653632e-05
8.077038519259629084e+02 2.061762031936797767e-05
8.086043021510754443e+02 2.033096720436753085e-05
8.095047523761880939e+02 2.016759333483252793e-05
8.104052026013006298e+02 2.016850982076447322e-05
8.113056528264131657e+02 2.028062707642565928e-05
8.122061030515257016e+02 2.039358057962912084e-05
8.131065532766382375e+02 2.045154878977377438e-05
8.140070035017508872e+02 2.049251027428327629e-05
8.149074537268634231e+02 2.052987579657561778e-05
8.158079039519759590e+02 2.050138700284465955e-05
8.167083541770884949e+02 2.036356922182897187e-05
8.176088044022010308e+02 2.013288294830139672e-05
8.185092546273135667e+02 1.985655469694758566e-05
8.194097048524262163e+02 1.959464996461370497e-05
8.203101550775387523e+02 1.940070506397573353e-05
8.212106053026512882e+02 1.929725628603999935e-05
8.221110555277638241e+02 1.927023619419491961e-05
8.230115057528763600e+02 1.930075158770271692e-05
8.239119559779890096e+02 1.937668958582646882e-05
8.248124062031015455e+02 1.949467843114011036e-05
8.257128564282140815e+02 1.965653479903033341e-05
8.266133066533266174e+02 1.985078399489399999e-05
8.275137568784391533e+02 2.004589618982833326e-05
8.284142071035516892e+02 2.021597913271613436e-05
8.293146573286643388e+02 2.034429315623702134e-05
8.302151075537768747e+02 2.040747656790001409e-05
8.311155577788894107e+02 2.038162060245381294e-05
8.320160080040019466e+02 2.030916127818087184e-05
8.329164582291144825e+02 2.033065870370215201e-05
8.338169084542270184e+02 2.055387318144888327e-05
8.347173586793396680e+02 2.093073292141533887e-05
8.356178089044522039e+02 2.131524859902564082e-05
8.365182591295647399e+02 2.162749994149408843e-05
8.374187093546772758e+02 2.185393140994324065e-05
8.383191595797898117e+02 2.193458613184500494e-05
8.392196098049024613e+02 2.184332728848344536e-05
8.401200600300149972e+02 2.163630528578407326e-05
8.410205102551275331e+02 2.135686767036344517e-05
8.419209604802400690e+02 2.101906733880019537e-05
8.428214107053526050e+02 2.067017071427446680e-05
8.437218609304651409e+02 2.038568012547637315e-05
8.446223111555777905e+02 2.021883310464560522e-05
8.455227613806903264e+02 2.018792842563940608e-05
8.464232116058028623e+02 2.027671485653864591e-05
8.473236618309153982e+02 2.040957782242053706e-05
8.482241120560279342e+02 2.049737254757817207e-05
8.491245622811405838e+02 2.053617007364246365e-05
8.500250125062531197e+02 2.056366964725964001e-05
8.509254627313656556e+02 2.058365428497028104e-05
8.518259129564781915e+02 2.057722630999592327e-05
8.527263631815907274e+02 2.053684163145219824e-05
8.536268134067032634e+02 2.051522782817073669e-05
8.545272636318159130e+02 2.060005965714908289e-05
8.554277138569284489e+02 2.083721872118285894e-05
8.563281640820409848e+02 2.119470739521211013e-05
8.572286143071535207e+02 2.160008467976928982e-05
8.581290645322660566e+02 2.197539760317381667e-05
8.590295147573785925e+02 2.225998744844014172e-05
8.599299649824912422e+02 2.241424261015601059e-05
8.608304152076037781e+02 2.241329054802604817e-05
8.617308654327163140e+02 2.225791276572284478e-05
8.626313156578288499e+02 2.200382115473200630e-05
8.635317658829413858e+02 2.172992529069385566e-05
8.644322161080540354e+02 2.145555184892348514e-05
8.653326663331665713e+02 2.117293399966664664e-05
8.662331165582791073e+02 2.091546269926827927e-05
8.671335667833916432e+02 2.073818116483180392e-05
8.680340170085041791e+02 2.065387612320495364e-05
8.689344672336167150e+02 2.064110936167824639e-05
8.698349174587293646e+02 2.069789637328569144e-05
8.707353676838419005e+02 2.079765340855304086e-05
8.716358179089544365e+02 2.086080087555180313e-05
8.725362681340669724e+02 2.082760731610872106e-05
8.734367183591795083e+02 2.071301613481849388e-05
8.743371685842921579e+02 2.058435382871045272e-05
8.752376188094046938e+02 2.049581242427354219e-05
8.761380690345172297e+02 2.043025623678609479e-05
8.770385192596297657e+02 2.038314600305673240e-05
8.779389694847423016e+02 2.041526311745156338e-05
8.788394197098548375e+02 2.054941724767977922e-05
8.797398699349674871e+02 2.070872353047689739e-05
8.806403201600800230e+02 2.077074743077013795e-05
8.815407703851925589e+02 2.069719075588006749e-05
8.824412206103050949e+02 2.059201595379337945e-05
8.833416708354176308e+02 2.055618436341438455e-05
8.842421210605301667e+02 2.056171847081912605e-05
8.851425712856428163e+02 2.053955971627576663e-05
8.860430215107553522e+02 2.048375392960318268e-05
8.869434717358678881e+02 2.039803932759799194e-05
8.878439219609804240e+02 2.025058780740502580e-05
8.887443721860929600e+02 2.002591294335966546e-05
8.896448224112056096e+02 1.978952465966412613e-05
8.905452726363181455e+02 1.965862201801501382e-05
8.914457228614306814e+02 1.973662113455992590e-05
8.923461730865432173e+02 2.002470013155808931e-05
8.932466233116557532e+02 2.038273511912764842e-05
8.941470735367682892e+02 2.062924290350157488e-05
8.950475237618809388e+02 2.072310453144079285e-05
8.959479739869934747e+02 2.074822023910183631e-05
8.968484242121060106e+02 2.075715236072524407e-05
8.977488744372185465e+02 2.075832142877275511e-05
8.986493246623310824e+02 2.078823486408030690e-05
8.995497748874437320e+02 2.091792687445890461e-05
9.004502251125562680e+02 2.119016232148982900e-05
9.013506753376688039e+02 2.160847474956367043e-05
9.022511255627813398e+02 2.214448242048351148e-05
9.031515757878938757e+02 2.269676975457058456e-05
9.040520260130064116e+02 2.313422986561026581e-05
9.049524762381190612e+02 2.338946380049669189e-05
9.058529264632315972e+02 2.347274132071886641e-05
9.067533766883441331e+02 2.343959188312279214e-05
9.076538269134566690e+02 2.336371605100142759e-05
9.085542771385692049e+02 2.335031937345828437e-05
9.094547273636817408e+02 2.348113273484360829e-05
9.103551775887943904e+02 2.374518417814067532e-05
9.112556278139069263e+02 2.408321582552585351e-05
9.121560780390194623e+02 2.443622277894849835e-05
9.130565282641319982e+02 2.474223012681823748e-05
9.139569784892445341e+02 2.494851587549221864e-05
9.148574287143571837e+02 2.505322528307358051e-05
9.157578789394697196e+02 2.510907659667055796e-05
9.166583291645822555e+02 2.512445993183922181e-05
9.175587793896947915e+02 2.506228615885579860e-05
9.184592296148073274e+02 2.495302963835467042e-05
9.193596798399198633e+02 2.490099241007730563e-05
9.202601300650325129e+02 2.501883126872255764e-05
9.211605802901450488e+02 2.531398405567401004e-05
9.220610305152575847e+02 2.568199425261836691e-05
9.229614807403701207e+02 2.604223018148158438e-05
9.238619309654826566e+02 2.638324140515164456e-05
9.247623811905953062e+02 2.671693719659865726e-05
9.256628314157078421e+02 2.708314732140650294e-05
9.265632816408203780e+02 2.755708421095220064e-05
9.274637318659329139e+02 2.818425805419148299e-05
9.283641820910454499e+02 2.892328566390396701e-05
9.292646323161579858e+02 2.967456249954231713e-05
9.301650825412706354e+02 3.038049330354264475e-05
9.310655327663831713e+02 3.104085590362053485e-05
9.319659829914957072e+02 3.161008116514786245e-05
9.328664332166082431e+02 3.202891436782790547e-05
9.337668834417207790e+02 3.228726894624544625e-05
9.346673336668334287e+02 3.241501885189428253e-05
9.355677838919459646e+02 3.250575247001582287e-05
9.364682341170585005e+02 3.272143374012932395e-05
9.373686843421710364e+02 3.315261515836960044e-05
9.382691345672835723e+02 3.364818924635896763e-05
9.391695847923961082e+02 3.397650080001770830e-05
9.400700350175087578e+02 3.418008180240586746e-05
9.409704852426212938e+02 3.445655864101290110e-05
9.418709354677338297e+02 3.480741894680652757e-05
9.427713856928463656e+02 3.509356911183628158e-05
9.436718359179589015e+02 3.529937972499523077e-05
9.445722861430714374e+02 3.552577505678346540e-05
9.454727363681840870e+02 3.581385293012127012e-05
9.463731865932966230e+02 3.611678970568000374e-05
9.472736368184091589e+02 3.644192492591543140e-05
9.481740870435216948e+02 3.694937495975220013e-05
9.490745372686342307e+02 3.776792993524887476e-05
9.499749874937468803e+02 3.876269500324482775e-05
9.508754377188594162e+02 3.950237934384687784e-05
9.517758879439719522e+02 3.956338654969839892e-05
9.526763381690844881e+02 3.893652363382849849e-05
9.535767883941970240e+02 3.800592399423262087e-05
9.544772386193095599e+02 3.728836162257369562e-05
9.553776888444222095e+02 3.715483480238440921e-05
9.562781390695347454e+02 3.761449338582246185e-05
9.571785892946472813e+02 3.837156722002216816e-05
9.580790395197598173e+02 3.918567156274433007e-05
9.589794897448723532e+02 4.004920724738064296e-05
9.598799399699850028e+02 4.095478457596063118e-05
9.607803901950975387e+02 4.176297614425282203e-05
9.616808404202100746e+02 4.238236669396692742e-05
9.625812906453226105e+02 4.286085367363439281e-05
9.634817408704351465e+02 4.329351065805515551e-05
9.643821910955476824e+02 4.375117576760002749e-05
9.652826413206603320e+02 4.430696233630465071e-05
9.661830915457728679e+02 4.504472994585920030e-05
9.670835417708854038e+02 4.600170212135679815e-05
9.679839919959979397e+02 4.712540080591635640e-05
9.688844422211104757e+02 4.831551849966104020e-05
9.697848924462230116e+02 4.947711889915103043e-05
9.706853426713356612e+02 5.046705533873592974e-05
9.715857928964481971e+02 5.118565837165074076e-05
9.724862431215607330e+02 5.176072902480769085e-05
9.733866933466732689e+02 5.233940246817611754e-05
9.742871435717858049e+02 5.289197099936038352e-05
9.751875937968984545e+02 5.343837949284404925e-05
9.760880440220109904e+02 5.409494069186375395e-05
9.769884942471235263e+02 5.490101191671743823e-05
9.778889444722360622e+02 5.584488653093668339e-05
9.787893946973485981e+02 5.689835867966360996e-05
9.796898449224611340e+02 5.800734252345915584e-05
9.805902951475737837e+02 5.905733259783273241e-05
9.814907453726863196e+02 5.992679096537575185e-05
9.823911955977988555e+02 6.061175380823028601e-05
9.832916458229113914e+02 6.120029274579216326e-05
9.841920960480239273e+02 6.163343792191160815e-05
9.850925462731365769e+02 6.168388532460237811e-05
9.859929964982491128e+02 6.132597268900549878e-05
9.868934467233616488e+02 6.093212488247790618e-05
9.877938969484741847e+02 6.082873778424337447e-05
9.886943471735867206e+02 6.100822013862333638e-05
9.895947973986992565e+02 6.131610548388014210e-05
9.904952476238119061e+02 6.153703992499931854e-05
9.913956978489244420e+02 6.157598222590901190e-05
9.922961480740369780e+02 6.166109723186877429e-05
9.931965982991495139e+02 6.210383679058599916e-05
9.940970485242620498e+02 6.301149983205487921e-05
9.949974987493745857e+02 6.423705725325981988e-05
9.958979489744872353e+02 6.553261654725921919e-05
9.967983991995997712e+02 6.664793804321154837e-05
9.976988494247123072e+02 6.742889209546040199e-05
9.985992996498248431e+02 6.781795208182154859e-05
9.994997498749373790e+02 6.779289693704211237e-05
1.000400200100050029e+03 6.746700347042672817e-05
1.001300650325162565e+03 6.711782791813417038e-05
1.002201100550275100e+03 6.700031872947348043e-05
1.003101550775387636e+03 6.722738619797207881e-05
1.004002001000500172e+03 6.782868651659572986e-05
1.004902451225612708e+03 6.878144887440793042e-05
1.005802901450725358e+03 6.989116535624886103e-05
1.006703351675837894e+03 7.084057088311055241e-05
1.007603801900950430e+03 7.155220519853800691e-05
1.008504252126062966e+03 7.225359705904659967e-05
1.009404702351175501e+03 7.315551613336452263e-05
1.010305152576288151e+03 7.440127653950373392e-05
1.011205602801400687e+03 7.598058042005635172e-05
1.012106053026513223e+03 7.766828299681393288e-05
1.013006503251625759e+03 7.951978414900622114e-05
1.013906953476738295e+03 8.185543447187769981e-05
1.014807403701850831e+03 8.460047564433059969e-05
1.015707853926963480e+03 8.732357559128522343e-05
1.016608304152076016e+03 8.966212786640626162e-05
1.017508754377188552e+03 9.145456996543561588e-05
1.018409204602301088e+03 9.270625441057586127e-05
1.019309654827413624e+03 9.348396693539847541e-05
1.020210105052526160e+03 9.394810661777316561e-05
1.021110555277638809e+03 9.440402014667129084e-05
1.022011005502751345e+03 9.504466637016861937e-05
1.022911455727863881e+03 9.557849442850421362e-05
1.023811905952976417e+03 9.568065282477762645e-05
1.024712356178089067e+03 9.558519119156839636e-05
1.025612806403201603e+03 9.579611004685922794e-05
1.026513256628314139e+03 9.652277574596413758e-05
1.027413706853426675e+03 9.761504641076843686e-05
1.028314157078539210e+03 9.866373944684117450e-05
1.029214607303651746e+03 9.935188779427672431e-05
1.030115057528764282e+03 9.995384010669457512e-05
1.031015507753876818e+03 1.009716618319519602e-04
1.031915957978989354e+03 1.023580388858382053e-04
1.032816408204101890e+03 1.036282748242194844e-04
1.033716858429214653e+03 1.044520297305534908e-04
1.034617308654327189e+03 1.046880654760056102e-04
1.035517758879439725e+03 1.043913800872129483e-04
1.036418209104552261e+03 1.036181098283358481e-04
1.037318659329664797e+03 1.023041797824486278e-04
1.038219109554777333e+03 1.006643923375686667e-04
1.039119559779889869e+03 9.918647157032554928e-05
1.040020010005002405e+03 9.843216514662874882e-05
1.040920460230114941e+03 9.872476848285585422e-05
1.041820910455227477e+03 9.979587145807692738e-05
1.042721360680340013e+03 1.012390025064864845e-04
1.043621810905452776e+03 1.029602099673177873e-04
1.044522261130565312e+03 1.049217714657918503e-04
1.045422711355677848e+03 1.068947285414309967e-04
1.046323161580790384e+03 1.084748853569551943e-04
1.047223611805902920e+03 1.094193581301087294e-04
1.048124062031015455e+03 1.100053630954990084e-04
1.049024512256127991e+03 1.107734427641087339e-04
1.049924962481240527e+03 1.119201980196697795e-04
1.050825412706353063e+03 1.133916263165417738e-04
1.051725862931465599e+03 1.150629684107195390e-04
1.052626313156578135e+03 1.166525823557224765e-04
1.053526763381690898e+03 1.178921347261914818e-04
1.054427213606803434e+03 1.188248387286404808e-04
1.055327663831915970e+03 1.196982161976480323e-04
1.056228114057028506e+03 1.205936049533749398e-04
1.057128564282141042e+03 1.212732972590438256e-04
1.058029014507253578e+03 1.214550367621169323e-04
1.058929464732366114e+03 1.210704652259567349e-04
1.059829914957478650e+03 1.202410194482781281e-04
1.060730365182591186e+03 1.191080346787836065e-04
1.061630815407703722e+03 1.177763548240546513e-04
1.062531265632816257e+03 1.161565280644500677e-04
1.063431715857929021e+03 1.140141853875051617e-04
1.064332166083041557e+03 1.114644637156100751e-04
1.065232616308154093e+03 1.089614231552635715e-04
1.066133066533266629e+03 1.069172362004527579e-04
1.067033516758379164e+03 1.055423472555322450e-04
1.067933966983491700e+03 1.049218170993426893e-04
1.068834417208604236e+03 1.049051456316560122e-04
1.069734867433716772e+03 1.051577321155289907e-04
1.070635317658829308e+03 1.055351703349160516e-04
1.071535767883941844e+03 1.059874991720177533e-04
1.072436218109054380e+03 1.064138705117253250e-04
1.073336668334167143e+03 1.068516848827162516e-04
1.074237118559279679e+03 1.073610826840305928e-04
1.075137568784392215e+03 1.077313997902722197e-04
1.076038019009504751e+03 1.076808165001822163e-04
1.076938469234617287e+03 1.070722271637312062e-04
1.077838919459729823e+03 1.061432560283848977e-04
1.078739369684842359e+03 1.055406469222160555e-04
1.079639819909954895e+03 1.057496178988993440e-04
1.080540270135067431e+03 1.065458550162986379e-04
1.081440720360179967e+03 1.073551464091812921e-04
1.082341170585292502e+03 1.081908221935524235e-04
1.083241620810405038e+03 1.094248076185750718e-04
1.084142071035517802e+03 1.110143187570088841e-04
1.085042521260630338e+03 1.125751757427450624e-04
1.085942971485742873e+03 1.136532447796100378e-04
1.086843421710855409e+03 1.140036520460564843e-04
1.087743871935967945e+03 1.136630687602094395e-04
1.088644322161080481e+03 1.125904565947228507e-04
1.089544772386193017e+03 1.108448058560731401e-04
1.090445222611305553e+03 1.090085033948249671e-04
1.091345672836418089e+03 1.078937036314788796e-04
1.092246123061530625e+03 1.078877412577224315e-04
1.093146573286643161e+03 1.088140772491883205e-04
1.094047023511755924e+03 1.103169004999033829e-04
1.094947473736868460e+03 1.121890835762837579e-04
1.095847923961980996e+03 1.143128228568243308e-04
1.096748374187093532e+03 1.164149380092764131e-04
1.097648824412206068e+03 1.181474599821887917e-04
1.098549274637318604e+03 1.194730026270528716e-04
1.099449724862431140e+03 1.205115271313479696e-04
1.100350175087543676e+03 1.213566813601270057e-04
1.101250625312656211e+03 1.223450606533835151e-04
1.102151075537768747e+03 1.237102607967365214e-04
1.103051525762881283e+03 1.252275621144855182e-04
1.103951975987994047e+03 1.267011136283707968e-04
1.104852426213106583e+03 1.281968691760806273e-04
1.105752876438219118e+03 1.297898594677366181e-04
1.106653326663331654e+03 1.314871747839029372e-04
1.107553776888444190e+03 1.331390604740366403e-04
1.108454227113556726e+03 1.343876746820030547e-04
1.109354677338669262e+03 1.351960118738308552e-04
1.110255127563781798e+03 1.361333764607896310e-04
1.111155577788894334e+03 1.378369999751228204e-04
1.112056028014006870e+03 1.402818491870363570e-04
1.112956478239119406e+03 1.425073388047170522e-04
1.113856928464232169e+03 1.436118948066441225e-04
1.114757378689344705e+03 1.438497051839210340e-04
1.115657828914457241e+03 1.437851712626198421e-04
1.116558279139569777e+03 1.435135213797396000e-04
1.117458729364682313e+03 1.431932945730407471e-04
1.118359179589794849e+03 1.430250270846346859e-04
1.119259629814907385e+03 1.430237981878884678e-04
1.120160080040019920e+03 1.433098290278963464e-04
1.121060530265132456e+03 1.439958967240761306e-04
1.121960980490244992e+03 1.450118724042086455e-04
1.122861430715357528e+03 1.462157919647109558e-04
1.123761880940470292e+03 1.473899116153232084e-04
1.124662331165582827e+03 1.483950547200226530e-04
1.125562781390695363e+03 1.494565867273836514e-04
1.126463231615807899e+03 1.507265808110936440e-04
1.127363681840920435e+03 1.518584161963350135e-04
1.128264132066032971e+03 1.526106553740731709e-04
1.129164582291145507e+03 1.532599105912984541e-04
1.130065032516258043e+03 1.542952839288207613e-04
1.130965482741370579e+03 1.559917226493626771e-04
1.131865932966483115e+03 1.584816281073067558e-04
1.132766383191595651e+03 1.619102309631563691e-04
1.133666833416708187e+03 1.661758473357383451e-04
1.134567283641820950e+03 1.710678419107796247e-04
1.135467733866933486e+03 1.766906190863338100e-04
1.136368184092046022e+03 1.831107918010687762e-04
1.137268634317158558e+03 1.898609686410749307e-04
1.138169084542271094e+03 1.960786064942695217e-04
1.139069534767383630e+03 2.013880640007404885e-04
1.139969984992496165e+03 2.065205069529175465e-04
1.140870435217608701e+03 2.127902125644963601e-04
1.141770885442721237e+03 2.212454962622720938e-04
1.142671335667833773e+03 2.319234530210369791e-04
1.143571785892946309e+03 2.436547833677422243e-04
1.144472236118059072e+03 2.558319845992952537e-04
1.145372686343171608e+03 2.696252576107102238e-04
1.146273136568284144e+03 2.868871320293129852e-04
1.147173586793396680e+03 3.088423107213729836e-04
1.148074037018509216e+03 3.354752902396675412e-04
1.148974487243621752e+03 3.661420779720184009e-04
1.149874937468734288e+03 4.014110471751530622e-04
1.150775387693846824e+03 4.445526077355585687e-04
1.151675837918959360e+03 4.997504596871130047e-04
1.152576288144071896e+03 5.680409168991346503e-04
1.153476738369184432e+03 6.470111928511029960e-04
1.154377188594297195e+03 7.357058912787783379e-04
1.155277638819409731e+03 8.359403297806229172e-04
1.156178089044522267e+03 9.480825045666237735e-04
1.157078539269634803e+03 1.069274726274211610e-03
1.157978989494747339e+03 1.198065057269799257e-03
1.158879439719859874e+03 1.336032324020445692e-03
1.159779889944972410e+03 1.480970782708273268e-03
1.160680340170084946e+03 1.628039479330710719e-03
1.161580790395197482e+03 1.777581811188136711e-03
1.162481240620310018e+03 1.925482700050719278e-03
1.163381690845422554e+03 2.053219351735799132e-03
1.164282141070535317e+03 2.134333062579824979e-03
1.165182591295647853e+03 2.142130757024184127e-03
1.166083041520760389e+03 2.066026493970524527e-03
1.166983491745872925e+03 1.923794352413207929e-03
1.167883941970985461e+03 1.747628032609069293e-03
1.168784392196097997e+03 1.564222123464838925e-03
1.169684842421210533e+03 1.388246073191573993e-03
1.170585292646323069e+03 1.227639821834335164e-03
1.171485742871435605e+03 1.087530597265998992e-03
1.172386193096548141e+03 9.709602657995214858e-04
1.173286643321660677e+03 8.799155298328963006e-04
1.174187093546773440e+03 8.116432561666550756e-04
1.175087543771885976e+03 7.597239527263366420e-04
1.175987993996998512e+03 7.200931702994559525e-04
1.176888444222111048e+03 6.902334639074682700e-04
1.177788894447223583e+03 6.677466504198811348e-04
1.178689344672336119e+03 6.510039319421779842e-04
1.179589794897448655e+03 6.362652688593440839e-04
1.180490245122561191e+03 6.190224191410499894e-04
1.181390695347673727e+03 5.996421564045140715e-04
1.182291145572786263e+03 5.835317194478923004e-04
1.183191595797898799e+03 5.737556349466926744e-04
1.184092046023011562e+03 5.679262363570777459e-04
1.184992496248124098e+03 5.656055628967578000e-04
1.185892946473236634e+03 5.700298477360998513e-04
1.186793396698349170e+03 5.814298338406017697e-04
1.187693846923461706e+03 5.973150509990516168e-04
1.188594297148574242e+03 6.182657000541783672e-04
1.189494747373686778e+03 6.470377068975988796e-04
1.190395197598799314e+03 6.816359866398319974e-04
1.191295647823911850e+03 7.121125391004520929e-04
1.192196098049024386e+03 7.235329018855500040e-04
1.193096548274136921e+03 7.058127870113668810e-04
1.193996998499249457e+03 6.647771965741594785e-04
1.194897448724362221e+03 6.164014071406157457e-04
1.195797898949474757e+03 5.725245796972099760e-04
1.196698349174587293e+03 5.378837885421168703e-04
1.197598799399699828e+03 5.122720729200116400e-04
1.198499249624812364e+03 4.926149959608067163e-04
1.199399699849924900e+03 4.760768976926423078e-04
1.200300150075037436e+03 4.618189777388360365e-04
1.201200600300149972e+03 4.498988266119263767e-04
1.202101050525262508e+03 4.396032974265463899e-04
1.203001500750375044e+03 4.300307442122938153e-04
1.203901950975487580e+03 4.209348535159015969e-04
1.204802401200600343e+03 4.126791363862839911e-04
1.205702851425712879e+03 4.053844936746847432e-04
1.206603301650825415e+03 3.987958010247264406e-04
1.207503751875937951e+03 3.935308718584397273e-04
1.208404202101050487e+03 3.898169982624191481e-04
1.209304652326163023e+03 3.854958471786567296e-04
1.210205102551275559e+03 3.781605205474093201e-04
1.211105552776388095e+03 3.684231683058854971e-04
1.212006003001500630e+03 3.588021692312974575e-04
1.212906453226613166e+03 3.493877127148443842e-04
1.213806903451725702e+03 3.373206440784048705e-04
1.214707353676838466e+03 3.220534013241226848e-04
1.215607803901951002e+03 3.069526745458302014e-04
1.216508254127063537e+03 2.949221256664120972e-04
1.217408704352176073e+03 2.867012019033639194e-04
1.218309154577288609e+03 2.827608018473288880e-04
1.219209604802401145e+03 2.827144994969634753e-04
1.220110055027513681e+03 2.850538995661596364e-04
1.221010505252626217e+03 2.873089590645490853e-04
1.221910955477738753e+03 2.863474231139705108e-04
1.222811405702851289e+03 2.796887173187773438e-04
1.223711855927963825e+03 2.670663612246759787e-04
1.224612306153076588e+03 2.530349774956359922e-04
1.225512756378189124e+03 2.435249929386573296e-04
1.226413206603301660e+03 2.409083735516971887e-04
1.227313656828414196e+03 2.438547977510440432e-04
1.228214107053526732e+03 2.492758170294804491e-04
1.229114557278639268e+03 2.552313158677360161e-04
1.230015007503751804e+03 2.625132377093947287e-04
1.230915457728864340e+03 2.722872192112639044e-04
1.231815907953976875e+03 2.822788366333919699e-04
1.232716358179089411e+03 2.886727369821165184e-04
1.233616808404201947e+03 2.927516598474045836e-04
1.234517258629314711e+03 2.991628729424856102e-04
1.235417708854427246e+03 3.092796152307208924e-04
1.236318159079539782e+03 3.207178215691105258e-04
1.237218609304652318e+03 3.311935720734624660e-04
1.238119059529764854e+03 3.413616615427026574e-04
1.239019509754877390e+03 3.521026629882772585e-04
1.239919959979989926e+03 3.625935711321642699e-04
1.240820410205102462e+03 3.716763224403815073e-04
1.241720860430214998e+03 3.791117523991040217e-04
1.242621310655327534e+03 3.865909804434903619e-04
1.243521760880440070e+03 3.960917066569307247e-04
1.244422211105552606e+03 4.061971419631052937e-04
1.245322661330665369e+03 4.127968417563767831e-04
1.246223111555777905e+03 4.135558854046774931e-04
1.247123561780890441e+03 4.099974165357799872e-04
1.248024012006002977e+03 4.060533738993915608e-04
1.248924462231115513e+03 4.052246511141943349e-04
1.249824912456228049e+03 4.082172433081593713e-04
1.250725362681340584e+03 4.134278543255309030e-04
1.251625812906453120e+03 4.186017764203857740e-04
1.252526263131565656e+03 4.215648684908930035e-04
1.253426713356678192e+03 4.208198958632632493e-04
1.254327163581790728e+03 4.168577954826432137e-04
1.255227613806903491e+03 4.123808497019907943e-04
1.256128064032016027e+03 4.097760207365065211e-04
1.257028514257128563e+03 4.101591552527649636e-04
1.257928964482241099e+03 4.142476424113554143e-04
1.258829414707353635e+03 4.220138252936439711e-04
1.259729864932466171e+03 4.326055196789735423e-04
1.260630315157578707e+03 4.456118571869370991e-04
1.261530765382691243e+03 4.611381721673511107e-04
1.262431215607803779e+03 4.788351500421091545e-04
1.263331665832916315e+03 4.982063725826339686e-04
1.264232116058028851e+03 5.194572162208981438e-04
1.265132566283141614e+03 5.427881839876764342e-04
1.266033016508254150e+03 5.672753790006910797e-04
1.266933466733366686e+03 5.912954302406841535e-04
1.267833916958479222e+03 6.134385737070857485e-04
1.268734367183591758e+03 6.318380205056678195e-04
1.269634817408704293e+03 6.449925700217308197e-04
1.270535267633816829e+03 6.540988692347507851e-04
1.271435717858929365e+03 6.607563039248269023e-04
1.272336168084041901e+03 6.655470727006737716e-04
1.273236618309154437e+03 6.698162469969187391e-04
1.274137068534266973e+03 6.751422759394846897e-04
1.275037518759379736e+03 6.826501709586129665e-04
1.275937968984492272e+03 6.934545823172691978e-04
1.276838419209604808e+03 7.084831355829638959e-04
1.277738869434717344e+03 7.270371916510851235e-04
1.278639319659829880e+03 7.475981328122851838e-04
1.279539769884942416e+03 7.689434520056464672e-04
1.280440220110054952e+03 7.895185760926405096e-04
1.281340670335167488e+03 8.082978350524344571e-04
1.282241120560280024e+03 8.248944506299977879e-04
1.283141570785392560e+03 8.392004365730347916e-04
1.284042021010505096e+03 8.520028607620575836e-04
1.284942471235617859e+03 8.646909518366094121e-04
1.285842921460730395e+03 8.781708816479544613e-04
1.286743371685842931e+03 8.915871664901448045e-04
1.287643821910955467e+03 9.030525577323678848e-04
1.288544272136068003e+03 9.117983381004916279e-04
1.289444722361180538e+03 9.181339227679925644e-04
1.290345172586293074e+03 9.227852299744137210e-04
1.291245622811405610e+03 9.269489968295735590e-04
1.292146073036518146e+03 9.312821099555760760e-04
1.293046523261630682e+03 9.360079965669677133e-04
1.293946973486743218e+03 9.421012661159680049e-04
1.294847423711855754e+03 9.486638068326840858e-04
1.295747873936968517e+03 9.526354417551265814e-04
1.296648324162081053e+03 9.530461298032292909e-04
1.297548774387193589e+03 9.524399107790819472e-04
1.298449224612306125e+03 9.545153416746516434e-04
1.299349674837418661e+03 9.609841546247566970e-04
1.300250125062531197e+03 9.706251560647576049e-04
1.301150575287643733e+03 9.813940423731622870e-04
1.302051025512756269e+03 9.921728277179882663e-04
1.302951475737868805e+03 1.003085429967698946e-03
1.303851925962981340e+03 1.015108085346638420e-03
1.304752376188093876e+03 1.028394821578361949e-03
1.305652826413206640e+03 1.041775691528648790e-03
1.306553276638319176e+03 1.054051446481436751e-03
1.307453726863431712e+03 1.064336938417712172e-03
1.308354177088544247e+03 1.072879900487522763e-03
1.309254627313656783e+03 1.081438932726306017e-03
1.310155077538769319e+03 1.091046429250252777e-03
1.311055527763881855e+03 1.100964990289854308e-03
1.311955977988994391e+03 1.111895517804069268e-03
1.312856428214106927e+03 1.126615908878054713e-03
1.313756878439219463e+03 1.146059082161816033e-03
1.314657328664331999e+03 1.169274338332578411e-03
1.315557778889444762e+03 1.196069097057904157e-03
1.316458229114557298e+03 1.226102790366810375e-03
1.317358679339669834e+03 1.256721055194645652e-03
1.318259129564782370e+03 1.284458546429302237e-03
1.319159579789894906e+03 1.308259441353694028e-03
1.320060030015007442e+03 1.328946399542509441e-03
1.320960480240119978e+03 1.348162806907845417e-03
1.321860930465232514e+03 1.368496958910243606e-03
1.322761380690345050e+03 1.391896009317112942e-03
1.323661830915457585e+03 1.419883144369937485e-03
1.324562281140570121e+03 1.454082961829094656e-03
1.325462731365682885e+03 1.495346851458962192e-03
1.326363181590795421e+03 1.542809559883376444e-03
1.327263631815907956e+03 1.593513090936672216e-03
1.328164082041020492e+03 1.645582057341577267e-03
1.329064532266133028e+03 1.699875346424938646e-03
1.329964982491245564e+03 1.758845437303902057e-03
1.330865432716358100e+03 1.823801009507929278e-03
1.331765882941470636e+03 1.890992109281011734e-03
1.332666333166583172e+03 1.953900467201936594e-03
1.333566783391695708e+03 2.010130696283859292e-03
1.334467233616808244e+03 2.064388687906102207e-03
1.335367683841921007e+03 2.124666187130155003e-03
1.336268134067033543e+03 2.195867782055238061e-03
1.337168584292146079e+03 2.277697477242356279e-03
1.338069034517258615e+03 2.363603724360434193e-03
1.338969484742371151e+03 2.444964364615312760e-03
1.339869934967483687e+03 2.520450065853277726e-03
1.340770385192596223e+03 2.592399295156406699e-03
1.341670835417708759e+03 2.664171659508661558e-03
1.342571285642821294e+03 2.742239418486232694e-03
1.343471735867933830e+03 2.829072477919990659e-03
1.344372186093046366e+03 2.921834294441609872e-03
1.345272636318158902e+03 3.018434463890779917e-03
1.346173086543271666e+03 3.122035432253629159e-03
1.347073536768384201e+03 3.238587709875874899e-03
1.347973986993496737e+03 3.368442048478027719e-03
1.348874437218609273e+03 3.505405633946962699e-03
1.349774887443721809e+03 3.642903406712356788e-03
1.350675337668834345e+03 3.773473726349443544e-03
1.351575787893946881e+03 3.892961311813401826e-03
1.352476238119059417e+03 4.006079305210235621e-03
1.353376688344171953e+03 4.122377918877821040e-03
1.354277138569284489e+03 4.249252411824896471e-03
1.355177588794397025e+03 4.390220969602755957e-03
1.356078039019509788e+03 4.547732629512525951e-03
1.356978489244622324e+03 4.723582875927228794e-03
1.357878939469734860e+03 4.916917043101124915e-03
1.358779389694847396e+03 5.124571044835882910e-03
1.359679839919959932e+03 5.336051432696726181e-03
1.360580290145072468e+03 5.538496342961299508e-03
1.361480740370185003e+03 5.731708435694316851e-03
1.362381190595297539e+03 5.927830099230268351e-03
1.363281640820410075e+03 6.139628090272671555e-03
1.364182091045522611e+03 6.371117459519223813e-03
1.365082541270635147e+03 6.618367195887421735e-03
1.365982991495747910e+03 6.878527826077237596e-03
1.366883441720860446e+03 7.149502858881192149e-03
1.367783891945972982e+03 7.428255215150356659e-03
1.368684342171085518e+03 7.717031757120773258e-03
1.369584792396198054e+03 8.024150847330904085e-03
1.370485242621310590e+03 8.357554538782710832e-03
1.371385692846423126e+03 8.711037463133052342e-03
1.372286143071535662e+03 9.059256323773174843e-03
1.373186593296648198e+03 9.386954107198563699e-03
1.374087043521760734e+03 9.710896435010579753e-03
1.374987493746873270e+03 1.005003181981488185e-02
1.375887943971986033e+03 1.039905517868632868e-02
1.376788394197098569e+03 1.075986940547307008e-02
1.377688844422211105e+03 1.116615386624790658e-02
1.378589294647323641e+03 1.163069248985649715e-02
1.379489744872436177e+03 1.212277628397820037e-02
1.380390195097548713e+03 1.262594679622634601e-02
1.381290645322661248e+03 1.314305864817276286e-02
1.382191095547773784e+03 1.366819212572453063e-02
1.383091545772886320e+03 1.421043381717926671e-02
1.383991995997998856e+03 1.479171975055343542e-02
1.384892446223111392e+03 1.540045328558617595e-02
1.385792896448224155e+03 1.600548708922987576e-02
1.386693346673336691e+03 1.661988335448150514e-02
1.387593796898449227e+03 1.731289828318938531e-02
1.388494247123561763e+03 1.817792183718513338e-02
1.389394697348674299e+03 1.929243678138000198e-02
1.390295147573786835e+03 2.067040680049259463e-02
1.391195597798899371e+03 2.225761192254847518e-02
1.392096048024011907e+03 2.399328618755107445e-02
1.392996498249124443e+03 2.582903831339461789e-02
1.393896948474236979e+03 2.771308896205587971e-02
1.394797398699349515e+03 2.962494950736562632e-02
1.395697848924462278e+03 3.165067643596863878e-02
1.396598299149574814e+03 3.387470402717597528e-02
1.397498749374687350e+03 3.613347485637974366e-02
1.398399199599799886e+03 3.813550249213545906e-02
1.399299649824912422e+03 3.969467610461022838e-02
1.400200100050024957e+03 4.068185615940610872e-02
1.401100550275137493e+03 4.094477103949392682e-02
1.402001000500250029e+03 4.042491582151899049e-02
1.402901450725362565e+03 3.928047748515004628e-02
1.403801900950475101e+03 3.780464105069075709e-02
1.404702351175587637e+03 3.624037091444873987e-02
1.405602801400700173e+03 3.469110555061952206e-02
1.406503251625812936e+03 3.319971982451689479e-02
1.407403701850925472e+03 3.184336249556212611e-02
1.408304152076038008e+03 3.065920586120216701e-02
1.409204602301150544e+03 2.954370727114760675e-02
1.410105052526263080e+03 2.842682175815595957e-02
1.411005502751375616e+03 2.736732993219734289e-02
1.411905952976488152e+03 2.641648906622897502e-02
1.412806403201600688e+03 2.554846025442962867e-02
1.413706853426713224e+03 2.468420554514280663e-02
1.414607303651825760e+03 2.380683630494811673e-02
1.415507753876938295e+03 2.298458769687982545e-02
1.416408204102051059e+03 2.224744140638015150e-02
1.417308654327163595e+03 2.154825781393192308e-02
1.418209104552276131e+03 2.082986965438329147e-02
1.419109554777388666e+03 2.007845742712818793e-02
1.420010005002501202e+03 1.929055972657581913e-02
1.420910455227613738e+03 1.846417630897994808e-02
1.421810905452726274e+03 1.763696397867571194e-02
1.422711355677838810e+03 1.682911037366588425e-02
1.423611805902951346e+03 1.602260650064176936e-02
1.424512256128063882e+03 1.524326132199021501e-02
1.425412706353176418e+03 1.452665034278753479e-02
1.426313156578289181e+03 1.386353383801609482e-02
1.427213606803401717e+03 1.321201728857058534e-02
1.428114057028514253e+03 1.251791131942896207e-02
1.429014507253626789e+03 1.176930190364133474e-02
1.429914957478739325e+03 1.101603376549181723e-02
1.430815407703851861e+03 1.031605626858980718e-02
1.431715857928964397e+03 9.696164520879922699e-03
1.432616308154076933e+03 9.152530505782456582e-03
1.433516758379189469e+03 8.679085961932786475e-03
1.434417208604302004e+03 8.271928488100852711e-03
1.435317658829414540e+03 7.920966660234477971e-03
1.436218109054527304e+03 7.607958949312937889e-03
1.437118559279639840e+03 7.298849042866259636e-03
1.438019009504752376e+03 6.968864097554602378e-03
1.438919459729864911e+03 6.642637970335140210e-03
1.439819909954977447e+03 6.358462393658722428e-03
1.440720360180089983e+03 6.116452783821817868e-03
1.441620810405202519e+03 5.896871925304880170e-03
1.442521260630315055e+03 5.694782423069523654e-03
1.443421710855427591e+03 5.511067390332455296e-03
1.444322161080540127e+03 5.338476902038732756e-03
1.445222611305652663e+03 5.172957134800585353e-03
1.446123061530765426e+03 5.020056939538037818e-03
1.447023511755877962e+03 4.883778005673460043e-03
1.447923961980990498e+03 4.756963460298224353e-03
1.448824412206103034e+03 4.623926141596664506e-03
1.449724862431215570e+03 4.475422062617351142e-03
1.450625312656328106e+03 4.323123924711545947e-03
1.451525762881440642e+03 4.184164154933976872e-03
1.452426213106553178e+03 4.056405777113758666e-03
1.453326663331665713e+03 3.926881173615150156e-03
1.454227113556778249e+03 3.789488826944062416e-03
1.455127563781890785e+03 3.646134373290612924e-03
1.456028014007003321e+03 3.506012917308960752e-03
1.456928464232116085e+03 3.376764869228895440e-03
1.457828914457228620e+03 3.261660538523007431e-03
1.458729364682341156e+03 3.161076901517780209e-03
1.459629814907453692e+03 3.067486626003405274e-03
1.460530265132566228e+03 2.975884849561636573e-03
1.461430715357678764e+03 2.892089392346682518e-03
1.462331165582791300e+03 2.822851317508404036e-03
1.463231615807903836e+03 2.765082640651454933e-03
1.464132066033016372e+03 2.709634923936513496e-03
1.465032516258128908e+03 2.648605026900158373e-03
1.465932966483241444e+03 2.579738537192713312e-03
1.466833416708354207e+03 2.503087338031155778e-03
1.467733866933466743e+03 2.420503397416833447e-03
1.468634317158579279e+03 2.341233584428502410e-03
1.469534767383691815e+03 2.274575650940486009e-03
1.470435217608804351e+03 2.219832723809496422e-03
1.471335667833916887e+03 2.170007762740663003e-03
1.472236118059029423e+03 2.117348865556786201e-03
1.473136568284141958e+03 2.056942133234791227e-03
1.474037018509254494e+03 1.990110385939975086e-03
1.474937468734367030e+03 1.920433394931278905e-03
1.475837918959479566e+03 1.850766011502407099e-03
1.476738369184592329e+03 1.781546101039843981e-03
1.477638819409704865e+03 1.710800473745694317e-03
1.478539269634817401e+03 1.639910760709773017e-03
1.479439719859929937e+03 1.574477092314851201e-03
1.480340170085042473e+03 1.518139303319862446e-03
1.481240620310155009e+03 1.468245522888594152e-03
1.482141070535267545e+03 1.420744506720985961e-03
1.483041520760380081e+03 1.374515892623020836e-03
1.483941970985492617e+03 1.331255312542896016e-03
1.484842421210605153e+03 1.292463669280013343e-03
1.485742871435717689e+03 1.257921460958905113e-03
1.486643321660830452e+03 1.227590617260824026e-03
1.487543771885942988e+03 1.200731592000452803e-03
1.488444222111055524e+03 1.175166567655981523e-03
1.489344672336168060e+03 1.149386624666563989e-03
1.490245122561280596e+03 1.124098629540161562e-03
1.491145572786393132e+03 1.099158676759610627e-03
1.492046023011505667e+03 1.074220289361000951e-03
1.492946473236618203e+03 1.051266531092337345e-03
1.493846923461730739e+03 1.032629246341786565e-03
1.494747373686843275e+03 1.019767841123350857e-03
1.495647823911955811e+03 1.011465694277872626e-03
1.496548274137068574e+03 1.004725669950853406e-03
1.497448724362181110e+03 9.982387106912678047e-04
1.498349174587293646e+03 9.922162930148126919e-04
1.499249624812406182e+03 9.860039186491973470e-04
1.500150075037518718e+03 9.783023738174690710e-04
1.501050525262631254e+03 9.683430673055019736e-04
1.501950975487743790e+03 9.561779831597673604e-04
1.502851425712856326e+03 9.431106503873949156e-04
1.503751875937968862e+03 9.311357565796909682e-04
1.504652326163081398e+03 9.201552214431286741e-04
1.505552776388193934e+03 9.084464350906192769e-04
1.506453226613306470e+03 8.949881870069369442e-04
1.507353676838419233e+03 8.802126916190340785e-04
1.508254127063531769e+03 8.650287371527544183e-04
1.509154577288644305e+03 8.498792999414615324e-04
1.510055027513756841e+03 8.359195473106417577e-04
1.510955477738869376e+03 8.238761750013562585e-04
1.511855927963981912e+03 8.126603413844451151e-04
1.512756378189094448e+03 8.012793554552207148e-04
1.513656828414206984e+03 7.914086613307411014e-04
1.514557278639319520e+03 7.853354113193441056e-04
1.515457728864432056e+03 7.824384695244646559e-04
1.516358179089544592e+03 7.794275066394802231e-04
1.517258629314657355e+03 7.730738278976683787e-04
1.518159079539769891e+03 7.640863432446654132e-04
1.519059529764882427e+03 7.548382114504277769e-04
1.519959979989994963e+03 7.461376569047104392e-04
1.520860430215107499e+03 7.385492044700464912e-04
1.521760880440220035e+03 7.329110416784619412e-04
1.522661330665332571e+03 7.296145494832013013e-04
1.523561780890445107e+03 7.283584547978005702e-04
1.524462231115557643e+03 7.285204027485785985e-04
1.525362681340670179e+03 7.298540902467905590e-04
1.526263131565782714e+03 7.329049863457419954e-04
1.527163581790895478e+03 7.387469093528446296e-04
1.528064032016008014e+03 7.495507581423326363e-04
1.528964482241120550e+03 7.665991721957984969e-04
1.529864932466233086e+03 7.865977922584508914e-04
1.530765382691345621e+03 8.024011235170037037e-04
1.531665832916458157e+03 8.079339347765012586e-04
1.532566283141570693e+03 8.038430954080221348e-04
1.533466733366683229e+03 7.966926289763500563e-04
1.534367183591795765e+03 7.915461521036967849e-04
1.535267633816908301e+03 7.874557508470995037e-04
1.536168084042020837e+03 7.809581890771875000e-04
1.537068534267133600e+03 7.706610852465454586e-04
1.537968984492246136e+03 7.570590674567314205e-04
1.538869434717358672e+03 7.428435526061496173e-04
1.539769884942471208e+03 7.325062469195441203e-04
1.540670335167583744e+03 7.283390755405870715e-04
1.541570785392696280e+03 7.292199479087565052e-04
1.542471235617808816e+03 7.328037300226322671e-04
1.543371685842921352e+03 7.363824181086554973e-04
1.544272136068033888e+03 7.383884558508118289e-04
1.545172586293146423e+03 7.388392464505426230e-04
1.546073036518258959e+03 7.370344365837915978e-04
1.546973486743371723e+03 7.326022053741386517e-04
1.547873936968484259e+03 7.278343611763981539e-04
1.548774387193596795e+03 7.254244072623402921e-04
1.549674837418709330e+03 7.262697518819107717e-04
1.550575287643821866e+03 7.297487477106351676e-04
1.551475737868934402e+03 7.336451077172097181e-04
1.552376188094046938e+03 7.351374136890697275e-04
1.553276638319159474e+03 7.322933356732367824e-04
1.554177088544272010e+03 7.256035516550347073e-04
1.555077538769384546e+03 7.175351187466444012e-04
1.555977988994497082e+03 7.099600400900739870e-04
1.556878439219609618e+03 7.033395089259055237e-04
1.557778889444722381e+03 6.979964931210459397e-04
1.558679339669834917e+03 6.952226996742500754e-04
1.559579789894947453e+03 6.960400207660143255e-04
1.560480240120059989e+03 6.982990322476280605e-04
1.561380690345172525e+03 6.978154011444445519e-04
1.562281140570285061e+03 6.925277717856060918e-04
1.563181590795397597e+03 6.831250458354454951e-04
1.564082041020510133e+03 6.729006515117441157e-04
1.564982491245622668e+03 6.671374558092857615e-04
1.565882941470735204e+03 6.688346963736962157e-04
1.566783391695847740e+03 6.771294919254774048e-04
1.567683841920960504e+03 6.903037585754273750e-04
1.568584292146073039e+03 7.058408781488538768e-04
1.569484742371185575e+03 7.224014677276704077e-04
1.570385192596298111e+03 7.433662399579810814e-04
1.571285642821410647e+03 7.718598938983691274e-04
1.572186093046523183e+03 8.078051630430412890e-04
1.573086543271635719e+03 8.475763836062607474e-04
1.573986993496748255e+03 8.819345498040435634e-04
1.574887443721860791e+03 8.971236118411565113e-04
1.575787893946973327e+03 8.810368287953881938e-04
1.576688344172085863e+03 8.345830359556697178e-04
1.577588794397198626e+03 7.654944903294281285e-04
1.578489244622311162e+03 6.758640863907068499e-04
1.579389694847423698e+03 5.722728483358460955e-04
1.580290145072536234e+03 4.718310521569145052e-04
1.581190595297648770e+03 3.883816068590394545e-04
1.582091045522761306e+03 3.237568681524075152e-04
1.582991495747873842e+03 2.737946242647500291e-04
1.583891945972986377e+03 2.351008078705579081e-04
1.584792396198098913e+03 2.053653982752602343e-04
1.585692846423211449e+03 1.824597022606039938e-04
1.586593296648323985e+03 1.645656632357366293e-04
1.587493746873436749e+03 1.503211047639192190e-04
1.588394197098549284e+03 1.387631692814271457e-04
1.589294647323661820e+03 1.292189040124377248e-04
1.590195097548774356e+03 1.212135697864934116e-04
1.591095547773886892e+03 1.144066116143341858e-04
1.591995997998999428e+03 1.085492038664784612e-04
1.592896448224111964e+03 1.034563147144411735e-04
1.593796898449224500e+03 9.898816139553487099e-05
1.594697348674337036e+03 9.503772339001498163e-05
1.595597798899449572e+03 9.152221474627319532e-05
1.596498249124562108e+03 8.837720110865567296e-05
1.597398699349674871e+03 8.555253884490312882e-05
1.598299149574787407e+03 8.300962872045698077e-05
1.599199599799899943e+03 8.071969059010983456e-05
1.600100050025012479e+03 7.866292911897495384e-05
1.601000500250125015e+03 7.682861139686635228e-05
1.601900950475237551e+03 7.521624800246324422e-05
1.602801400700350086e+03 7.383828281207877563e-05
1.603701850925462622e+03 7.272491960951354257e-05
1.604602301150575158e+03 7.193162947102666707e-05
1.605502751375687694e+03 7.154800309755330115e-05
1.606403201600800230e+03 7.169727549753479373e-05
1.607303651825912766e+03 7.248310667262184359e-05
1.608204102051025529e+03 7.377506691634127395e-05
1.609104552276138065e+03 7.481712230154317271e-05
1.610005002501250601e+03 7.440784005859608463e-05
1.610905452726363137e+03 7.233974478686851716e-05
1.611805902951475673e+03 6.977704305847205030e-05
1.612706353176588209e+03 6.774402303916636655e-05
1.613606803401700745e+03 6.636749005936695743e-05
1.614507253626813281e+03 6.504853748404219567e-05
1.615407703851925817e+03 6.311769729748018583e-05
1.616308154077038353e+03 6.068341826163016625e-05
1.617208604302150889e+03 5.830764592361620502e-05
1.618109054527263652e+03 5.628258297687830004e-05
1.619009504752376188e+03 5.461618837809251018e-05
1.619909954977488724e+03 5.322897099425053224e-05
1.620810405202601260e+03 5.204384583318643980e-05
1.621710855427713796e+03 5.100429097734129701e-05
1.622611305652826331e+03 5.007173402724922952e-05
1.623511755877938867e+03 4.922011203076460197e-05
1.624412206103051403e+03 4.843158232008922730e-05
1.625312656328163939e+03 4.769365941851049699e-05
1.626213106553276475e+03 4.699738752280784693e-05
1.627113556778389011e+03 4.633617998622827148e-05
1.628014007003501774e+03 4.570507457198356776e-05
1.628914457228614310e+03 4.510024734604636679e-05
1.629814907453726846e+03 4.451868918393994120e-05
1.630715357678839382e+03 4.395798617188839257e-05
1.631615807903951918e+03 4.341616760137047780e-05
1.632516258129064454e+03 4.289159876642844053e-05
1.633416708354176990e+03 4.238290400634900118e-05
1.634317158579289526e+03 4.188891052936454190e-05
1.635217608804402062e+03 4.140860675596441507e-05
1.636118059029514598e+03 4.094111096911934392e-05
1.637018509254627133e+03 4.048564739119685343e-05
1.637918959479739897e+03 4.004152768811494988e-05
1.638819409704852433e+03 3.960813649258623331e-05
1.639719859929964969e+03 3.918491994116537564e-05
1.640620310155077505e+03 3.877137649812277022e-05
1.641520760380190040e+03 3.836704953404774208e-05
1.642421210605302576e+03 3.797152126520006422e-05
1.643321660830415112e+03 3.758440775873694330e-05
1.644222111055527648e+03 3.720535478082242353e-05
1.645122561280640184e+03 3.683403431733253827e-05
1.646023011505752720e+03 3.647014163590258599e-05
1.646923461730865256e+03 3.611339278725833732e-05
1.647823911955978019e+03 3.576352246579219725e-05
1.648724362181090555e+03 3.542028216611025682e-05
1.649624812406203091e+03 3.508343858514340513e-05
1.650525262631315627e+03 3.475277222937633284e-05
1.651425712856428163e+03 3.442807619449329734e-05
1.652326163081540699e+03 3.410915509085040819e-05
1.653226613306653235e+03 3.379582409297832369e-05
1.654127063531765771e+03 3.348790809517585785e-05
1.655027513756878307e+03 3.318524095830871392e-05
1.655927963981990843e+03 3.288766483541080997e-05
1.656828414207103378e+03 3.259502956569084689e-05
1.657728864432216142e+03 3.230719212818804117e-05
1.658629314657328678e+03 3.202401614764956644e-05
1.659529764882441214e+03 3.174537144632823981e-05
1.660430215107553749e+03 3.147113363629599624e-05
1.661330665332666285e+03 3.120118374764673164e-05
1.662231115557778821e+03 3.093540788859051931e-05
1.663131565782891357e+03 3.067369693398426723e-05
1.664032016008003893e+03 3.041594623929306593e-05
1.664932466233116429e+03 3.016205537736056481e-05
1.665832916458228965e+03 2.991192789569733929e-05
1.666733366683341501e+03 2.966547109226994828e-05
1.667633816908454037e+03 2.942259580801517225e-05
1.668534267133566800e+03 2.918321623451423347e-05
1.669434717358679336e+03 2.894724973543316853e-05
1.670335167583791872e+03 2.871461668049157711e-05
1.671235617808904408e+03 2.848524029086480441e-05
1.672136068034016944e+03 2.825904649502520831e-05
1.673036518259129480e+03 2.803596379414963378e-05
1.673936968484242016e+03 2.781592313629505716e-05
1.674837418709354552e+03 2.759885779863048617e-05
1.675737868934467087e+03 2.738470327708601246e-05
1.676638319159579623e+03 2.717339718283164309e-05
1.677538769384692159e+03 2.696487914506608043e-05
1.678439219609804923e+03 2.675909071963264473e-05
1.679339669834917459e+03 2.655597530303387648e-05
1.680240120060029994e+03 2.635547805144245064e-05
1.681140570285142530e+03 2.615754580435693841e-05
1.682041020510255066e+03 2.596212701256413511e-05
1.682941470735367602e+03 2.576917167011508092e-05
1.683841920960480138e+03 2.557863125003225486e-05
1.684742371185592674e+03 2.539045864349748812e-05
1.685642821410705210e+03 2.520460810228861463e-05
1.686543271635817746e+03 2.502103518425009195e-05
1.687443721860930282e+03 2.483969670159833661e-05
1.688344172086043045e+03 2.466055067188260594e-05
1.689244622311155581e+03 2.448355627143345637e-05
1.690145072536268117e+03 2.430867379113968525e-05
1.691045522761380653e+03 2.413586459441539821e-05
1.691945972986493189e+03 2.396509107721908510e-05
1.692846423211605725e+03 2.379631663000472379e-05
1.693746873436718261e+03 2.362950560148736748e-05
1.694647323661830796e+03 2.346462326411980634e-05
1.695547773886943332e+03 2.330163578117685360e-05
1.696448224112055868e+03 2.314051017535962896e-05
1.697348674337168404e+03 2.298121429882989776e-05
1.698249124562281168e+03 2.282371680459717949e-05
1.699149574787393703e+03 2.266798711918030539e-05
1.700050025012506239e+03 2.251399541647747864e-05
1.700950475237618775e+03 2.236171259277666448e-05
1.701850925462731311e+03 2.221111024284476155e-05
1.702751375687843847e+03 2.206216063704099863e-05
1.703651825912956383e+03 2.191483669939776842e-05
1.704552276138068919e+03 2.176911198662014982e-05
1.705452726363181455e+03 2.162496066795628177e-05
1.706353176588293991e+03 2.148235750589493588e-05
1.707253626813406527e+03 2.134127783764799385e-05
1.708154077038519290e+03 2.120169755737753460e-05
1.709054527263631826e+03 2.106359309913302639e-05
1.709954977488744362e+03 2.092694142046208636e-05
1.710855427713856898e+03 2.079171998666303346e-05
1.711755877938969434e+03 2.065790675564673599e-05
1.712656328164081970e+03 2.052548016338114997e-05
1.713556778389194506e+03 2.039441910988952234e-05
1.714457228614307041e+03 2.026470294577661075e-05
1.715357678839419577e+03 2.013631145925783087e-05
1.716258129064532113e+03 2.000922486366985047e-05
1.717158579289644649e+03 1.988342378543953668e-05
1.718059029514757185e+03 1.975888925249008078e-05
1.718959479739869948e+03 1.963560268306657020e-05
1.719859929964982484e+03 1.951354587496038776e-05
1.720760380190095020e+03 1.939270099511641214e-05
1.721660830415207556e+03 1.927305056960435453e-05
1.722561280640320092e+03 1.915457747394232868e-05
1.723461730865432628e+03 1.903726492375274945e-05
1.724362181090545164e+03 1.892109646573983603e-05
1.725262631315657700e+03 1.880605596897370733e-05
1.726163081540770236e+03 1.869212761646945483e-05
1.727063531765882772e+03 1.857929589704661051e-05
1.727963981990995308e+03 1.846754559745993627e-05
1.728864432216108071e+03 1.835686179479045926e-05
1.729764882441220607e+03 1.824722984908265828e-05
1.730665332666333143e+03 1.813863539622303091e-05
1.731565782891445679e+03 1.803106434104658360e-05
1.732466233116558215e+03 1.792450285066364188e-05
1.733366683341670750e+03 1.781893734799910314e-05
1.734267133566783286e+03 1.771435450553328665e-05
1.735167583791895822e+03 1.761074123924020329e-05
1.736068034017008358e+03 1.750808470271215218e-05
1.736968484242120894e+03 1.740637228146647337e-05
1.737868934467233430e+03 1.730559158742465153e-05
1.738769384692346193e+03 1.720573045356062284e-05
1.739669834917458729e+03 1.710677692870883572e-05
1.740570285142571265e+03 1.700871927252823338e-05
1.741470735367683801e+03 1.691154595061605280e-05
1.742371185592796337e+03 1.681524562976446395e-05
1.743271635817908873e+03 1.671980717335749456e-05
1.744172086043021409e+03 1.662521963690086121e-05
1.745072536268133945e+03 1.653147226368156580e-05
1.745972986493246481e+03 1.643855448055093869e-05
1.746873436718359017e+03 1.634645589382963075e-05
1.747773886943471553e+03 1.625516628532608081e-05
1.748674337168584316e+03 1.616467560846929525e-05
1.749574787393696852e+03 1.607497398454805902e-05
1.750475237618809388e+03 1.598605169905497535e-05
1.751375687843921924e+03 1.589789919813161084e-05
1.752276138069034459e+03 1.581050708511049020e-05
1.753176588294146995e+03 1.572386611715140983e-05
1.754077038519259531e+03 1.563796720196896330e-05
1.754977488744372067e+03 1.555280139464794141e-05
1.755877938969484603e+03 1.546835989454287992e-05
1.756778389194597139e+03 1.538463404226174131e-05
1.757678839419709675e+03 1.530161531672705267e-05
1.758579289644822438e+03 1.521929533231620558e-05
1.759479739869934974e+03 1.513766583607410107e-05
1.760380190095047510e+03 1.505671870500031316e-05
1.761280640320160046e+03 1.497644594340368975e-05
1.762181090545272582e+03 1.489683968032705401e-05
1.763081540770385118e+03 1.481789216703528919e-05
1.763981990995497654e+03 1.473959577456886352e-05
1.764882441220610190e+03 1.466194299135735045e-05
1.765782891445722726e+03 1.458492642089342369e-05
1.766683341670835262e+03 1.450853877946510944e-05
1.767583791895947797e+03 1.443277289394275184e-05
1.768484242121060333e+03 1.435762169962160150e-05
1.769384692346173097e+03 1.428307823811687925e-05
1.770285142571285633e+03 1.420913565530972638e-05
1.771185592796398169e+03 1.413578719934300438e-05
1.772086043021510704e+03 1.406302621866519435e-05
1.772986493246623240e+03 1.399084616012151672e-05
1.773886943471735776e+03 1.391924056708976596e-05
1.774787393696848312e+03 1.384820307766064999e-05
1.775687843921960848e+03 1.377772742286132322e-05
1.776588294147073384e+03 1.370780742491959752e-05
1.777488744372185920e+03 1.363843699556945622e-05
1.778389194597298456e+03 1.356961013439519781e-05
1.779289644822411219e+03 1.350132092721433662e-05
1.780190095047523755e+03 1.343356354449722392e-05
1.781090545272636291e+03 1.336633223982244780e-05
1.781990995497748827e+03 1.329962134836808287e-05
1.782891445722861363e+03 1.323342528543610289e-05
1.783791895947973899e+03 1.316773854501114748e-05
1.784692346173086435e+03 1.310255569834998866e-05
1.785592796398198971e+03 1.303787139260327944e-05
1.786493246623311506e+03 1.297368034946860716e-05
1.787393696848424042e+03 1.290997736387136334e-05
1.788294147073536578e+03 1.284675730267588643e-05
1.789194597298649342e+03 1.278401510342446702e-05
1.790095047523761878e+03 1.272174577310374250e-05
1.790995497748874413e+03 1.265994438693729572e-05
1.791895947973986949e+03 1.259860608720503673e-05
1.792796398199099485e+03 1.253772608208714000e-05
1.793696848424212021e+03 1.247729964453336726e-05
1.794597298649324557e+03 1.241732211115527210e-05
1.795497748874437093e+03 1.235778888114322086e-05
1.796398199099549629e+03 1.229869541520497570e-05
1.797298649324662165e+03 1.224003723452717794e-05
1.798199099549774701e+03 1.218180991975825804e-05
1.799099549774887464e+03 1.212400911001229267e-05
1.800000000000000000e+03 1.206663050189396473e-05
