0.000000000000000000e+00 1.141506550822633630e-03
9.004502251125562351e-01 1.515066604358674025e-03
1.800900450225112470e+00 2.004109273107239960e-03
2.701350675337668594e+00 2.543459910469671962e-03
3.601800900450224940e+00 2.959940515820721086e-03
4.502251125562780842e+00 3.131597553047487433e-03
5.402701350675337189e+00 3.099059705764894805e-03
6.303151575787893535e+00 2.857000861010230725e-03
7.203601800900449881e+00 2.395110580627653803e-03
8.104052026013006227e+00 1.862544237213164524e-03
9.004502251125561685e+00 1.406163470565097943e-03
9.904952476238118919e+00 1.064301296775066897e-03
1.080540270135067438e+01 8.189583062431962223e-04
1.170585292646323161e+01 6.433540706033745536e-04
1.260630315157578707e+01 5.159650156119368301e-04
1.350675337668834430e+01 4.217331379404364532e-04
1.440720360180089976e+01 3.505598195564806931e-04
1.530765382691345522e+01 2.957121128373781712e-04
1.620810405202601245e+01 2.526714076683437378e-04
1.710855427713856969e+01 2.183670555400966560e-04
1.800900450225112337e+01 1.906654663977479420e-04
1.890945472736368060e+01 1.680490083009641945e-04
1.980990495247623784e+01 1.494020612767020051e-04
2.071035517758879507e+01 1.338318027745540528e-04
2.161080540270134875e+01 1.205422742306309051e-04
2.251125562781390599e+01 1.089163395712693089e-04
2.341170585292646322e+01 9.867779787485020469e-05
2.431215607803901690e+01 8.973414537250954043e-05
2.521260630315157414e+01 8.195913883499665988e-05
2.611305652826413137e+01 7.518434384588956331e-05
2.701350675337668861e+01 6.924867756557367396e-05
2.791395697848924229e+01 6.401743807510214778e-05
2.881440720360179952e+01 5.938202432943468845e-05
2.971485742871435676e+01 5.525541341216445856e-05
3.061530765382691044e+01 5.156788944686150256e-05
3.151575787893946767e+01 4.826291326727070660e-05
3.241620810405202491e+01 4.529153835769758423e-05
3.331665832916458214e+01 4.260648780721398653e-05
3.421710855427713938e+01 4.016540648721292074e-05
3.511755877938969661e+01 3.794109981703337021e-05
3.601800900450224674e+01 3.590784883849883956e-05
3.691845922961480397e+01 3.402091022976122298e-05
3.781890945472736121e+01 3.224385197556955734e-05
3.871935967983991844e+01 3.058247793397352477e-05
3.961980990495247568e+01 2.905482120693377008e-05
4.052026013006503291e+01 2.766146240627731222e-05
4.142071035517759015e+01 2.638659535115916733e-05
4.232116058029014027e+01 2.520170353823187142e-05
4.322161080540269751e+01 2.407832164792012320e-05
4.412206103051525474e+01 2.301148428694692671e-05
4.502251125562781198e+01 2.201218194780264479e-05
4.592296148074036921e+01 2.108490917510588787e-05
4.682341170585292645e+01 2.022580299428176554e-05
4.772386193096548368e+01 1.942861421327051648e-05
4.862431215607803381e+01 1.868768624442266891e-05
4.952476238119059104e+01 1.799865504424000691e-05
5.042521260630314828e+01 1.735857351391379785e-05
5.132566283141570551e+01 1.676606283512058557e-05
5.222611305652826275e+01 1.622152893892070467e-05
5.312656328164081998e+01 1.572709568543976264e-05
5.402701350675337721e+01 1.528485840266710500e-05
5.492746373186592734e+01 1.489012755627818380e-05
5.582791395697848458e+01 1.451961903078765982e-05
5.672836418209104181e+01 1.413469692950823474e-05
5.762881440720359905e+01 1.370977203453198200e-05
5.852926463231615628e+01 1.324770183058915746e-05
5.942971485742871351e+01 1.278070524105459057e-05
6.033016508254127075e+01 1.234395940742237014e-05
6.123061530765382088e+01 1.195115651744403304e-05
6.213106553276637811e+01 1.160088198252320827e-05
6.303151575787893535e+01 1.128662908750725057e-05
6.393196598299149258e+01 1.100114582723498379e-05
6.483241620810404982e+01 1.073963506624183086e-05
6.573286643321659994e+01 1.049459634645134103e-05
6.663331665832916428e+01 1.024721053492160594e-05
6.753376688344171441e+01 9.984528860262425153e-06
6.843421710855427875e+01 9.720283951861528901e-06
6.933466733366682888e+01 9.476142600001562086e-06
7.023511755877939322e+01 9.263178891379300793e-06
7.113556778389194335e+01 9.084720577528318191e-06
7.203601800900449348e+01 8.939930610945455235e-06
7.293646823411705782e+01 8.820313697519580271e-06
7.383691845922960795e+01 8.710177688226809599e-06
7.473736868434217229e+01 8.601605667124846157e-06
7.563781890945472242e+01 8.485173878115055864e-06
7.653826913456728676e+01 8.322481713013036249e-06
7.743871935967983688e+01 8.091609958593234427e-06
7.833916958479238701e+01 7.832349758801303156e-06
7.923961980990495135e+01 7.591858173272207482e-06
8.014007003501750148e+01 7.387119402409559743e-06
8.104052026013006582e+01 7.217721537849865463e-06
8.194097048524261595e+01 7.079828055033591825e-06
8.284142071035518029e+01 6.969262348949647308e-06
8.374187093546773042e+01 6.877370135792202156e-06
8.464232116058028055e+01 6.787743587279560756e-06
8.554277138569284489e+01 6.690089069826056770e-06
8.644322161080539502e+01 6.592638256540546845e-06
8.734367183591795936e+01 6.498375116731641918e-06
8.824412206103050949e+01 6.390810614135110689e-06
8.914457228614307382e+01 6.262711121593341694e-06
9.004502251125562395e+01 6.132800574593039671e-06
9.094547273636817408e+01 6.018876387980848149e-06
9.184592296148073842e+01 5.919026007810798146e-06
9.274637318659328855e+01 5.820923297779819774e-06
9.364682341170585289e+01 5.723766404388266184e-06
9.454727363681840302e+01 5.639332848827465733e-06
9.544772386193096736e+01 5.572676810541666953e-06
9.634817408704351749e+01 5.511600301179682814e-06
9.724862431215606762e+01 5.433636432493439014e-06
9.814907453726863196e+01 5.333398884819633358e-06
9.904952476238118209e+01 5.227713489243625371e-06
9.994997498749374643e+01 5.129647448180833215e-06
1.008504252126062966e+02 5.042986346961843242e-06
1.017508754377188609e+02 4.970406443692698102e-06
1.026513256628314110e+02 4.914273601900975352e-06
1.035517758879439612e+02 4.875111753882150817e-06
1.044522261130565255e+02 4.849524291775750921e-06
1.053526763381690756e+02 4.827270399902827237e-06
1.062531265632816400e+02 4.798933655170520990e-06
1.071535767883941901e+02 4.772301831892452974e-06
1.080540270135067544e+02 4.764950104369595589e-06
1.089544772386193046e+02 4.783699664959695198e-06
1.098549274637318547e+02 4.816289813003594120e-06
1.107553776888444190e+02 4.837828707465047906e-06
1.116558279139569692e+02 4.824062450759705604e-06
1.125562781390695335e+02 4.763678418567191131e-06
1.134567283641820836e+02 4.680028781713562774e-06
1.143571785892946480e+02 4.606657546953943994e-06
1.152576288144071981e+02 4.551208884762973586e-06
1.161580790395197482e+02 4.511203866558491542e-06
1.170585292646323126e+02 4.490775584983824325e-06
1.179589794897448627e+02 4.486222081500351128e-06
1.188594297148574270e+02 4.475365705800518096e-06
1.197598799399699772e+02 4.422702775906895762e-06
1.206603301650825415e+02 4.319265500429175592e-06
1.215607803901950916e+02 4.201933569670593089e-06
1.224612306153076418e+02 4.107844781693030924e-06
1.233616808404202061e+02 4.050839130372047889e-06
1.242621310655327562e+02 4.031297412796582165e-06
1.251625812906453206e+02 4.041364630185255197e-06
1.260630315157578707e+02 4.060286353906373378e-06
1.269634817408704350e+02 4.062525349269685138e-06
1.278639319659829852e+02 4.043100601376031220e-06
1.287643821910955353e+02 4.012262845878763973e-06
1.296648324162080996e+02 3.982474455581665750e-06
1.305652826413206640e+02 3.965200278625370473e-06
1.314657328664331999e+02 3.948164888533949514e-06
1.323661830915457642e+02 3.899444718567501167e-06
1.332666333166583286e+02 3.811959394598927224e-06
1.341670835417708929e+02 3.714571628577703970e-06
1.350675337668834288e+02 3.636455093650755383e-06
1.359679839919959932e+02 3.587179125838883345e-06
1.368684342171085575e+02 3.560071453280398093e-06
1.377688844422210934e+02 3.536744823229895776e-06
1.386693346673336578e+02 3.501007457912201830e-06
1.395697848924462221e+02 3.458488386347483848e-06
1.404702351175587864e+02 3.426868369290659031e-06
1.413706853426713224e+02 3.417632144546321673e-06
1.422711355677838867e+02 3.435621340505059587e-06
1.431715857928964510e+02 3.482139070642131587e-06
1.440720360180089870e+02 3.553397660974447161e-06
1.449724862431215513e+02 3.639340535925663239e-06
1.458729364682341156e+02 3.721227718567562484e-06
1.467733866933466800e+02 3.764792117405424307e-06
1.476738369184592159e+02 3.740486910121383388e-06
1.485742871435717802e+02 3.660872121379623599e-06
1.494747373686843446e+02 3.574213291471985447e-06
1.503751875937968805e+02 3.513429737684041661e-06
1.512756378189094448e+02 3.470384101593569009e-06
1.521760880440220092e+02 3.418581686056990102e-06
1.530765382691345735e+02 3.355269290171516621e-06
1.539769884942471094e+02 3.304331792623303579e-06
1.548774387193596738e+02 3.285935612574327479e-06
1.557778889444722381e+02 3.306866192870185132e-06
1.566783391695847740e+02 3.361042860405314719e-06
1.575787893946973384e+02 3.419855810333736983e-06
1.584792396198099027e+02 3.436069996163263928e-06
1.593796898449224670e+02 3.396615783311678465e-06
1.602801400700350030e+02 3.344736116875748282e-06
1.611805902951475673e+02 3.325897105492651492e-06
1.620810405202601316e+02 3.359910036235374991e-06
1.629814907453726676e+02 3.445982047671711432e-06
1.638819409704852319e+02 3.556755456435000726e-06
1.647823911955977962e+02 3.635520692917442410e-06
1.656828414207103606e+02 3.643245928215049239e-06
1.665832916458228965e+02 3.592859655741914695e-06
1.674837418709354608e+02 3.507454275840585889e-06
1.683841920960480252e+02 3.412363885375736088e-06
1.692846423211605611e+02 3.343264614933203723e-06
1.701850925462731254e+02 3.315631780878948457e-06
1.710855427713856898e+02 3.308450577302460997e-06
1.719859929964982541e+02 3.287696950786146140e-06
1.728864432216107900e+02 3.249370079173594910e-06
1.737868934467233544e+02 3.208475904243266287e-06
1.746873436718359187e+02 3.162867264565650799e-06
1.755877938969484546e+02 3.112216060427504576e-06
1.764882441220610190e+02 3.075236609893715826e-06
1.773886943471735833e+02 3.062754304920075108e-06
1.782891445722861476e+02 3.060235588617488152e-06
1.791895947973986836e+02 3.047234546486104985e-06
1.800900450225112479e+02 3.030618224532273259e-06
1.809904952476238122e+02 3.034123065113742563e-06
1.818909454727363482e+02 3.064420902142914420e-06
1.827913956978489125e+02 3.102295207460183269e-06
1.836918459229614768e+02 3.122434999070252877e-06
1.845922961480740412e+02 3.127021980232960730e-06
1.854927463731865771e+02 3.135462280776063291e-06
1.863931965982991414e+02 3.143627225340111930e-06
1.872936468234117058e+02 3.131639672394139390e-06
1.881940970485242417e+02 3.099981782498601022e-06
1.890945472736368060e+02 3.074022771638346304e-06
1.899949974987493704e+02 3.071388665147141273e-06
1.908954477238619347e+02 3.072482876957766780e-06
1.917958979489744706e+02 3.040415607431535027e-06
1.926963481740870350e+02 2.976804762094492603e-06
1.935967983991995993e+02 2.920209521160936397e-06
1.944972486243121352e+02 2.899699358896234926e-06
1.953976988494246996e+02 2.923819337677631879e-06
1.962981490745372639e+02 2.986880027694234782e-06
1.971985992996498283e+02 3.067915021746290716e-06
1.980990495247623642e+02 3.133772690096080853e-06
1.989994997498749285e+02 3.158743830843614214e-06
1.998999499749874929e+02 3.144553053996820336e-06
2.008004002001000288e+02 3.112249008550794120e-06
2.017008504252125931e+02 3.080385337858209801e-06
2.026013006503251574e+02 3.055765123219557970e-06
2.035017508754377218e+02 3.046213535574158977e-06
2.044022011005502577e+02 3.055857657896638022e-06
2.053026513256628220e+02 3.067252383732021552e-06
2.062031015507753864e+02 3.058283976796893159e-06
2.071035517758879223e+02 3.025233074135064670e-06
2.080040020010004866e+02 2.978302024223342753e-06
2.089044522261130510e+02 2.938248296124084347e-06
2.098049024512256153e+02 2.917783301116867811e-06
2.107053526763381512e+02 2.900814554890605482e-06
2.116058029014507156e+02 2.867846280330234482e-06
2.125062531265632799e+02 2.831334935946131663e-06
2.134067033516758158e+02 2.817009527846463558e-06
2.143071535767883802e+02 2.835296679081776909e-06
2.152076038019009445e+02 2.884892412770807719e-06
2.161080540270135089e+02 2.965551747735158120e-06
2.170085042521260448e+02 3.071175936428801831e-06
2.179089544772386091e+02 3.171111540315768323e-06
2.188094047023511735e+02 3.228970454498638655e-06
2.197098549274637094e+02 3.243304729232457221e-06
2.206103051525762737e+02 3.225764166888278713e-06
2.215107553776888381e+02 3.178296462841828567e-06
2.224112056028014024e+02 3.129081473924109830e-06
2.233116558279139383e+02 3.117111964965015712e-06
2.242121060530265027e+02 3.145901530374809608e-06
2.251125562781390670e+02 3.185784499326786421e-06
2.260130065032516029e+02 3.207561578072515090e-06
2.269134567283641672e+02 3.196174857079470486e-06
2.278139069534767316e+02 3.154112085901792897e-06
2.287143571785892959e+02 3.099761984194104067e-06
2.296148074037018318e+02 3.041154009739351053e-06
2.305152576288143962e+02 2.976200631714105361e-06
2.314157078539269605e+02 2.918287835009142129e-06
2.323161580790394964e+02 2.894550243720702453e-06
2.332166083041520608e+02 2.922860400164369209e-06
2.341170585292646251e+02 3.002849809871893385e-06
2.350175087543771895e+02 3.114795197440721049e-06
2.359179589794897254e+02 3.224527476261931743e-06
2.368184092046022897e+02 3.294882369073260612e-06
2.377188594297148541e+02 3.297276582192793313e-06
2.386193096548273900e+02 3.238432331477352889e-06
2.395197598799399543e+02 3.148617387920471429e-06
2.404202101050525187e+02 3.049741220674865264e-06
2.413206603301650830e+02 2.969280816892151817e-06
2.422211105552776189e+02 2.928935888423473467e-06
2.431215607803901833e+02 2.922527125510563514e-06
2.440220110055027476e+02 2.929208477911383725e-06
2.449224612306152835e+02 2.938821648809736283e-06
2.458229114557278479e+02 2.944011069172446507e-06
2.467233616808404122e+02 2.930663168786002916e-06
2.476238119059529765e+02 2.904994143551168324e-06
2.485242621310655124e+02 2.891288026656898757e-06
2.494247123561780768e+02 2.902340197304534769e-06
2.503251625812906411e+02 2.946368459406484660e-06
2.512256128064031770e+02 3.037210515777885028e-06
2.521260630315157414e+02 3.173864577609973783e-06
2.530265132566283057e+02 3.323081861197863246e-06
2.539269634817408701e+02 3.438492363949548627e-06
2.548274137068534060e+02 3.499201391700599966e-06
2.557278639319659703e+02 3.509075435672359438e-06
2.566283141570785347e+02 3.476486300109741531e-06
2.575287643821910706e+02 3.405516935757240218e-06
2.584292146073036633e+02 3.298364474062592485e-06
2.593296648324161993e+02 3.174955665744729255e-06
2.602301150575287352e+02 3.071150889726073218e-06
2.611305652826413279e+02 3.007120360076520247e-06
2.620310155077538639e+02 2.973911462091067360e-06
2.629314657328663998e+02 2.950139823120626880e-06
2.638319159579789925e+02 2.932199562923519980e-06
2.647323661830915285e+02 2.927952506965634125e-06
2.656328164082040644e+02 2.935654378117727844e-06
2.665332666333166571e+02 2.952279325561720861e-06
2.674337168584291931e+02 2.977464757470733298e-06
2.683341670835417858e+02 3.007999112801810702e-06
2.692346173086543217e+02 3.048408191877899748e-06
2.701350675337668577e+02 3.104469253263531268e-06
2.710355177588794504e+02 3.168193342725413200e-06
2.719359679839919863e+02 3.229482369478297960e-06
2.728364182091045222e+02 3.277033144079519962e-06
2.737368684342171150e+02 3.292318929027854429e-06
2.746373186593296509e+02 3.273957543778343820e-06
2.755377688844421868e+02 3.238485591341583748e-06
2.764382191095547796e+02 3.194608218375862226e-06
2.773386693346673155e+02 3.147302683682809793e-06
2.782391195597798514e+02 3.115475292611752411e-06
2.791395697848924442e+02 3.117935221826437349e-06
2.800400200100049801e+02 3.145291741838058830e-06
2.809404702351175729e+02 3.172125471960468287e-06
2.818409204602301088e+02 3.192270071345098881e-06
2.827413706853426447e+02 3.221747436091098523e-06
2.836418209104552375e+02 3.274717647606641528e-06
2.845422711355677734e+02 3.358082585758261688e-06
2.854427213606803093e+02 3.466495680223917154e-06
2.863431715857929021e+02 3.572180814945812173e-06
2.872436218109054380e+02 3.643899236892849535e-06
2.881440720360179739e+02 3.672623711688100697e-06
2.890445222611305667e+02 3.675254875692765047e-06
2.899449724862431026e+02 3.674222571312355407e-06
2.908454227113556385e+02 3.674895141111672203e-06
2.917458729364682313e+02 3.666313391686545116e-06
2.926463231615807672e+02 3.644177070252778584e-06
2.935467733866933600e+02 3.606538578687639217e-06
2.944472236118058959e+02 3.544743585970114190e-06
2.953476738369184318e+02 3.460551301591606995e-06
2.962481240620310246e+02 3.374873336599000017e-06
2.971485742871435605e+02 3.312073399979365096e-06
2.980490245122560964e+02 3.275877200583849365e-06
2.989494747373686891e+02 3.253760295266922685e-06
2.998499249624812251e+02 3.248715951307684155e-06
3.007503751875937610e+02 3.276280657090289802e-06
3.016508254127063537e+02 3.341595011777464139e-06
3.025512756378188897e+02 3.440415228226009030e-06
3.034517258629314256e+02 3.554158217953334465e-06
3.043521760880440183e+02 3.636234398071344383e-06
3.052526263131565543e+02 3.651227772711685794e-06
3.061530765382691470e+02 3.620443232246772683e-06
3.070535267633816829e+02 3.583256889291832348e-06
3.079539769884942189e+02 3.557620684694392636e-06
3.088544272136068116e+02 3.540436234979982770e-06
3.097548774387193475e+02 3.516701985881969283e-06
3.106553276638318835e+02 3.478365460177247236e-06
3.115557778889444762e+02 3.421022901152503523e-06
3.124562281140570121e+02 3.344780056734129605e-06
3.133566783391695481e+02 3.269300138398292312e-06
3.142571285642821408e+02 3.218716656640937184e-06
3.151575787893946767e+02 3.200923548537341613e-06
3.160580290145072127e+02 3.206614971381032396e-06
3.169584792396198054e+02 3.225556839344953222e-06
3.178589294647323413e+02 3.265906525524842996e-06
3.187593796898449341e+02 3.345215815394284996e-06
3.196598299149574700e+02 3.467035823228422806e-06
3.205602801400700059e+02 3.612896682601297883e-06
3.214607303651825987e+02 3.746477895784265273e-06
3.223611805902951346e+02 3.830855852980705309e-06
3.232616308154076705e+02 3.854400643942572970e-06
3.241620810405202633e+02 3.832638712566438228e-06
3.250625312656327992e+02 3.793614061070360970e-06
3.259629814907453351e+02 3.761814925289027929e-06
3.268634317158579279e+02 3.749538515254468083e-06
3.277638819409704638e+02 3.759914061510450288e-06
3.286643321660829997e+02 3.772880014395832516e-06
3.295647823911955925e+02 3.752146677718699682e-06
3.304652326163081284e+02 3.683778296312311882e-06
3.313656828414207212e+02 3.601575140979215390e-06
3.322661330665332571e+02 3.549869699869724513e-06
3.331665832916457930e+02 3.535005395978096280e-06
3.340670335167583858e+02 3.544917762582094160e-06
3.349674837418709217e+02 3.585424516643352444e-06
3.358679339669834576e+02 3.662030024642931369e-06
3.367683841920960504e+02 3.762542856061619110e-06
3.376688344172085863e+02 3.868551859506455897e-06
3.385692846423211222e+02 3.958895106667482445e-06
3.394697348674337150e+02 4.012817337591671609e-06
3.403701850925462509e+02 4.015547008313442193e-06
3.412706353176587868e+02 3.959929439323931386e-06
3.421710855427713796e+02 3.856257734942052284e-06
3.430715357678839155e+02 3.732814041383462059e-06
3.439719859929965082e+02 3.611380088214929565e-06
3.448724362181090441e+02 3.502186711692685627e-06
3.457728864432215801e+02 3.407442944679112592e-06
3.466733366683341728e+02 3.330095870893882917e-06
3.475737868934467087e+02 3.283507535130397232e-06
3.484742371185592447e+02 3.284192933658841630e-06
3.493746873436718374e+02 3.334972357389232641e-06
3.502751375687843733e+02 3.424920465372124905e-06
3.511755877938969093e+02 3.548245774763203786e-06
3.520760380190095020e+02 3.706523697187754901e-06
3.529764882441220379e+02 3.890520948631422858e-06
3.538769384692345739e+02 4.069881990810677325e-06
3.547773886943471666e+02 4.193410700695232585e-06
3.556778389194597025e+02 4.217588966841830541e-06
3.565782891445722953e+02 4.135905994687497688e-06
3.574787393696848312e+02 3.977816823389591100e-06
3.583791895947973671e+02 3.799827920582479654e-06
3.592796398199099599e+02 3.653268867651877048e-06
3.601800900450224958e+02 3.551723427123516231e-06
3.610805402701350317e+02 3.480761913922606920e-06
3.619809904952476245e+02 3.420460091880609204e-06
3.628814407203601604e+02 3.369351006115742210e-06
3.637818909454726963e+02 3.347877087698984035e-06
3.646823411705852891e+02 3.366162938689411635e-06
3.655827913956978250e+02 3.406537814851022122e-06
3.664832416208103609e+02 3.449116085779323618e-06
3.673836918459229537e+02 3.503964086739188067e-06
3.682841420710354896e+02 3.596669343827686798e-06
3.691845922961480824e+02 3.724623341688078485e-06
3.700850425212606183e+02 3.846330446712352626e-06
3.709854927463731542e+02 3.911380925097929386e-06
3.718859429714857470e+02 3.894536173655105842e-06
3.727863931965982829e+02 3.807944651521169923e-06
3.736868434217108188e+02 3.688954581244247935e-06
3.745872936468234116e+02 3.572987001786318997e-06
3.754877438719359475e+02 3.479916769980583442e-06
3.763881940970484834e+02 3.412085463186222532e-06
3.772886443221610762e+02 3.364873807534164943e-06
3.781890945472736121e+02 3.341438306516911317e-06
3.790895447723861480e+02 3.352744952756487780e-06
3.799899949974987408e+02 3.406419070439377636e-06
3.808904452226112767e+02 3.499794563022654541e-06
3.817908954477238694e+02 3.625156260760579871e-06
3.826913456728364054e+02 3.785226393989973264e-06
3.835917958979489413e+02 3.990193188590855239e-06
3.844922461230615340e+02 4.240703918223943581e-06
3.853926963481740700e+02 4.509041933943091472e-06
3.862931465732866059e+02 4.730927699418373809e-06
3.871935967983991986e+02 4.837572737736929419e-06
3.880940470235117346e+02 4.796349909256034157e-06
3.889944972486242705e+02 4.639060601351961559e-06
3.898949474737368632e+02 4.440618654742905919e-06
3.907953976988493991e+02 4.254527030692653246e-06
3.916958479239619351e+02 4.090368459584633874e-06
3.925962981490745278e+02 3.944958237709373516e-06
3.934967483741870637e+02 3.827008992930142508e-06
3.943971985992996565e+02 3.752749130340218623e-06
3.952976488244121924e+02 3.730455015835184740e-06
3.961980990495247283e+02 3.749572338261592880e-06
3.970985492746373211e+02 3.796739139242630678e-06
3.979989994997498570e+02 3.873381053953603914e-06
3.988994497248623929e+02 3.980824987432968698e-06
3.997998999499749857e+02 4.109414091366747022e-06
4.007003501750875216e+02 4.238767729371439311e-06
4.016008004002000575e+02 4.340807286885337020e-06
4.025012506253126503e+02 4.390573876408727747e-06
4.034017008504251862e+02 4.375893011952465740e-06
4.043021510755377221e+02 4.300643475174619450e-06
4.052026013006503149e+02 4.184184735889906261e-06
4.061030515257628508e+02 4.048720510815884955e-06
4.070035017508754436e+02 3.917805875676175628e-06
4.079039519759879795e+02 3.811985173125267269e-06
4.088044022011005154e+02 3.741432261423271584e-06
4.097048524262131082e+02 3.714878860787269026e-06
4.106053026513256441e+02 3.734941736216758070e-06
4.115057528764381800e+02 3.795519193794676967e-06
4.124062031015507728e+02 3.894072901774647599e-06
4.133066533266633087e+02 4.035202665721490549e-06
4.142071035517758446e+02 4.222184778770072851e-06
4.151075537768884374e+02 4.447192364145170647e-06
4.160080040020009733e+02 4.692261389581922190e-06
4.169084542271135092e+02 4.928170850879699219e-06
4.178089044522261020e+02 5.114755443270770998e-06
4.187093546773386379e+02 5.210881848453192020e-06
4.196098049024512306e+02 5.179269969683423791e-06
4.205102551275637666e+02 5.013709449726134909e-06
4.214107053526763025e+02 4.767411006098202235e-06
4.223111555777888952e+02 4.515698453552936355e-06
4.232116058029014312e+02 4.311274193040665630e-06
4.241120560280139671e+02 4.173972733275497738e-06
4.250125062531265598e+02 4.100938674738945919e-06
4.259129564782390958e+02 4.090142926157377123e-06
4.268134067033516317e+02 4.146400026220252819e-06
4.277138569284642244e+02 4.267000896983935330e-06
4.286143071535767604e+02 4.437957260198385363e-06
4.295147573786892963e+02 4.644022611676704672e-06
4.304152076038018890e+02 4.866623542496754518e-06
4.313156578289144250e+02 5.066533663460962463e-06
4.322161080540270177e+02 5.188571116490646810e-06
4.331165582791395536e+02 5.189743099681419591e-06
4.340170085042520896e+02 5.059724525030947987e-06
4.349174587293646823e+02 4.838491493349270522e-06
4.358179089544772182e+02 4.607059882847715084e-06
4.367183591795897541e+02 4.422926658962224737e-06
4.376188094047023469e+02 4.293616450773491875e-06
4.385192596298148828e+02 4.212886028672116903e-06
4.394197098549274187e+02 4.182099192749319843e-06
4.403201600800400115e+02 4.200737891103930718e-06
4.412206103051525474e+02 4.270300497837933285e-06
4.421210605302650833e+02 4.402476071444432160e-06
4.430215107553776761e+02 4.596056296865199891e-06
4.439219609804902120e+02 4.817260802858954435e-06
4.448224112056028048e+02 5.018832378052498731e-06
4.457228614307153407e+02 5.174163988020687686e-06
4.466233116558278766e+02 5.280755485196452880e-06
4.475237618809404694e+02 5.332742491833027121e-06
4.484242121060530053e+02 5.305877716029639743e-06
4.493246623311655412e+02 5.179835990392123155e-06
4.502251125562781340e+02 4.975072841608155332e-06
4.511255627813906699e+02 4.755125630225385747e-06
4.520260130065032058e+02 4.577039151972194565e-06
4.529264632316157986e+02 4.466488758714742087e-06
4.538269134567283345e+02 4.440754536463580438e-06
4.547273636818408704e+02 4.508389532698126715e-06
4.556278139069534632e+02 4.658102806255058285e-06
4.565282641320659991e+02 4.859886014295955142e-06
4.574287143571785919e+02 5.069549873446479840e-06
4.583291645822911278e+02 5.239653206108337923e-06
4.592296148074036637e+02 5.338410137930300763e-06
4.601300650325162565e+02 5.366359004210062403e-06
4.610305152576287924e+02 5.345725562452508393e-06
4.619309654827413283e+02 5.296698757402167941e-06
4.628314157078539210e+02 5.227201390583967246e-06
4.637318659329664570e+02 5.149951491339687459e-06
4.646323161580789929e+02 5.105857132298113703e-06
4.655327663831915856e+02 5.141767824964594991e-06
4.664332166083041216e+02 5.269861652313504210e-06
4.673336668334167143e+02 5.460201227278506280e-06
4.682341170585292502e+02 5.667410564053730620e-06
4.691345672836417862e+02 5.858824773464886938e-06
4.700350175087543789e+02 6.027523739544619449e-06
4.709354677338669148e+02 6.177480458647719092e-06
4.718359179589794508e+02 6.300701156299839542e-06
4.727363681840920435e+02 6.385884062214695875e-06
4.736368184092045794e+02 6.429644129215171479e-06
4.745372686343171154e+02 6.430778171053440181e-06
4.754377188594297081e+02 6.395677286594860653e-06
4.763381690845422440e+02 6.338120402121967274e-06
4.772386193096547800e+02 6.272691161718987517e-06
4.781390695347673727e+02 6.213115066487408255e-06
4.790395197598799086e+02 6.175091623397458530e-06
4.799399699849925014e+02 6.164639567280347029e-06
4.808404202101050373e+02 6.162608917429287448e-06
4.817408704352175732e+02 6.149375106155534790e-06
4.826413206603301660e+02 6.125503606522578462e-06
4.835417708854427019e+02 6.090353368126239666e-06
4.844422211105552378e+02 6.044680978988464733e-06
4.853426713356678306e+02 6.011469213321022926e-06
4.862431215607803665e+02 6.020976611644462055e-06
4.871435717858929024e+02 6.091531863078980847e-06
4.880440220110054952e+02 6.219457838072905893e-06
4.889444722361180311e+02 6.376337400356318364e-06
4.898449224612305670e+02 6.530304601558873223e-06
4.907453726863431598e+02 6.658213371690450815e-06
4.916458229114556957e+02 6.726283481974647762e-06
4.925462731365682885e+02 6.699952337846743703e-06
4.934467233616808244e+02 6.589438926889746203e-06
4.943471735867933603e+02 6.448756271282437493e-06
4.952476238119059531e+02 6.334329875468926459e-06
4.961480740370184890e+02 6.283703279265659399e-06
4.970485242621310249e+02 6.312962853578031573e-06
4.979489744872436177e+02 6.413810887648221297e-06
4.988494247123561536e+02 6.557807127388632524e-06
4.997498749374686895e+02 6.714298899852919568e-06
5.006503251625812823e+02 6.866565316045754608e-06
5.015507753876938182e+02 7.007416206117971942e-06
5.024512256128063541e+02 7.137173222699028014e-06
5.033516758379189469e+02 7.262070367410116491e-06
5.042521260630314828e+02 7.367250293177364214e-06
5.051525762881440755e+02 7.415515095304936732e-06
5.060530265132566115e+02 7.390257605006141462e-06
5.069534767383691474e+02 7.306638896700389645e-06
5.078539269634817401e+02 7.189704208254031087e-06
5.087543771885942760e+02 7.067089954294162942e-06
5.096548274137068120e+02 6.965325506491606090e-06
5.105552776388194047e+02 6.899550004953158009e-06
5.114557278639319406e+02 6.873546641086213999e-06
5.123561780890445334e+02 6.881932432414874234e-06
5.132566283141570693e+02 6.911685758716605587e-06
5.141570785392696052e+02 6.953793343606310753e-06
5.150575287643821412e+02 7.005370942490520728e-06
5.159579789894946771e+02 7.058136560118232968e-06
5.168584292146073267e+02 7.096410668580247734e-06
5.177588794397198626e+02 7.116974418842867194e-06
5.186593296648323985e+02 7.136841573041737485e-06
5.195597798899449344e+02 7.175769106154352622e-06
5.204602301150574704e+02 7.246599161726533219e-06
5.213606803401700063e+02 7.340303494838927708e-06
5.222611305652826559e+02 7.424653986386568038e-06
5.231615807903951918e+02 7.479758616425631262e-06
5.240620310155077277e+02 7.512785177478030035e-06
5.249624812406202636e+02 7.537809896438940484e-06
5.258629314657327996e+02 7.567099438162061771e-06
5.267633816908454492e+02 7.605839950140479100e-06
5.276638319159579851e+02 7.636711199897791130e-06
5.285642821410705210e+02 7.639788438694233166e-06
5.294647323661830569e+02 7.626334257756166014e-06
5.303651825912955928e+02 7.615073922281043204e-06
5.312656328164081287e+02 7.599782315955392147e-06
5.321660830415207784e+02 7.558873075076206296e-06
5.330665332666333143e+02 7.488417428282230813e-06
5.339669834917458502e+02 7.412794601593432759e-06
5.348674337168583861e+02 7.352442810798473582e-06
5.357678839419709220e+02 7.305949093643150320e-06
5.366683341670835716e+02 7.268405663728325142e-06
5.375687843921961075e+02 7.239287199835604910e-06
5.384692346173086435e+02 7.219063854448226552e-06
5.393696848424211794e+02 7.210933350131048623e-06
5.402701350675337153e+02 7.216698562870629962e-06
5.411705852926462512e+02 7.237262900142897668e-06
5.420710355177589008e+02 7.271109913457476989e-06
5.429714857428714367e+02 7.309721987498909082e-06
5.438719359679839727e+02 7.350769991948881120e-06
5.447723861930965086e+02 7.403543712160348094e-06
5.456728364182090445e+02 7.469696959629560955e-06
5.465732866433215804e+02 7.540866797263386405e-06
5.474737368684342300e+02 7.616402682854170711e-06
5.483741870935467659e+02 7.693549107425166127e-06
5.492746373186593019e+02 7.762050542161853735e-06
5.501750875437718378e+02 7.820802083038844697e-06
5.510755377688843737e+02 7.882717479322559802e-06
5.519759879939970233e+02 7.965911569032970942e-06
5.528764382191095592e+02 8.089945816480346885e-06
5.537768884442220951e+02 8.263849105243927822e-06
5.546773386693346310e+02 8.470816238797014908e-06
5.555777888944471670e+02 8.678290154095473377e-06
5.564782391195597029e+02 8.861137706879653820e-06
5.573786893446723525e+02 9.015855746494078263e-06
5.582791395697848884e+02 9.163179378932760456e-06
5.591795897948974243e+02 9.329287386123873873e-06
5.600800400200099602e+02 9.521328317710237043e-06
5.609804902451224962e+02 9.718901371090440486e-06
5.618809404702351458e+02 9.891475037080026030e-06
5.627813906953476817e+02 1.001078286440829490e-05
5.636818409204602176e+02 1.006948074510683270e-05
5.645822911455727535e+02 1.011423040482950640e-05
5.654827413706852894e+02 1.020177294049984937e-05
5.663831915957978254e+02 1.032160591879959917e-05
5.672836418209104750e+02 1.040946196506817347e-05
5.681840920460230109e+02 1.044249397146705716e-05
5.690845422711355468e+02 1.046981316607321140e-05
5.699849924962480827e+02 1.053078055491618431e-05
5.708854427213606186e+02 1.061415962665353487e-05
5.717858929464731546e+02 1.069981361594906693e-05
5.726863431715858042e+02 1.079417156251184919e-05
5.735867933966983401e+02 1.091090748767882974e-05
5.744872436218108760e+02 1.104884838881163605e-05
5.753876938469234119e+02 1.120243829843630445e-05
5.762881440720359478e+02 1.135512204972653718e-05
5.771885942971485974e+02 1.148626778218007143e-05
5.780890445222611334e+02 1.158242289275686786e-05
5.789894947473736693e+02 1.162813248396652715e-05
5.798899449724862052e+02 1.161294168727251034e-05
5.807903951975987411e+02 1.154349696715625408e-05
5.816908454227112770e+02 1.144496249203787889e-05
5.825912956478239266e+02 1.136073078051207184e-05
5.834917458729364625e+02 1.134402159596155755e-05
5.843921960980489985e+02 1.143786482767909913e-05
5.852926463231615344e+02 1.163793106782707699e-05
5.861930965482740703e+02 1.187693873718874432e-05
5.870935467733867199e+02 1.206365720139831076e-05
5.879939969984992558e+02 1.215298409385306821e-05
5.888944472236117917e+02 1.218922353393210538e-05
5.897948974487243277e+02 1.224489447013915811e-05
5.906953476738368636e+02 1.233653879950503767e-05
5.915957978989493995e+02 1.243650078359368819e-05
5.924962481240620491e+02 1.254208761835838084e-05
5.933966983491745850e+02 1.268152585291950997e-05
5.942971485742871209e+02 1.286938826792657175e-05
5.951975987993996569e+02 1.309395073661624139e-05
5.960980490245121928e+02 1.333153965218495009e-05
5.969984992496247287e+02 1.354558824209957875e-05
5.978989494747373783e+02 1.369537658506423079e-05
5.987993996998499142e+02 1.376663936220550787e-05
5.996998499249624501e+02 1.377435822062766269e-05
6.006003001500749860e+02 1.373910646144594159e-05
6.015007503751875220e+02 1.367066672032035190e-05
6.024012006003001716e+02 1.358728682136529891e-05
6.033016508254127075e+02 1.353427229852156165e-05
6.042021010505252434e+02 1.355338732174240296e-05
6.051025512756377793e+02 1.366214256138180152e-05
6.060030015007503152e+02 1.383683519602509971e-05
6.069034517258628512e+02 1.402919146578842857e-05
6.078039019509755008e+02 1.422695662023592418e-05
6.087043521760880367e+02 1.446225364254201615e-05
6.096048024012005726e+02 1.475724690712939015e-05
6.105052526263131085e+02 1.509618176620758714e-05
6.114057028514256444e+02 1.542569781915650902e-05
6.123061530765382940e+02 1.568128816611342931e-05
6.132066033016508300e+02 1.581390697422665120e-05
6.141070535267633659e+02 1.583092778887168576e-05
6.150075037518759018e+02 1.580277953337155767e-05
6.159079539769884377e+02 1.578952649733348371e-05
6.168084042021009736e+02 1.578684866503790051e-05
6.177088544272136232e+02 1.578946583134661818e-05
6.186093046523261592e+02 1.582324592622150623e-05
6.195097548774386951e+02 1.588250080313662602e-05
6.204102051025512310e+02 1.592331173287030123e-05
6.213106553276637669e+02 1.592795196426303214e-05
6.222111055527763028e+02 1.593946978351992724e-05
6.231115557778889524e+02 1.598867038015461701e-05
6.240120060030014884e+02 1.603759185916677125e-05
6.249124562281140243e+02 1.603092418928835848e-05
6.258129064532265602e+02 1.595326164685247704e-05
6.267133566783390961e+02 1.582355304503609147e-05
6.276138069034517457e+02 1.567483775795696247e-05
6.285142571285642816e+02 1.556223549671288057e-05
6.294147073536768175e+02 1.552692427492380898e-05
6.303151575787893535e+02 1.555706604620527204e-05
6.312156078039018894e+02 1.560946800236761228e-05
6.321160580290144253e+02 1.565744557371134615e-05
6.330165082541270749e+02 1.569048544574479733e-05
6.339169584792396108e+02 1.567552328958706517e-05
6.348174087043521467e+02 1.560007671043219215e-05
6.357178589294646827e+02 1.552854713707569495e-05
6.366183091545772186e+02 1.552318758954495523e-05
6.375187593796898682e+02 1.557193254104255931e-05
6.384192096048024041e+02 1.563100215446883349e-05
6.393196598299149400e+02 1.570089464018393144e-05
6.402201100550274759e+02 1.580948682129933419e-05
6.411205602801400119e+02 1.596747166949133125e-05
6.420210105052525478e+02 1.617457500350681556e-05
6.429214607303651974e+02 1.641197394680220107e-05
6.438219109554777333e+02 1.666486505786149951e-05
6.447223611805902692e+02 1.694028821091706695e-05
6.456228114057028051e+02 1.721695794120321112e-05
6.465232616308153411e+02 1.742771098331019082e-05
6.474237118559278770e+02 1.753055607481996604e-05
6.483241620810405266e+02 1.757033351796976852e-05
6.492246123061530625e+02 1.762785619666715634e-05
6.501250625312655984e+02 1.773510316743782115e-05
6.510255127563781343e+02 1.786428716222512105e-05
6.519259629814906702e+02 1.795360185431667141e-05
6.528264132066033198e+02 1.793192515001269127e-05
6.537268634317158558e+02 1.780097771798616136e-05
6.546273136568283917e+02 1.766357279177739481e-05
6.555277638819409276e+02 1.760073262055046560e-05
6.564282141070534635e+02 1.759911312851750151e-05
6.573286643321659994e+02 1.760514655470566940e-05
6.582291145572786490e+02 1.755907611173610424e-05
6.591295647823911850e+02 1.742397246147491137e-05
6.600300150075037209e+02 1.723566672150828402e-05
6.609304652326162568e+02 1.704700093105184403e-05
6.618309154577287927e+02 1.687019542285962958e-05
6.627313656828414423e+02 1.672711232161894606e-05
6.636318159079539782e+02 1.666419139336774619e-05
6.645322661330665142e+02 1.669840683591402604e-05
6.654327163581790501e+02 1.678734408165988981e-05
6.663331665832915860e+02 1.685802169285330747e-05
6.672336168084041219e+02 1.688278921627354951e-05
6.681340670335167715e+02 1.687750950689220707e-05
6.690345172586293074e+02 1.686781279281477912e-05
6.699349674837418434e+02 1.688328377750696331e-05
6.708354177088543793e+02 1.691821985516377106e-05
6.717358679339669152e+02 1.691671755019382199e-05
6.726363181590794511e+02 1.686391511881834692e-05
6.735367683841921007e+02 1.681168129277506629e-05
6.744372186093046366e+02 1.678430808300559652e-05
6.753376688344171725e+02 1.675038579706999775e-05
6.762381190595297085e+02 1.668332441733768234e-05
6.771385692846422444e+02 1.659439115029160737e-05
6.780390195097548940e+02 1.652144871452594416e-05
6.789394697348674299e+02 1.649461604911377569e-05
6.798399199599799658e+02 1.649995813549806793e-05
6.807403701850925017e+02 1.650812931173910707e-05
6.816408204102050377e+02 1.650090438923934144e-05
6.825412706353175736e+02 1.645400176827057026e-05
6.834417208604302232e+02 1.634609678216305601e-05
6.843421710855427591e+02 1.619853644656200664e-05
6.852426213106552950e+02 1.610020444394849029e-05
6.861430715357678309e+02 1.611016433960489911e-05
6.870435217608803669e+02 1.617982513458452853e-05
6.879439719859930165e+02 1.624651898565095324e-05
6.888444222111055524e+02 1.630514566383256574e-05
6.897448724362180883e+02 1.638629189182675121e-05
6.906453226613306242e+02 1.651925935207082752e-05
6.915457728864431601e+02 1.669126797677478999e-05
6.924462231115556961e+02 1.685682242781836538e-05
6.933466733366683457e+02 1.700075805315467173e-05
6.942471235617808816e+02 1.711589776825405679e-05
6.951475737868934175e+02 1.715480511960556937e-05
6.960480240120059534e+02 1.708045323461215978e-05
6.969484742371184893e+02 1.689827710301066934e-05
6.978489244622311389e+02 1.663985877434036100e-05
6.987493746873436749e+02 1.634726881212928868e-05
6.996498249124562108e+02 1.604584906652697273e-05
7.005502751375687467e+02 1.574713910358236188e-05
7.014507253626812826e+02 1.548807132603948736e-05
7.023511755877938185e+02 1.531933666931671996e-05
7.032516258129064681e+02 1.525201270871332263e-05
7.041520760380190040e+02 1.526394794241875375e-05
7.050525262631315400e+02 1.532553271873608047e-05
7.059529764882440759e+02 1.539073583632131502e-05
7.068534267133566118e+02 1.541558382065839322e-05
7.077538769384691477e+02 1.538194979770649850e-05
7.086543271635817973e+02 1.528027227322344703e-05
7.095547773886943332e+02 1.512235882257412334e-05
7.104552276138068692e+02 1.494600896767332486e-05
7.113556778389194051e+02 1.479064762625933276e-05
7.122561280640319410e+02 1.467918492801115326e-05
7.131565782891445906e+02 1.462538044956155351e-05
7.140570285142571265e+02 1.463386631946928345e-05
7.149574787393696624e+02 1.468189167402199666e-05
7.158579289644821984e+02 1.474434742590158525e-05
7.167583791895947343e+02 1.481806325604614907e-05
7.176588294147072702e+02 1.490043620932079684e-05
7.185592796398199198e+02 1.495446616200636333e-05
7.194597298649324557e+02 1.493637371953680025e-05
7.203601800900449916e+02 1.484785318366301321e-05
7.212606303151575275e+02 1.473978730602165038e-05
7.221610805402700635e+02 1.466280789095763349e-05
7.230615307653827131e+02 1.459652606389250265e-05
7.239619809904952490e+02 1.448540079552319687e-05
7.248624312156077849e+02 1.433184025641293625e-05
7.257628814407203208e+02 1.419372303931739805e-05
7.266633316658328567e+02 1.410392365051371257e-05
7.275637818909453927e+02 1.405703037327796679e-05
7.284642321160580423e+02 1.404450333172055428e-05
7.293646823411705782e+02 1.406438168094460098e-05
7.302651325662831141e+02 1.409979489991338560e-05
7.311655827913956500e+02 1.411367486516529070e-05
7.320660330165081859e+02 1.407802284655603034e-05
7.329664832416207219e+02 1.398779429608904751e-05
7.338669334667333715e+02 1.386120659953830073e-05
7.347673836918459074e+02 1.373282008808363356e-05
7.356678339169584433e+02 1.361476563898679480e-05
7.365682841420709792e+02 1.346671222493220512e-05
7.374687343671835151e+02 1.326554288963067990e-05
7.383691845922961647e+02 1.304745537969580712e-05
7.392696348174087007e+02 1.285405368114209094e-05
7.401700850425212366e+02 1.271655522649212904e-05
7.410705352676337725e+02 1.265860001184272108e-05
7.419709854927463084e+02 1.267481952436295898e-05
7.428714357178588443e+02 1.273638777264557532e-05
7.437718859429714939e+02 1.279910843654652312e-05
7.446723361680840299e+02 1.281246228232563495e-05
7.455727863931965658e+02 1.275031464764283025e-05
7.464732366183091017e+02 1.260950317678963357e-05
7.473736868434216376e+02 1.241298067067204607e-05
7.482741370685342872e+02 1.220709369782990413e-05
7.491745872936468231e+02 1.202822604299406485e-05
7.500750375187593590e+02 1.188581312712023935e-05
7.509754877438718950e+02 1.177440804297626353e-05
7.518759379689844309e+02 1.168936072483607370e-05
7.527763881940969668e+02 1.162789690097334193e-05
7.536768384192096164e+02 1.158468417252223646e-05
7.545772886443221523e+02 1.153382310831229425e-05
7.554777388694346882e+02 1.143881457219974603e-05
7.563781890945472242e+02 1.129556233091614517e-05
7.572786393196597601e+02 1.114671360751297359e-05
7.581790895447722960e+02 1.102986789856920219e-05
7.590795397698849456e+02 1.093277425856626542e-05
7.599799899949974815e+02 1.084660522437692791e-05
7.608804402201100174e+02 1.079235971438542749e-05
7.617808904452225534e+02 1.077550221743442572e-05
7.626813406703350893e+02 1.078653853561187003e-05
7.635817908954477389e+02 1.082778008322681316e-05
7.644822411205602748e+02 1.090769238571997842e-05
7.653826913456728107e+02 1.103777288741743649e-05
7.662831415707853466e+02 1.121894491419661280e-05
7.671835917958978825e+02 1.140851170618445246e-05
7.680840420210104185e+02 1.153199787469853494e-05
7.689844922461230681e+02 1.153939827907564789e-05
7.698849424712356040e+02 1.145375135333530769e-05
7.707853926963481399e+02 1.135520110789559253e-05
7.716858429214606758e+02 1.130737241191877952e-05
7.725862931465732117e+02 1.130928060215799962e-05
7.734867433716858613e+02 1.132284254485946357e-05
7.743871935967983973e+02 1.131368767833987046e-05
7.752876438219109332e+02 1.126201134807598224e-05
7.761880940470234691e+02 1.115967024702139121e-05
7.770885442721360050e+02 1.101866529878770185e-05
7.779889944972485409e+02 1.084787914407985454e-05
7.788894447223611905e+02 1.064203915464528439e-05
7.797898949474737265e+02 1.041498767321394346e-05
7.806903451725862624e+02 1.020775997419203400e-05
7.815907953976987983e+02 1.005553784397177365e-05
7.824912456228113342e+02 9.970934050423199859e-06
7.833916958479238701e+02 9.950844625230441317e-06
7.842921460730365197e+02 9.974794782746570295e-06
7.851925962981490557e+02 1.002008646704102534e-05
7.860930465232615916e+02 1.007199885659462005e-05
7.869934967483741275e+02 1.011837033749951973e-05
7.878939469734866634e+02 1.014313236106336770e-05
7.887943971985993130e+02 1.014079616199720121e-05
7.896948474237118489e+02 1.011560705234872424e-05
7.905952976488243849e+02 1.006329518693105943e-05
7.914957478739369208e+02 9.991731013497521887e-06
7.923961980990494567e+02 9.929851877469589376e-06
7.932966483241619926e+02 9.898685175030511708e-06
7.941970985492746422e+02 9.892950460786070559e-06
7.950975487743871781e+02 9.898567965788869019e-06
7.959979989994997140e+02 9.899818644957125989e-06
7.968984492246122500e+02 9.879168451233838916e-06
7.977988994497247859e+02 9.841695098582607838e-06
7.986993496748374355e+02 9.812508476165195467e-06
7.995997998999499714e+02 9.805083627005041909e-06
8.005002501250625073e+02 9.816479352892898522e-06
8.014007003501750432e+02 9.854110007073318118e-06
8.023011505752875792e+02 9.926909185402421493e-06
8.032016008004001151e+02 1.000194555821679744e-05
8.041020510255127647e+02 1.001849249909790503e-05
8.050025012506253006e+02 9.956025942520659643e-06
8.059029514757378365e+02 9.850263318308313720e-06
8.068034017008503724e+02 9.743169427777352952e-06
8.077038519259629084e+02 9.662556992966048999e-06
8.086043021510754443e+02 9.628016268174145010e-06
8.095047523761880939e+02 9.631821749476036603e-06
8.104052026013006298e+02 9.633110017287354612e-06
8.113056528264131657e+02 9.598498850149663462e-06
8.122061030515257016e+02 9.527248934227483272e-06
8.131065532766382375e+02 9.434830210432379794e-06
8.140070035017508872e+02 9.339516134548330571e-06
8.149074537268634231e+02 9.257446054323214288e-06
8.158079039519759590e+02 9.196171805022382252e-06
8.167083541770884949e+02 9.148287750295006296e-06
8.176088044022010308e+02 9.105975821475805509e-06
8.185092546273135667e+02 9.080959221816322234e-06
8.194097048524262163e+02 9.091305280005100180e-06
8.203101550775387523e+02 9.132957170957780720e-06
8.212106053026512882e+02 9.179905653197140193e-06
8.221110555277638241e+02 9.210987672053304366e-06
8.230115057528763600e+02 9.224209242646243774e-06
8.239119559779890096e+02 9.223219779547054447e-06
8.248124062031015455e+02 9.212486833140997404e-06
8.257128564282140815e+02 9.197418783885890874e-06
8.266133066533266174e+02 9.178645069911753462e-06
8.275137568784391533e+02 9.155942127753015580e-06
8.284142071035516892e+02 9.135647171538025533e-06
8.293146573286643388e+02 9.128097414487019429e-06
8.302151075537768747e+02 9.131189916024956319e-06
8.311155577788894107e+02 9.133589534961865668e-06
8.320160080040019466e+02 9.136034711469474457e-06
8.329164582291144825e+02 9.144735212627255131e-06
8.338169084542270184e+02 9.153173544659569782e-06
8.347173586793396680e+02 9.147337373666451039e-06
8.356178089044522039e+02 9.125108138881680590e-06
8.365182591295647399e+02 9.103288510167090568e-06
8.374187093546772758e+02 9.101679408407308797e-06
8.383191595797898117e+02 9.122321374238635992e-06
8.392196098049024613e+02 9.153223286864838284e-06
8.401200600300149972e+02 9.184865400438547701e-06
8.410205102551275331e+02 9.212542621306517312e-06
8.419209604802400690e+02 9.233874032544110719e-06
8.428214107053526050e+02 9.253540559324567632e-06
8.437218609304651409e+02 9.280819181310549548e-06
8.446223111555777905e+02 9.319755629576435555e-06
8.455227613806903264e+02 9.365240100426818964e-06
8.464232116058028623e+02 9.420168392491866675e-06
8.473236618309153982e+02 9.492238290303909624e-06
8.482241120560279342e+02 9.576288188151532542e-06
8.491245622811405838e+02 9.657518783303556620e-06
8.500250125062531197e+02 9.725097561178297270e-06
8.509254627313656556e+02 9.777529684381538880e-06
8.518259129564781915e+02 9.813570420029460868e-06
8.527263631815907274e+02 9.835103393056316676e-06
8.536268134067032634e+02 9.857348055740115353e-06
8.545272636318159130e+02 9.889872789900903643e-06
8.554277138569284489e+02 9.925578916818682393e-06
8.563281640820409848e+02 9.964125038405492044e-06
8.572286143071535207e+02 1.000800298304703834e-05
8.581290645322660566e+02 1.004619330894124707e-05
8.590295147573785925e+02 1.007514299808282269e-05
8.599299649824912422e+02 1.010381346166318376e-05
8.608304152076037781e+02 1.013483041488116619e-05
8.617308654327163140e+02 1.015410728431025511e-05
8.626313156578288499e+02 1.014601011441226701e-05
8.635317658829413858e+02 1.012110986771007690e-05
8.644322161080540354e+02 1.010912921082577262e-05
8.653326663331665713e+02 1.013368669667215715e-05
8.662331165582791073e+02 1.020088782259685002e-05
8.671335667833916432e+02 1.029737235050296959e-05
8.680340170085041791e+02 1.039800414960209212e-05
8.689344672336167150e+02 1.048701815220023554e-05
8.698349174587293646e+02 1.056461229270980572e-05
8.707353676838419005e+02 1.064177918145585120e-05
8.716358179089544365e+02 1.071501727087807170e-05
8.725362681340669724e+02 1.075075743716058148e-05
8.734367183591795083e+02 1.072930177342745464e-05
8.743371685842921579e+02 1.067289699059422687e-05
8.752376188094046938e+02 1.061010871128223668e-05
8.761380690345172297e+02 1.056092001362691072e-05
8.770385192596297657e+02 1.054717111351563907e-05
8.779389694847423016e+02 1.057604277733725009e-05
8.788394197098548375e+02 1.062721275578257911e-05
8.797398699349674871e+02 1.067717210779397201e-05
8.806403201600800230e+02 1.072873831103333417e-05
8.815407703851925589e+02 1.079808568446454099e-05
8.824412206103050949e+02 1.088725849077987670e-05
8.833416708354176308e+02 1.098428753075443307e-05
8.842421210605301667e+02 1.106757644214099500e-05
8.851425712856428163e+02 1.111792140852671605e-05
8.860430215107553522e+02 1.114100449357619652e-05
8.869434717358678881e+02 1.115630326642214683e-05
8.878439219609804240e+02 1.116598901498423584e-05
8.887443721860929600e+02 1.116513031660722893e-05
8.896448224112056096e+02 1.116454479296271082e-05
8.905452726363181455e+02 1.118062852626271116e-05
8.914457228614306814e+02 1.121038624529221052e-05
8.923461730865432173e+02 1.124071605255868346e-05
8.932466233116557532e+02 1.127667078193722645e-05
8.941470735367682892e+02 1.132990604184346602e-05
8.950475237618809388e+02 1.139101516531794539e-05
8.959479739869934747e+02 1.143980703798120058e-05
8.968484242121060106e+02 1.148229462001440943e-05
8.977488744372185465e+02 1.154511956354228969e-05
8.986493246623310824e+02 1.163093124534402036e-05
8.995497748874437320e+02 1.171037397742439112e-05
9.004502251125562680e+02 1.176802170418473766e-05
9.013506753376688039e+02 1.182504273830200885e-05
9.022511255627813398e+02 1.190204334304313931e-05
9.031515757878938757e+02 1.200061720851368534e-05
9.040520260130064116e+02 1.211339606396622631e-05
9.049524762381190612e+02 1.222575988633443770e-05
9.058529264632315972e+02 1.232945348373316652e-05
9.067533766883441331e+02 1.243550986084219763e-05
9.076538269134566690e+02 1.256478644302021912e-05
9.085542771385692049e+02 1.271738148566678863e-05
9.094547273636817408e+02 1.285798392680046212e-05
9.103551775887943904e+02 1.296523290754530119e-05
9.112556278139069263e+02 1.305643766238363782e-05
9.121560780390194623e+02 1.315620106849066966e-05
9.130565282641319982e+02 1.327987919600867111e-05
9.139569784892445341e+02 1.342305275297185680e-05
9.148574287143571837e+02 1.355083902057195435e-05
9.157578789394697196e+02 1.362123441943078544e-05
9.166583291645822555e+02 1.362927052120017527e-05
9.175587793896947915e+02 1.360615821831206654e-05
9.184592296148073274e+02 1.357834199724749357e-05
9.193596798399198633e+02 1.354530382301849130e-05
9.202601300650325129e+02 1.350577973872195447e-05
9.211605802901450488e+02 1.346417522477097585e-05
9.220610305152575847e+02 1.342665669904427639e-05
9.229614807403701207e+02 1.339952996095643280e-05
9.238619309654826566e+02 1.337441481318674923e-05
9.247623811905953062e+02 1.335039449363065959e-05
9.256628314157078421e+02 1.334453264874233771e-05
9.265632816408203780e+02 1.336825929067121083e-05
9.274637318659329139e+02 1.341249225530224622e-05
9.283641820910454499e+02 1.346152020149372672e-05
9.292646323161579858e+02 1.352181089792010045e-05
9.301650825412706354e+02 1.360963438518549577e-05
9.310655327663831713e+02 1.372916710804235789e-05
9.319659829914957072e+02 1.387525086326138262e-05
9.328664332166082431e+02 1.404012123098586481e-05
9.337668834417207790e+02 1.421592946443381795e-05
9.346673336668334287e+02 1.440696779144779501e-05
9.355677838919459646e+02 1.460723189418887517e-05
9.364682341170585005e+02 1.477953996564492044e-05
9.373686843421710364e+02 1.490353070377800294e-05
9.382691345672835723e+02 1.498482362104015964e-05
9.391695847923961082e+02 1.502663709180977136e-05
9.400700350175087578e+02 1.504100463998157742e-05
9.409704852426212938e+02 1.505226081632665659e-05
9.418709354677338297e+02 1.507689289853019846e-05
9.427713856928463656e+02 1.511834863308316368e-05
9.436718359179589015e+02 1.517672551461980525e-05
9.445722861430714374e+02 1.524826279612269983e-05
9.454727363681840870e+02 1.532534459604293359e-05
9.463731865932966230e+02 1.541372580062602078e-05
9.472736368184091589e+02 1.552724227134746635e-05
9.481740870435216948e+02 1.565629196714415030e-05
9.490745372686342307e+02 1.578003452623823712e-05
9.499749874937468803e+02 1.589989658129164636e-05
9.508754377188594162e+02 1.604560277023649482e-05
9.517758879439719522e+02 1.623793481297137957e-05
9.526763381690844881e+02 1.647268757943809201e-05
9.535767883941970240e+02 1.675141739556037151e-05
9.544772386193095599e+02 1.708269359524932298e-05
9.553776888444222095e+02 1.743731512956271282e-05
9.562781390695347454e+02 1.774958255074032191e-05
9.571785892946472813e+02 1.797566509321161087e-05
9.580790395197598173e+02 1.813384106567952214e-05
9.589794897448723532e+02 1.829698090978803583e-05
9.598799399699850028e+02 1.852921765464410277e-05
9.607803901950975387e+02 1.880491174072127308e-05
9.616808404202100746e+02 1.903783150276584590e-05
9.625812906453226105e+02 1.919235811673373842e-05
9.634817408704351465e+02 1.930388152602172222e-05
9.643821910955476824e+02 1.939397292192000872e-05
9.652826413206603320e+02 1.946845826143027848e-05
9.661830915457728679e+02 1.955774864480873924e-05
9.670835417708854038e+02 1.968951238939996309e-05
9.679839919959979397e+02 1.985658714032594263e-05
9.688844422211104757e+02 2.000117109950656584e-05
9.697848924462230116e+02 2.007281681752516448e-05
9.706853426713356612e+02 2.010268392842395351e-05
9.715857928964481971e+02 2.017526371328354657e-05
9.724862431215607330e+02 2.034152635832749267e-05
9.733866933466732689e+02 2.059461425162754835e-05
9.742871435717858049e+02 2.089157673308399962e-05
9.751875937968984545e+02 2.117725214289871712e-05
9.760880440220109904e+02 2.141778058725195603e-05
9.769884942471235263e+02 2.160181756793952841e-05
9.778889444722360622e+02 2.173566430740915198e-05
9.787893946973485981e+02 2.183726389293345996e-05
9.796898449224611340e+02 2.193543062287193105e-05
9.805902951475737837e+02 2.208167905824717767e-05
9.814907453726863196e+02 2.232607214907894694e-05
9.823911955977988555e+02 2.267667190035803173e-05
9.832916458229113914e+02 2.305164663339190578e-05
9.841920960480239273e+02 2.333266151950385425e-05
9.850925462731365769e+02 2.348534742848136622e-05
9.859929964982491128e+02 2.358642341512771473e-05
9.868934467233616488e+02 2.375163898351730950e-05
9.877938969484741847e+02 2.403476454708509301e-05
9.886943471735867206e+02 2.441749091154258406e-05
9.895947973986992565e+02 2.483575634061226665e-05
9.904952476238119061e+02 2.520642026725916721e-05
9.913956978489244420e+02 2.547025431186435802e-05
9.922961480740369780e+02 2.561988719965652418e-05
9.931965982991495139e+02 2.567578667105775358e-05
9.940970485242620498e+02 2.564796532352863539e-05
9.949974987493745857e+02 2.558900888379410298e-05
9.958979489744872353e+02 2.559998393893188413e-05
9.967983991995997712e+02 2.574250504286163229e-05
9.976988494247123072e+02 2.601808359978690407e-05
9.985992996498248431e+02 2.637001453939520043e-05
9.994997498749373790e+02 2.670303972817782449e-05
1.000400200100050029e+03 2.696696943042577527e-05
1.001300650325162565e+03 2.720992912011972208e-05
1.002201100550275100e+03 2.751778359014739323e-05
1.003101550775387636e+03 2.793185024663753492e-05
1.004002001000500172e+03 2.845326662743683790e-05
1.004902451225612708e+03 2.907731863934217908e-05
1.005802901450725358e+03 2.974309535367173892e-05
1.006703351675837894e+03 3.028277056618679209e-05
1.007603801900950430e+03 3.055867708804778713e-05
1.008504252126062966e+03 3.066383490575305475e-05
1.009404702351175501e+03 3.083783511037083976e-05
1.010305152576288151e+03 3.124026931063576216e-05
1.011205602801400687e+03 3.185230406056104398e-05
1.012106053026513223e+03 3.248984133622249206e-05
1.013006503251625759e+03 3.297955871260227630e-05
1.013906953476738295e+03 3.333796117338506758e-05
1.014807403701850831e+03 3.370068640372356585e-05
1.015707853926963480e+03 3.415081299020790673e-05
1.016608304152076016e+03 3.465976048140223802e-05
1.017508754377188552e+03 3.508919739069617076e-05
1.018409204602301088e+03 3.526343131937969183e-05
1.019309654827413624e+03 3.511541684279237814e-05
1.020210105052526160e+03 3.479582902726473947e-05
1.021110555277638809e+03 3.453212580187111155e-05
1.022011005502751345e+03 3.442011470492294079e-05
1.022911455727863881e+03 3.440680968726203716e-05
1.023811905952976417e+03 3.440099363457513473e-05
1.024712356178089067e+03 3.437641740982949682e-05
1.025612806403201603e+03 3.441564881480055951e-05
1.026513256628314139e+03 3.464839646516536915e-05
1.027413706853426675e+03 3.512316046311284479e-05
1.028314157078539210e+03 3.574468992036427585e-05
1.029214607303651746e+03 3.634356533670807135e-05
1.030115057528764282e+03 3.678885799924219810e-05
1.031015507753876818e+03 3.708415205345536345e-05
1.031915957978989354e+03 3.735529592203038038e-05
1.032816408204101890e+03 3.773151628193765404e-05
1.033716858429214653e+03 3.823430779682635678e-05
1.034617308654327189e+03 3.879703718831955709e-05
1.035517758879439725e+03 3.935375503462215267e-05
1.036418209104552261e+03 3.989059544326739836e-05
1.037318659329664797e+03 4.046415131860048309e-05
1.038219109554777333e+03 4.117806417345394279e-05
1.039119559779889869e+03 4.213610378123471592e-05
1.040020010005002405e+03 4.340077635099645419e-05
1.040920460230114941e+03 4.492244561212903895e-05
1.041820910455227477e+03 4.659936619615361996e-05
1.042721360680340013e+03 4.842479677000459772e-05
1.043621810905452776e+03 5.038079107821691213e-05
1.044522261130565312e+03 5.230464941341550543e-05
1.045422711355677848e+03 5.400293011037499277e-05
1.046323161580790384e+03 5.536710054466589576e-05
1.047223611805902920e+03 5.637709562807733494e-05
1.048124062031015455e+03 5.707765782242737171e-05
1.049024512256127991e+03 5.764054293480416790e-05
1.049924962481240527e+03 5.832901128868271993e-05
1.050825412706353063e+03 5.924983243488090868e-05
1.051725862931465599e+03 6.026496126297495792e-05
1.052626313156578135e+03 6.120978464216293236e-05
1.053526763381690898e+03 6.209274558995492993e-05
1.054427213606803434e+03 6.307863465431759247e-05
1.055327663831915970e+03 6.433817132049468948e-05
1.056228114057028506e+03 6.594544030107764082e-05
1.057128564282141042e+03 6.790782010334842989e-05
1.058029014507253578e+03 7.007850880618300650e-05
1.058929464732366114e+03 7.219599459726368836e-05
1.059829914957478650e+03 7.411429718482965808e-05
1.060730365182591186e+03 7.599442615482634349e-05
1.061630815407703722e+03 7.814687659775829630e-05
1.062531265632816257e+03 8.065379585012487145e-05
1.063431715857929021e+03 8.325049624538902366e-05
1.064332166083041557e+03 8.564424598139872436e-05
1.065232616308154093e+03 8.794818552200702356e-05
1.066133066533266629e+03 9.046957564996720527e-05
1.067033516758379164e+03 9.327894705071321192e-05
1.067933966983491700e+03 9.628691867192137801e-05
1.068834417208604236e+03 9.933676366314679661e-05
1.069734867433716772e+03 1.022527223615982004e-04
1.070635317658829308e+03 1.051168442451787992e-04
1.071535767883941844e+03 1.079730595930646861e-04
1.072436218109054380e+03 1.104351936149559047e-04
1.073336668334167143e+03 1.120519733083973134e-04
1.074237118559279679e+03 1.126944163778199610e-04
1.075137568784392215e+03 1.124847639973684235e-04
1.076038019009504751e+03 1.118350771635190529e-04
1.076938469234617287e+03 1.113923868131391298e-04
1.077838919459729823e+03 1.116102725395532732e-04
1.078739369684842359e+03 1.123711497420165552e-04
1.079639819909954895e+03 1.132138132749623910e-04
1.080540270135067431e+03 1.139627592365728670e-04
1.081440720360179967e+03 1.149169451687173763e-04
1.082341170585292502e+03 1.164085187666491863e-04
1.083241620810405038e+03 1.184204165146281477e-04
1.084142071035517802e+03 1.208483527490536598e-04
1.085042521260630338e+03 1.237797498932569692e-04
1.085942971485742873e+03 1.272516287265203010e-04
1.086843421710855409e+03 1.309783535536087717e-04
1.087743871935967945e+03 1.346675999992966285e-04
1.088644322161080481e+03 1.385948541099028071e-04
1.089544772386193017e+03 1.432144779786790039e-04
1.090445222611305553e+03 1.482282661590157572e-04
1.091345672836418089e+03 1.527718277058192535e-04
1.092246123061530625e+03 1.564356475497005359e-04
1.093146573286643161e+03 1.598641743099655631e-04
1.094047023511755924e+03 1.638087062504875772e-04
1.094947473736868460e+03 1.681965465837985808e-04
1.095847923961980996e+03 1.723884276895389935e-04
1.096748374187093532e+03 1.756159272539319538e-04
1.097648824412206068e+03 1.774866013968107430e-04
1.098549274637318604e+03 1.784276893239145902e-04
1.099449724862431140e+03 1.792695752620925671e-04
1.100350175087543676e+03 1.805365916740402955e-04
1.101250625312656211e+03 1.823350088561907594e-04
1.102151075537768747e+03 1.847697297594489069e-04
1.103051525762881283e+03 1.882876958301193352e-04
1.103951975987994047e+03 1.934622967355720529e-04
1.104852426213106583e+03 2.002216971498721118e-04
1.105752876438219118e+03 2.075093145842944135e-04
1.106653326663331654e+03 2.143395505247096364e-04
1.107553776888444190e+03 2.202187529429433163e-04
1.108454227113556726e+03 2.249015792635814448e-04
1.109354677338669262e+03 2.288982276860614682e-04
1.110255127563781798e+03 2.331469622214382090e-04
1.111155577788894334e+03 2.377121867530259433e-04
1.112056028014006870e+03 2.421198092945486434e-04
1.112956478239119406e+03 2.467374225216670334e-04
1.113856928464232169e+03 2.525291630421885630e-04
1.114757378689344705e+03 2.594264793530497593e-04
1.115657828914457241e+03 2.660567171480005726e-04
1.116558279139569777e+03 2.713310463519591443e-04
1.117458729364682313e+03 2.752292112514081752e-04
1.118359179589794849e+03 2.783049742349271577e-04
1.119259629814907385e+03 2.810667742771547160e-04
1.120160080040019920e+03 2.837565624914582221e-04
1.121060530265132456e+03 2.867358464694898636e-04
1.121960980490244992e+03 2.901892667281204350e-04
1.122861430715357528e+03 2.939556087562859811e-04
1.123761880940470292e+03 2.973042173182336920e-04
1.124662331165582827e+03 2.984405733375967138e-04
1.125562781390695363e+03 2.960179680509391958e-04
1.126463231615807899e+03 2.907579549651036796e-04
1.127363681840920435e+03 2.841832409232489883e-04
1.128264132066032971e+03 2.766869561125289388e-04
1.129164582291145507e+03 2.686074331777659808e-04
1.130065032516258043e+03 2.606546296229344931e-04
1.130965482741370579e+03 2.525689429245319643e-04
1.131865932966483115e+03 2.430372316890870349e-04
1.132766383191595651e+03 2.313098623337048946e-04
1.133666833416708187e+03 2.183604387358082527e-04
1.134567283641820950e+03 2.056522270458950401e-04
1.135467733866933486e+03 1.933630979523344201e-04
1.136368184092046022e+03 1.809045633470875809e-04
1.137268634317158558e+03 1.682050382063395336e-04
1.138169084542271094e+03 1.559459784278160609e-04
1.139069534767383630e+03 1.446309265150845188e-04
1.139969984992496165e+03 1.339316015103915469e-04
1.140870435217608701e+03 1.235265790365973392e-04
1.141770885442721237e+03 1.139005373643349180e-04
1.142671335667833773e+03 1.059304325744836629e-04
1.143571785892946309e+03 1.000934673994802361e-04
1.144472236118059072e+03 9.597089411389012211e-05
1.145372686343171608e+03 9.218865091886929350e-05
1.146273136568284144e+03 8.720583027883682897e-05
1.147173586793396680e+03 8.093606122768849979e-05
1.148074037018509216e+03 7.469553623361629654e-05
1.148974487243621752e+03 6.956498429212455866e-05
1.149874937468734288e+03 6.590899773036227043e-05
1.150775387693846824e+03 6.354307578275765771e-05
1.151675837918959360e+03 6.193132102473866642e-05
1.152576288144071896e+03 6.063360464964931282e-05
1.153476738369184432e+03 5.970443462422057488e-05
1.154377188594297195e+03 5.928669717895503722e-05
1.155277638819409731e+03 5.905463112579544492e-05
1.156178089044522267e+03 5.848693586020331324e-05
1.157078539269634803e+03 5.750733276127478310e-05
1.157978989494747339e+03 5.638718701122724441e-05
1.158879439719859874e+03 5.524383710810322609e-05
1.159779889944972410e+03 5.394868131316208921e-05
1.160680340170084946e+03 5.253804830161989655e-05
1.161580790395197482e+03 5.125096226456646911e-05
1.162481240620310018e+03 5.020535485160282515e-05
1.163381690845422554e+03 4.936457517078504740e-05
1.164282141070535317e+03 4.862934238909441022e-05
1.165182591295647853e+03 4.792648259676126081e-05
1.166083041520760389e+03 4.726932552884403123e-05
1.166983491745872925e+03 4.671864162202391240e-05
1.167883941970985461e+03 4.632259406207550704e-05
1.168784392196097997e+03 4.609261132852125075e-05
1.169684842421210533e+03 4.601269650675463496e-05
1.170585292646323069e+03 4.605191066396873692e-05
1.171485742871435605e+03 4.616790212446716263e-05
1.172386193096548141e+03 4.633085787289548173e-05
1.173286643321660677e+03 4.654553166697402567e-05
1.174187093546773440e+03 4.681126681660765647e-05
1.175087543771885976e+03 4.710913939286671449e-05
1.175987993996998512e+03 4.744294482736010536e-05
1.176888444222111048e+03 4.781149917988324028e-05
1.177788894447223583e+03 4.819877678356027356e-05
1.178689344672336119e+03 4.865394305004635498e-05
1.179589794897448655e+03 4.926371552061348838e-05
1.180490245122561191e+03 5.003729652174745225e-05
1.181390695347673727e+03 5.084849560699307224e-05
1.182291145572786263e+03 5.149935300451039118e-05
1.183191595797898799e+03 5.184802324712871167e-05
1.184092046023011562e+03 5.186652734630300613e-05
1.184992496248124098e+03 5.170242002806103219e-05
1.185892946473236634e+03 5.158771158070856084e-05
1.186793396698349170e+03 5.163315654386181554e-05
1.187693846923461706e+03 5.181415505505300087e-05
1.188594297148574242e+03 5.208565756268643048e-05
1.189494747373686778e+03 5.244187538035778861e-05
1.190395197598799314e+03 5.288144325922904896e-05
1.191295647823911850e+03 5.336563374437123240e-05
1.192196098049024386e+03 5.385530607129858052e-05
1.193096548274136921e+03 5.438921553829291283e-05
1.193996998499249457e+03 5.504825662738988310e-05
1.194897448724362221e+03 5.589131079605484399e-05
1.195797898949474757e+03 5.695104459182316479e-05
1.196698349174587293e+03 5.822939447760448631e-05
1.197598799399699828e+03 5.968342247760978524e-05
1.198499249624812364e+03 6.127162198130167129e-05
1.199399699849924900e+03 6.300145347961441666e-05
1.200300150075037436e+03 6.477635383112031878e-05
1.201200600300149972e+03 6.631851125071741777e-05
1.202101050525262508e+03 6.747214673006746166e-05
1.203001500750375044e+03 6.835746612835838791e-05
1.203901950975487580e+03 6.917393468516808662e-05
1.204802401200600343e+03 7.005197306421301101e-05
1.205702851425712879e+03 7.100406395685051697e-05
1.206603301650825415e+03 7.204031970450200243e-05
1.207503751875937951e+03 7.320678706111296934e-05
1.208404202101050487e+03 7.452014356433518194e-05
1.209304652326163023e+03 7.601162174551859632e-05
1.210205102551275559e+03 7.776086208334511351e-05
1.211105552776388095e+03 7.991372599869902996e-05
1.212006003001500630e+03 8.274425902757779467e-05
1.212906453226613166e+03 8.654729050933328792e-05
1.213806903451725702e+03 9.135019753048945386e-05
1.214707353676838466e+03 9.690946300515509320e-05
1.215607803901951002e+03 1.029876531407698570e-04
1.216508254127063537e+03 1.092072769418785550e-04
1.217408704352176073e+03 1.144975116216054718e-04
1.218309154577288609e+03 1.170219382813159547e-04
1.219209604802401145e+03 1.154079502202703760e-04
1.220110055027513681e+03 1.106288432017511639e-04
1.221010505252626217e+03 1.051865879335652957e-04
1.221910955477738753e+03 1.007023440645991847e-04
1.222811405702851289e+03 9.764606977200500696e-05
1.223711855927963825e+03 9.616642908867061479e-05
1.224612306153076588e+03 9.618214803706594479e-05
1.225512756378189124e+03 9.707560191159976038e-05
1.226413206603301660e+03 9.781290123617058965e-05
1.227313656828414196e+03 9.784306203797509026e-05
1.228214107053526732e+03 9.760874161846687803e-05
1.229114557278639268e+03 9.782327849910617040e-05
1.230015007503751804e+03 9.879413414923504493e-05
1.230915457728864340e+03 1.005997056510751601e-04
1.231815907953976875e+03 1.033539103071465546e-04
1.232716358179089411e+03 1.070688973506714293e-04
1.233616808404201947e+03 1.115564793469529868e-04
1.234517258629314711e+03 1.163825502987925892e-04
1.235417708854427246e+03 1.209822748163506264e-04
1.236318159079539782e+03 1.249421067809371308e-04
1.237218609304652318e+03 1.284087470771644757e-04
1.238119059529764854e+03 1.322059710873827192e-04
1.239019509754877390e+03 1.372843396517275287e-04
1.239919959979989926e+03 1.440748532165463276e-04
1.240820410205102462e+03 1.525564352781954127e-04
1.241720860430214998e+03 1.625956015234420837e-04
1.242621310655327534e+03 1.741359103962655211e-04
1.243521760880440070e+03 1.874528250916258616e-04
1.244422211105552606e+03 2.028884350009901166e-04
1.245322661330665369e+03 2.205448997894740300e-04
1.246223111555777905e+03 2.398898427982170593e-04
1.247123561780890441e+03 2.592064433801220032e-04
1.248024012006002977e+03 2.764477434333566827e-04
1.248924462231115513e+03 2.894064766744618654e-04
1.249824912456228049e+03 2.955919993242027031e-04
1.250725362681340584e+03 2.952540025867071097e-04
1.251625812906453120e+03 2.916329064180653362e-04
1.252526263131565656e+03 2.870532578686496149e-04
1.253426713356678192e+03 2.820181926654112764e-04
1.254327163581790728e+03 2.768687291434224445e-04
1.255227613806903491e+03 2.724891811364094736e-04
1.256128064032016027e+03 2.697013553313617313e-04
1.257028514257128563e+03 2.684735763455350747e-04
1.257928964482241099e+03 2.683100730445999479e-04
1.258829414707353635e+03 2.688871683892913233e-04
1.259729864932466171e+03 2.703451444628418229e-04
1.260630315157578707e+03 2.727822495855644603e-04
1.261530765382691243e+03 2.755519799648123327e-04
1.262431215607803779e+03 2.780312063116736183e-04
1.263331665832916315e+03 2.803838880332643708e-04
1.264232116058028851e+03 2.829595340560813669e-04
1.265132566283141614e+03 2.859462549260594045e-04
1.266033016508254150e+03 2.895107128497732265e-04
1.266933466733366686e+03 2.937316961167461523e-04
1.267833916958479222e+03 2.983408828387796403e-04
1.268734367183591758e+03 3.027702685497391986e-04
1.269634817408704293e+03 3.069190009337393666e-04
1.270535267633816829e+03 3.113243105910139838e-04
1.271435717858929365e+03 3.163171924598402068e-04
1.272336168084041901e+03 3.217188954902812912e-04
1.273236618309154437e+03 3.272537000346701567e-04
1.274137068534266973e+03 3.327298553813150738e-04
1.275037518759379736e+03 3.381498476826530117e-04
1.275937968984492272e+03 3.437068017841280148e-04
1.276838419209604808e+03 3.496695481243079751e-04
1.277738869434717344e+03 3.563491655818388213e-04
1.278639319659829880e+03 3.636240316606838946e-04
1.279539769884942416e+03 3.706007799194077114e-04
1.280440220110054952e+03 3.763209194963869375e-04
1.281340670335167488e+03 3.808347967038078316e-04
1.282241120560280024e+03 3.851031505909141713e-04
1.283141570785392560e+03 3.899415758766976593e-04
1.284042021010505096e+03 3.956519311967943262e-04
1.284942471235617859e+03 4.020546248104210629e-04
1.285842921460730395e+03 4.088106620099878010e-04
1.286743371685842931e+03 4.161808965658477031e-04
1.287643821910955467e+03 4.248230887832865036e-04
1.288544272136068003e+03 4.347773689187195900e-04
1.289444722361180538e+03 4.451374478279828848e-04
1.290345172586293074e+03 4.548609403151938923e-04
1.291245622811405610e+03 4.637070945443152450e-04
1.292146073036518146e+03 4.716547203761512624e-04
1.293046523261630682e+03 4.780751441272553838e-04
1.293946973486743218e+03 4.823741024190681130e-04
1.294847423711855754e+03 4.847425899285469049e-04
1.295747873936968517e+03 4.862497457970190438e-04
1.296648324162081053e+03 4.880949840862767748e-04
1.297548774387193589e+03 4.906004501038746350e-04
1.298449224612306125e+03 4.933996769081334379e-04
1.299349674837418661e+03 4.962161560419141521e-04
1.300250125062531197e+03 4.989911289239322466e-04
1.301150575287643733e+03 5.020687455714088017e-04
1.302051025512756269e+03 5.058975494214343989e-04
1.302951475737868805e+03 5.101611842729426860e-04
1.303851925962981340e+03 5.140536568124354872e-04
1.304752376188093876e+03 5.172578491027722764e-04
1.305652826413206640e+03 5.202915219005701608e-04
1.306553276638319176e+03 5.243303561992011461e-04
1.307453726863431712e+03 5.303278759002238042e-04
1.308354177088544247e+03 5.379601699498801027e-04
1.309254627313656783e+03 5.460664313924620079e-04
1.310155077538769319e+03 5.542372266852343445e-04
1.311055527763881855e+03 5.629605320731985874e-04
1.311955977988994391e+03 5.726895573277069121e-04
1.312856428214106927e+03 5.835649672431463203e-04
1.313756878439219463e+03 5.955217173824058725e-04
1.314657328664331999e+03 6.084055056010274215e-04
1.315557778889444762e+03 6.224065545908365150e-04
1.316458229114557298e+03 6.379617182901194811e-04
1.317358679339669834e+03 6.554420722361978214e-04
1.318259129564782370e+03 6.747840202592815528e-04
1.319159579789894906e+03 6.956764487941815038e-04
1.320060030015007442e+03 7.185516288342762075e-04
1.320960480240119978e+03 7.444881703680687919e-04
1.321860930465232514e+03 7.740312399383680051e-04
1.322761380690345050e+03 8.065987311688222697e-04
1.323661830915457585e+03 8.412996132633659757e-04
1.324562281140570121e+03 8.775872080181890307e-04
1.325462731365682885e+03 9.150548516482118026e-04
1.326363181590795421e+03 9.533938664622263739e-04
1.327263631815907956e+03 9.926574788702948512e-04
1.328164082041020492e+03 1.033511673482896383e-03
1.329064532266133028e+03 1.077366858465245679e-03
1.329964982491245564e+03 1.125612467962371337e-03
1.330865432716358100e+03 1.177138072049172283e-03
1.331765882941470636e+03 1.228900948780401684e-03
1.332666333166583172e+03 1.278984738685199967e-03
1.333566783391695708e+03 1.326388411504638050e-03
1.334467233616808244e+03 1.370581178076095809e-03
1.335367683841921007e+03 1.413781399872880056e-03
1.336268134067033543e+03 1.460306431399265243e-03
1.337168584292146079e+03 1.513101075698465494e-03
1.338069034517258615e+03 1.572085966546236903e-03
1.338969484742371151e+03 1.635704951275485227e-03
1.339869934967483687e+03 1.703390896918787660e-03
1.340770385192596223e+03 1.773032536086702714e-03
1.341670835417708759e+03 1.839191304039417560e-03
1.342571285642821294e+03 1.899548880543436812e-03
1.343471735867933830e+03 1.957730690289061562e-03
1.344372186093046366e+03 2.018376989227267920e-03
1.345272636318158902e+03 2.084134163892056683e-03
1.346173086543271666e+03 2.155755221475413180e-03
1.347073536768384201e+03 2.233358093420921564e-03
1.347973986993496737e+03 2.317300417454956889e-03
1.348874437218609273e+03 2.409295100637777291e-03
1.349774887443721809e+03 2.512766428744566370e-03
1.350675337668834345e+03 2.630904134131061608e-03
1.351575787893946881e+03 2.763951873098314301e-03
1.352476238119059417e+03 2.907826628802034387e-03
1.353376688344171953e+03 3.055296705813171244e-03
1.354277138569284489e+03 3.199325390836389119e-03
1.355177588794397025e+03 3.337183633151936338e-03
1.356078039019509788e+03 3.472036663108962664e-03
1.356978489244622324e+03 3.610960039519452679e-03
1.357878939469734860e+03 3.763557345801089860e-03
1.358779389694847396e+03 3.937672112811248758e-03
1.359679839919959932e+03 4.134478167842016785e-03
1.360580290145072468e+03 4.352009793591876674e-03
1.361480740370185003e+03 4.591021519525872660e-03
1.362381190595297539e+03 4.853553644549646329e-03
1.363281640820410075e+03 5.138968334601608408e-03
1.364182091045522611e+03 5.442404315077120289e-03
1.365082541270635147e+03 5.751249656307541244e-03
1.365982991495747910e+03 6.046456416429148509e-03
1.366883441720860446e+03 6.316191729637981624e-03
1.367783891945972982e+03 6.572162335458934385e-03
1.368684342171085518e+03 6.849327275287977849e-03
1.369584792396198054e+03 7.189851439467385801e-03
1.370485242621310590e+03 7.623054354882045393e-03
1.371385692846423126e+03 8.149493614710382264e-03
1.372286143071535662e+03 8.749461985818281218e-03
1.373186593296648198e+03 9.418522398531725334e-03
1.374087043521760734e+03 1.017864544786789907e-02
1.374987493746873270e+03 1.104322379674027056e-02
1.375887943971986033e+03 1.200865041074436652e-02
1.376788394197098569e+03 1.308886652394099410e-02
1.377688844422211105e+03 1.431880662846335417e-02
1.378589294647323641e+03 1.571855103038601736e-02
1.379489744872436177e+03 1.727088706246044172e-02
1.380390195097548713e+03 1.895350981728662412e-02
1.381290645322661248e+03 2.079651676154880072e-02
1.382191095547773784e+03 2.288195013737964398e-02
1.383091545772886320e+03 2.531437927275753674e-02
1.383991995997998856e+03 2.821018339135769257e-02
1.384892446223111392e+03 3.162738780943644828e-02
1.385792896448224155e+03 3.553909113619663912e-02
1.386693346673336691e+03 3.993691062628147714e-02
1.387593796898449227e+03 4.488519811695147743e-02
1.388494247123561763e+03 5.043233983016058575e-02
1.389394697348674299e+03 5.662630031267238545e-02
1.390295147573786835e+03 6.351999912330240361e-02
1.391195597798899371e+03 7.098965282499611340e-02
1.392096048024011907e+03 7.857287180454892994e-02
1.392996498249124443e+03 8.533479073283860294e-02
1.393896948474236979e+03 9.033170461768774695e-02
1.394797398699349515e+03 9.323419112665431996e-02
1.395697848924462278e+03 9.392143938057190278e-02
1.396598299149574814e+03 9.201100376482077015e-02
1.397498749374687350e+03 8.696184322281030887e-02
1.398399199599799886e+03 7.878772738649984786e-02
1.399299649824912422e+03 6.878674832396838856e-02
1.400200100050024957e+03 5.868084262763337278e-02
1.401100550275137493e+03 4.948873894491608028e-02
1.402001000500250029e+03 4.150452469975051545e-02
1.402901450725362565e+03 3.470919601815775080e-02
1.403801900950475101e+03 2.904149721093913020e-02
1.404702351175587637e+03 2.441604422931375681e-02
1.405602801400700173e+03 2.070466447817874422e-02
1.406503251625812936e+03 1.774558921757277141e-02
1.407403701850925472e+03 1.536488778001126286e-02
1.408304152076038008e+03 1.341763569411814037e-02
1.409204602301150544e+03 1.180127080482747635e-02
1.410105052526263080e+03 1.044576024536882954e-02
1.411005502751375616e+03 9.298637348877432374e-03
1.411905952976488152e+03 8.323752423523355509e-03
1.412806403201600688e+03 7.497013914564707240e-03
1.413706853426713224e+03 6.796307406574113481e-03
1.414607303651825760e+03 6.202378149300058138e-03
1.415507753876938295e+03 5.696903854072954410e-03
1.416408204102051059e+03 5.263116863089328280e-03
1.417308654327163595e+03 4.887170677090832763e-03
1.418209104552276131e+03 4.553229597801178134e-03
1.419109554777388666e+03 4.246064773894639259e-03
1.420010005002501202e+03 3.957075797090470887e-03
1.420910455227613738e+03 3.686325165498981985e-03
1.421810905452726274e+03 3.437761308987858852e-03
1.422711355677838810e+03 3.212432007176602069e-03
1.423611805902951346e+03 3.008778502774778554e-03
1.424512256128063882e+03 2.824886684422877291e-03
1.425412706353176418e+03 2.657990956589870515e-03
1.426313156578289181e+03 2.505100292965381243e-03
1.427213606803401717e+03 2.363343729035650379e-03
1.428114057028514253e+03 2.232307773774710319e-03
1.429014507253626789e+03 2.112896566404546053e-03
1.429914957478739325e+03 2.003997320205405143e-03
1.430815407703851861e+03 1.903319710467449950e-03
1.431715857928964397e+03 1.809988993899669819e-03
1.432616308154076933e+03 1.724931657855689705e-03
1.433516758379189469e+03 1.649141441038256932e-03
1.434417208604302004e+03 1.581711496462368362e-03
1.435317658829414540e+03 1.521072955409983381e-03
1.436218109054527304e+03 1.466705021157172157e-03
1.437118559279639840e+03 1.418046107271290221e-03
1.438019009504752376e+03 1.373074755271757414e-03
1.438919459729864911e+03 1.329569507562365898e-03
1.439819909954977447e+03 1.286822174621698794e-03
1.440720360180089983e+03 1.245165908610591180e-03
1.441620810405202519e+03 1.205009890710873055e-03
1.442521260630315055e+03 1.166226045522575968e-03
1.443421710855427591e+03 1.129296666220816698e-03
1.444322161080540127e+03 1.095197294993355275e-03
1.445222611305652663e+03 1.063377165014670663e-03
1.446123061530765426e+03 1.032417758398016796e-03
1.447023511755877962e+03 1.001305134873168917e-03
1.447923961980990498e+03 9.693126096926088509e-04
1.448824412206103034e+03 9.367503188292870559e-04
1.449724862431215570e+03 9.054742897485324295e-04
1.450625312656328106e+03 8.772401002293271676e-04
1.451525762881440642e+03 8.521315352540254594e-04
1.452426213106553178e+03 8.290787221819289699e-04
1.453326663331665713e+03 8.071993679645731801e-04
1.454227113556778249e+03 7.860679958646713201e-04
1.455127563781890785e+03 7.656476225350535058e-04
1.456028014007003321e+03 7.466672876656447891e-04
1.456928464232116085e+03 7.299547447058258665e-04
1.457828914457228620e+03 7.153398188645881733e-04
1.458729364682341156e+03 7.022087691648480883e-04
1.459629814907453692e+03 6.900259177981247528e-04
1.460530265132566228e+03 6.780878129682704628e-04
1.461430715357678764e+03 6.655061120716808821e-04
1.462331165582791300e+03 6.520524381038645713e-04
1.463231615807903836e+03 6.384766106796708031e-04
1.464132066033016372e+03 6.257148101708981218e-04
1.465032516258128908e+03 6.136816352187333349e-04
1.465932966483241444e+03 6.012727708776195766e-04
1.466833416708354207e+03 5.874413623114052314e-04
1.467733866933466743e+03 5.722292545105914750e-04
1.468634317158579279e+03 5.567096139170556049e-04
1.469534767383691815e+03 5.418811998581049170e-04
1.470435217608804351e+03 5.282959924679418370e-04
1.471335667833916887e+03 5.162774631958696710e-04
1.472236118059029423e+03 5.055622383210499424e-04
1.473136568284141958e+03 4.956541027529608656e-04
1.474037018509254494e+03 4.864733585295480259e-04
1.474937468734367030e+03 4.783553942067210549e-04
1.475837918959479566e+03 4.715631174258901764e-04
1.476738369184592329e+03 4.659389443905695948e-04
1.477638819409704865e+03 4.609810344411178823e-04
1.478539269634817401e+03 4.563298108930476430e-04
1.479439719859929937e+03 4.522791960115554949e-04
1.480340170085042473e+03 4.490620783671171214e-04
1.481240620310155009e+03 4.462075456271908411e-04
1.482141070535267545e+03 4.432004742102720008e-04
1.483041520760380081e+03 4.398259128934458662e-04
1.483941970985492617e+03 4.357378219212424439e-04
1.484842421210605153e+03 4.307836238164802008e-04
1.485742871435717689e+03 4.251557050646848903e-04
1.486643321660830452e+03 4.188224696937302080e-04
1.487543771885942988e+03 4.118278926330726816e-04
1.488444222111055524e+03 4.044708567920047302e-04
1.489344672336168060e+03 3.969430663766128895e-04
1.490245122561280596e+03 3.889446778321902875e-04
1.491145572786393132e+03 3.799794456310709055e-04
1.492046023011505667e+03 3.700645772774825162e-04
1.492946473236618203e+03 3.599376131130794642e-04
1.493846923461730739e+03 3.507573111538127199e-04
1.494747373686843275e+03 3.430793100867894022e-04
1.495647823911955811e+03 3.361677720568781273e-04
1.496548274137068574e+03 3.290453870921894973e-04
1.497448724362181110e+03 3.219622682930001938e-04
1.498349174587293646e+03 3.156955821319716473e-04
1.499249624812406182e+03 3.103799827764188433e-04
1.500150075037518718e+03 3.057209785325837857e-04
1.501050525262631254e+03 3.017322686887238077e-04
1.501950975487743790e+03 2.984837726239398105e-04
1.502851425712856326e+03 2.956497924843992176e-04
1.503751875937968862e+03 2.926104889093869392e-04
1.504652326163081398e+03 2.888431854819220298e-04
1.505552776388193934e+03 2.844565411260725958e-04
1.506453226613306470e+03 2.804050515297882586e-04
1.507353676838419233e+03 2.774478060046094109e-04
1.508254127063531769e+03 2.752704054511108758e-04
1.509154577288644305e+03 2.730283470600310797e-04
1.510055027513756841e+03 2.702355304658974082e-04
1.510955477738869376e+03 2.667503495699099711e-04
1.511855927963981912e+03 2.626272272578476091e-04
1.512756378189094448e+03 2.581362523331918405e-04
1.513656828414206984e+03 2.536978553892848425e-04
1.514557278639319520e+03 2.497599515455856578e-04
1.515457728864432056e+03 2.466789236355362304e-04
1.516358179089544592e+03 2.445992708569844857e-04
1.517258629314657355e+03 2.432855128359448927e-04
1.518159079539769891e+03 2.423183362668093397e-04
1.519059529764882427e+03 2.413712490021628458e-04
1.519959979989994963e+03 2.401105702209567461e-04
1.520860430215107499e+03 2.383780499521828797e-04
1.521760880440220035e+03 2.364421484992972880e-04
1.522661330665332571e+03 2.347333174136257555e-04
1.523561780890445107e+03 2.331972999242368509e-04
1.524462231115557643e+03 2.313384006248363244e-04
1.525362681340670179e+03 2.291583898002822796e-04
1.526263131565782714e+03 2.271860433765055562e-04
1.527163581790895478e+03 2.255637936009905820e-04
1.528064032016008014e+03 2.239969576278420295e-04
1.528964482241120550e+03 2.223379090234572789e-04
1.529864932466233086e+03 2.208702796322404498e-04
1.530765382691345621e+03 2.199029910223475825e-04
1.531665832916458157e+03 2.191633807751907314e-04
1.532566283141570693e+03 2.182675389815069028e-04
1.533466733366683229e+03 2.171479324314580539e-04
1.534367183591795765e+03 2.155951482919111789e-04
1.535267633816908301e+03 2.133496192158714964e-04
1.536168084042020837e+03 2.104584871211741097e-04
1.537068534267133600e+03 2.071107396174095682e-04
1.537968984492246136e+03 2.037359419059294190e-04
1.538869434717358672e+03 2.008506725483487484e-04
1.539769884942471208e+03 1.986183655504922350e-04
1.540670335167583744e+03 1.968421569351041774e-04
1.541570785392696280e+03 1.951150151440297930e-04
1.542471235617808816e+03 1.929940108120137623e-04
1.543371685842921352e+03 1.904791453969132222e-04
1.544272136068033888e+03 1.881072221536545690e-04
1.545172586293146423e+03 1.864059697753959750e-04
1.546073036518258959e+03 1.854340868605108361e-04
1.546973486743371723e+03 1.847460160054804792e-04
1.547873936968484259e+03 1.837780827666913696e-04
1.548774387193596795e+03 1.823088315165855705e-04
1.549674837418709330e+03 1.805781326825256700e-04
1.550575287643821866e+03 1.790281941262577604e-04
1.551475737868934402e+03 1.778960216209234276e-04
1.552376188094046938e+03 1.772889213105832175e-04
1.553276638319159474e+03 1.774054521016457794e-04
1.554177088544272010e+03 1.783180687647153398e-04
1.555077538769384546e+03 1.801053782749494341e-04
1.555977988994497082e+03 1.830678464181164234e-04
1.556878439219609618e+03 1.872900173512162525e-04
1.557778889444722381e+03 1.921671624556479518e-04
1.558679339669834917e+03 1.971861305000538705e-04
1.559579789894947453e+03 2.031393603673549832e-04
1.560480240120059989e+03 2.116016240285894178e-04
1.561380690345172525e+03 2.242646186298343229e-04
1.562281140570285061e+03 2.432940445103756017e-04
1.563181590795397597e+03 2.706754540134360650e-04
1.564082041020510133e+03 3.066005451499460984e-04
1.564982491245622668e+03 3.485230767811483849e-04
1.565882941470735204e+03 3.911098965933329421e-04
1.566783391695847740e+03 4.248472946750469570e-04
1.567683841920960504e+03 4.374252800268998553e-04
1.568584292146073039e+03 4.235746330283367473e-04
1.569484742371185575e+03 3.905803821030735920e-04
1.570385192596298111e+03 3.488538873099057691e-04
1.571285642821410647e+03 3.037564345728357485e-04
1.572186093046523183e+03 2.586489470514684373e-04
1.573086543271635719e+03 2.175975239325896255e-04
1.573986993496748255e+03 1.834800831681781803e-04
1.574887443721860791e+03 1.567134976323594211e-04
1.575787893946973327e+03 1.362021015433057273e-04
1.576688344172085863e+03 1.205649193543552105e-04
1.577588794397198626e+03 1.085890694360015313e-04
1.578489244622311162e+03 9.930957560173903651e-05
1.579389694847423698e+03 9.200560557590919931e-05
1.580290145072536234e+03 8.615146045176849253e-05
1.581190595297648770e+03 8.137027763339525234e-05
1.582091045522761306e+03 7.739487124804905911e-05
1.582991495747873842e+03 7.403517995821886407e-05
1.583891945972986377e+03 7.115421927033033049e-05
1.584792396198098913e+03 6.865158030448543103e-05
1.585692846423211449e+03 6.645237728548519546e-05
1.586593296648323985e+03 6.449983256371372435e-05
1.587493746873436749e+03 6.275023952170134909e-05
1.588394197098549284e+03 6.116948458478264341e-05
1.589294647323661820e+03 5.973060444555806453e-05
1.590195097548774356e+03 5.841204174393473418e-05
1.591095547773886892e+03 5.719637995500526974e-05
1.591995997998999428e+03 5.606941248181548308e-05
1.592896448224111964e+03 5.501944846734233956e-05
1.593796898449224500e+03 5.403678872365434287e-05
1.594697348674337036e+03 5.311332557309560089e-05
1.595597798899449572e+03 5.224223408105790108e-05
1.596498249124562108e+03 5.141773148090914811e-05
1.597398699349674871e+03 5.063488803160184974e-05
1.598299149574787407e+03 4.988947705799045841e-05
1.599199599799899943e+03 4.917785512154800731e-05
1.600100050025012479e+03 4.849686556342996951e-05
1.601000500250125015e+03 4.784376032620148324e-05
1.601900950475237551e+03 4.721613618045946337e-05
1.602801400700350086e+03 4.661188238547777995e-05
1.603701850925462622e+03 4.602913748735199093e-05
1.604602301150575158e+03 4.546625346615920232e-05
1.605502751375687694e+03 4.492176582944376433e-05
1.606403201600800230e+03 4.439436854461621386e-05
1.607303651825912766e+03 4.388289293042968794e-05
1.608204102051025529e+03 4.338628980435735880e-05
1.609104552276138065e+03 4.290361432065991298e-05
1.610005002501250601e+03 4.243401304241623483e-05
1.610905452726363137e+03 4.197671287652560477e-05
1.611805902951475673e+03 4.153101156887546166e-05
1.612706353176588209e+03 4.109626951136582159e-05
1.613606803401700745e+03 4.067190265625596538e-05
1.614507253626813281e+03 4.025737636864986654e-05
1.615407703851925817e+03 3.985220007659515421e-05
1.616308154077038353e+03 3.945592260162767811e-05
1.617208604302150889e+03 3.906812807169684918e-05
1.618109054527263652e+03 3.868843233409910307e-05
1.619009504752376188e+03 3.831647979900086050e-05
1.619909954977488724e+03 3.795194065482925314e-05
1.620810405202601260e+03 3.759450840573667863e-05
1.621710855427713796e+03 3.724389768873855874e-05
1.622611305652826331e+03 3.689984233436176009e-05
1.623511755877938867e+03 3.656209363983055610e-05
1.624412206103051403e+03 3.623041882821628025e-05
1.625312656328163939e+03 3.590459967067749503e-05
1.626213106553276475e+03 3.558443125205528970e-05
1.627113556778389011e+03 3.526972086275610832e-05
1.628014007003501774e+03 3.496028700211893333e-05
1.628914457228614310e+03 3.465595848040123447e-05
1.629814907453726846e+03 3.435657360818930914e-05
1.630715357678839382e+03 3.406197946343795233e-05
1.631615807903951918e+03 3.377203122759600399e-05
1.632516258129064454e+03 3.348659158330451701e-05
1.633416708354176990e+03 3.320553016709402810e-05
1.634317158579289526e+03 3.292872307126398361e-05
1.635217608804402062e+03 3.265605238984763494e-05
1.636118059029514598e+03 3.238740580413596785e-05
1.637018509254627133e+03 3.212267620376504197e-05
1.637918959479739897e+03 3.186176133982938848e-05
1.638819409704852433e+03 3.160456350686496733e-05
1.639719859929964969e+03 3.135098925091109654e-05
1.640620310155077505e+03 3.110094910115402273e-05
1.641520760380190040e+03 3.085435732292849520e-05
1.642421210605302576e+03 3.061113169008825263e-05
1.643321660830415112e+03 3.037119327496596549e-05
1.644222111055527648e+03 3.013446625433022241e-05
1.645122561280640184e+03 2.990087772990262656e-05
1.646023011505752720e+03 2.967035756215435623e-05
1.646923461730865256e+03 2.944283821621903352e-05
1.647823911955978019e+03 2.921825461888177545e-05
1.648724362181090555e+03 2.899654402570003974e-05
1.649624812406203091e+03 2.877764589740763665e-05
1.650525262631315627e+03 2.856150178482894854e-05
1.651425712856428163e+03 2.834805522161008796e-05
1.652326163081540699e+03 2.813725162412928667e-05
1.653226613306653235e+03 2.792903819801917983e-05
1.654127063531765771e+03 2.772336385077244018e-05
1.655027513756878307e+03 2.752017910995996434e-05
1.655927963981990843e+03 2.731943604662897724e-05
1.656828414207103378e+03 2.712108820348350157e-05
1.657728864432216142e+03 2.692509052749191944e-05
1.658629314657328678e+03 2.673139930658725494e-05
1.659529764882441214e+03 2.653997211016391258e-05
1.660430215107553749e+03 2.635076773309143883e-05
1.661330665332666285e+03 2.616374614299631296e-05
1.662231115557778821e+03 2.597886843057538740e-05
1.663131565782891357e+03 2.579609676273374243e-05
1.664032016008003893e+03 2.561539433834633737e-05
1.664932466233116429e+03 2.543672534646607242e-05
1.665832916458228965e+03 2.526005492681207670e-05
1.666733366683341501e+03 2.508534913238573977e-05
1.667633816908454037e+03 2.491257489407270668e-05
1.668534267133566800e+03 2.474169998710035631e-05
1.669434717358679336e+03 2.457269299923403512e-05
1.670335167583791872e+03 2.440552330059570448e-05
1.671235617808904408e+03 2.424016101500637663e-05
1.672136068034016944e+03 2.407657699275459156e-05
1.673036518259129480e+03 2.391474278470337881e-05
1.673936968484242016e+03 2.375463061765547301e-05
1.674837418709354552e+03 2.359621337089610530e-05
1.675737868934467087e+03 2.343946455384822330e-05
1.676638319159579623e+03 2.328435828477139129e-05
1.677538769384692159e+03 2.313086927044161547e-05
1.678439219609804923e+03 2.297897278676020518e-05
1.679339669834917459e+03 2.282864466023315012e-05
1.680240120060029994e+03 2.267986125027556199e-05
1.681140570285142530e+03 2.253259943229228958e-05
1.682041020510255066e+03 2.238683658149353151e-05
1.682941470735367602e+03 2.224255055740331853e-05
1.683841920960480138e+03 2.209971968902609295e-05
1.684742371185592674e+03 2.195832276063199826e-05
1.685642821410705210e+03 2.181833899813204246e-05
1.686543271635817746e+03 2.167974805600880319e-05
1.687443721860930282e+03 2.154253000477680290e-05
1.688344172086043045e+03 2.140666531894216252e-05
1.689244622311155581e+03 2.127213486543954124e-05
1.690145072536268117e+03 2.113891989251844082e-05
1.691045522761380653e+03 2.100700201906028039e-05
1.691945972986493189e+03 2.087636322430217237e-05
1.692846423211605725e+03 2.074698583794893771e-05
1.693746873436718261e+03 2.061885253065405812e-05
1.694647323661830796e+03 2.049194630485265861e-05
1.695547773886943332e+03 2.036625048592819394e-05
1.696448224112055868e+03 2.024174871369953708e-05
1.697348674337168404e+03 2.011842493421109202e-05
1.698249124562281168e+03 1.999626339181465189e-05
1.699149574787393703e+03 1.987524862152658341e-05
1.700050025012506239e+03 1.975536544165207062e-05
1.700950475237618775e+03 1.963659894665985343e-05
1.701850925462731311e+03 1.951893450030019674e-05
1.702751375687843847e+03 1.940235772895331347e-05
1.703651825912956383e+03 1.928685451519947309e-05
1.704552276138068919e+03 1.917241099160014336e-05
1.705452726363181455e+03 1.905901353468275191e-05
1.706353176588293991e+03 1.894664875911775150e-05
1.707253626813406527e+03 1.883530351208486162e-05
1.708154077038519290e+03 1.872496486781485925e-05
1.709054527263631826e+03 1.861562012230425259e-05
1.709954977488744362e+03 1.850725678819314403e-05
1.710855427713856898e+03 1.839986258980153916e-05
1.711755877938969434e+03 1.829342545831652591e-05
1.712656328164081970e+03 1.818793352712626141e-05
1.713556778389194506e+03 1.808337512729045991e-05
1.714457228614307041e+03 1.797973878314981786e-05
1.715357678839419577e+03 1.787701320806083026e-05
1.716258129064532113e+03 1.777518730025739443e-05
1.717158579289644649e+03 1.767425013883062220e-05
1.718059029514757185e+03 1.757419097982512255e-05
1.718959479739869948e+03 1.747499925244491741e-05
1.719859929964982484e+03 1.737666455536800476e-05
1.720760380190095020e+03 1.727917665316252487e-05
1.721660830415207556e+03 1.718252547280266991e-05
1.722561280640320092e+03 1.708670110028119249e-05
1.723461730865432628e+03 1.699169377731316340e-05
1.724362181090545164e+03 1.689749389813015518e-05
1.725262631315657700e+03 1.680409200635936621e-05
1.726163081540770236e+03 1.671147879198632311e-05
1.727063531765882772e+03 1.661964508839942025e-05
1.727963981990995308e+03 1.652858186950937746e-05
1.728864432216108071e+03 1.643828024694516461e-05
1.729764882441220607e+03 1.634873146732305558e-05
1.730665332666333143e+03 1.625992690958447142e-05
1.731565782891445679e+03 1.617185808240240280e-05
1.732466233116558215e+03 1.608451662165292853e-05
1.733366683341670750e+03 1.599789428795177269e-05
1.734267133566783286e+03 1.591198296424923934e-05
1.735167583791895822e+03 1.582677465348843402e-05
1.736068034017008358e+03 1.574226147631812233e-05
1.736968484242120894e+03 1.565843566886296996e-05
1.737868934467233430e+03 1.557528958054765051e-05
1.738769384692346193e+03 1.549281567197326279e-05
1.739669834917458729e+03 1.541100651284410924e-05
1.740570285142571265e+03 1.532985477994531665e-05
1.741470735367683801e+03 1.524935325516634584e-05
1.742371185592796337e+03 1.516949482357213492e-05
1.743271635817908873e+03 1.509027247151914729e-05
1.744172086043021409e+03 1.501167928481501300e-05
1.745072536268133945e+03 1.493370844691972721e-05
1.745972986493246481e+03 1.485635323719005244e-05
1.746873436718359017e+03 1.477960702916185942e-05
1.747773886943471553e+03 1.470346328887214297e-05
1.748674337168584316e+03 1.462791557321924072e-05
1.749574787393696852e+03 1.455295752835966748e-05
1.750475237618809388e+03 1.447858288813882058e-05
1.751375687843921924e+03 1.440478547255968332e-05
1.752276138069034459e+03 1.433155918628187912e-05
1.753176588294146995e+03 1.425889801715589967e-05
1.754077038519259531e+03 1.418679603478780424e-05
1.754977488744372067e+03 1.411524738913575718e-05
1.755877938969484603e+03 1.404424630913623879e-05
1.756778389194597139e+03 1.397378710136005978e-05
1.757678839419709675e+03 1.390386414869670403e-05
1.758579289644822438e+03 1.383447190906628109e-05
1.759479739869934974e+03 1.376560491415952574e-05
1.760380190095047510e+03 1.369725776820290360e-05
1.761280640320160046e+03 1.362942514675039142e-05
1.762181090545272582e+03 1.356210179549984513e-05
1.763081540770385118e+03 1.349528252913427233e-05
1.763981990995497654e+03 1.342896223018624569e-05
1.764882441220610190e+03 1.336313584792565891e-05
1.765782891445722726e+03 1.329779839727084046e-05
1.766683341670835262e+03 1.323294495772033831e-05
1.767583791895947797e+03 1.316857067230769481e-05
1.768484242121060333e+03 1.310467074657554411e-05
1.769384692346173097e+03 1.304124044757189340e-05
1.770285142571285633e+03 1.297827510286502351e-05
1.771185592796398169e+03 1.291577009957819329e-05
1.772086043021510704e+03 1.285372088344364442e-05
1.772986493246623240e+03 1.279212295787480212e-05
1.773886943471735776e+03 1.273097188305668040e-05
1.774787393696848312e+03 1.267026327505371748e-05
1.775687843921960848e+03 1.260999280493512450e-05
1.776588294147073384e+03 1.255015619791712911e-05
1.777488744372185920e+03 1.249074923252112810e-05
1.778389194597298456e+03 1.243176773974844350e-05
1.779289644822411219e+03 1.237320760227025583e-05
1.780190095047523755e+03 1.231506475363342605e-05
1.781090545272636291e+03 1.225733517748083558e-05
1.781990995497748827e+03 1.220001490678597007e-05
1.782891445722861363e+03 1.214310002310320717e-05
1.783791895947973899e+03 1.208658665583018801e-05
1.784692346173086435e+03 1.203047098148535743e-05
1.785592796398198971e+03 1.197474922299761331e-05
1.786493246623311506e+03 1.191941764901045211e-05
1.787393696848424042e+03 1.186447257319721892e-05
1.788294147073536578e+03 1.180991035358988642e-05
1.789194597298649342e+03 1.175572739192010722e-05
1.790095047523761878e+03 1.170192013297129809e-05
1.790995497748874413e+03 1.164848506394291969e-05
1.791895947973986949e+03 1.159541871382668255e-05
1.792796398199099485e+03 1.154271765279298856e-05
1.793696848424212021e+03 1.149037849158859233e-05
1.794597298649324557e+03 1.143839788094519769e-05
1.795497748874437093e+03 1.138677251099891484e-05
1.796398199099549629e+03 1.133549911071794056e-05
1.797298649324662165e+03 1.128457444734347575e-05
1.798199099549774701e+03 1.123399532583721098e-05
1.799099549774887464e+03 1.118375858834097872e-05
1.800000000000000000e+03 1.113386111364387305e-05
