0.000000000000000000e+00 1.064617719854290450e-03
9.004502251125562351e-01 1.409451559527284030e-03
1.800900450225112470e+00 1.875919127519225195e-03
2.701350675337668594e+00 2.434448037853960065e-03
3.601800900450224940e+00 2.941201297231421825e-03
4.502251125562780842e+00 3.214887986417404395e-03
5.402701350675337189e+00 3.217638693632394239e-03
6.303151575787893535e+00 2.959611658286012952e-03
7.203601800900449881e+00 2.472085213243963887e-03
8.104052026013006227e+00 1.920559003732281262e-03
9.004502251125561685e+00 1.451855459473443176e-03
9.904952476238118919e+00 1.100645695456580484e-03
1.080540270135067438e+01 8.470616727443291841e-04
1.170585292646323161e+01 6.645724274462221819e-04
1.260630315157578707e+01 5.319701273335940717e-04
1.350675337668834430e+01 4.339859056655658302e-04
1.440720360180089976e+01 3.601334784496393391e-04
1.530765382691345522e+01 3.033332995780426344e-04
1.620810405202601245e+01 2.588259796760448940e-04
1.710855427713856969e+01 2.234070308958036673e-04
1.800900450225112337e+01 1.948646079661961548e-04
1.890945472736368060e+01 1.716215007234258595e-04
1.980990495247623784e+01 1.525084989065935933e-04
2.071035517758879507e+01 1.365696365165041770e-04
2.161080540270134875e+01 1.229374052478413796e-04
2.251125562781390599e+01 1.109695662798250074e-04
2.341170585292646322e+01 1.004220650308169623e-04
2.431215607803901690e+01 9.122324582084984502e-05
2.521260630315157414e+01 8.324243224499504594e-05
2.611305652826413137e+01 7.630057295758267580e-05
2.701350675337668861e+01 7.022770954771924889e-05
2.791395697848924229e+01 6.488268680987620350e-05
2.881440720360179952e+01 6.015225873956235743e-05
2.971485742871435676e+01 5.594613391808543851e-05
3.061530765382691044e+01 5.219224997422699131e-05
3.151575787893946767e+01 4.883133478646806629e-05
3.241620810405202491e+01 4.580812616022606403e-05
3.331665832916458214e+01 4.306225718107152577e-05
3.421710855427713938e+01 4.053857653378368971e-05
3.511755877938969661e+01 3.821286342113620275e-05
3.601800900450224674e+01 3.607945781859269265e-05
3.691845922961480397e+01 3.412269251067925646e-05
3.781890945472736121e+01 3.232132826425517891e-05
3.871935967983991844e+01 3.066262279779566097e-05
3.961980990495247568e+01 2.913816124018822509e-05
4.052026013006503291e+01 2.773704730415634895e-05
4.142071035517759015e+01 2.644507844045314993e-05
4.232116058029014027e+01 2.524461265500397295e-05
4.322161080540269751e+01 2.411960221543407596e-05
4.412206103051525474e+01 2.306433332511763769e-05
4.502251125562781198e+01 2.207910219661619698e-05
4.592296148074036921e+01 2.116169615323346779e-05
4.682341170585292645e+01 2.030721829260428264e-05
4.772386193096548368e+01 1.951039224055946126e-05
4.862431215607803381e+01 1.876659586042314954e-05
4.952476238119059104e+01 1.807207939991429548e-05
5.042521260630314828e+01 1.742405150458329062e-05
5.132566283141570551e+01 1.682083655758348829e-05
5.222611305652826275e+01 1.626202605404621006e-05
5.312656328164081998e+01 1.574829711597072800e-05
5.402701350675337721e+01 1.527966287137429041e-05
5.492746373186592734e+01 1.484941567863670364e-05
5.582791395697848458e+01 1.443522693608818859e-05
5.672836418209104181e+01 1.400896942276933745e-05
5.762881440720359905e+01 1.356967240296559587e-05
5.852926463231615628e+01 1.314069238266181387e-05
5.942971485742871351e+01 1.274344366689691010e-05
6.033016508254127075e+01 1.239010776611373765e-05
6.123061530765382088e+01 1.208451743872407852e-05
6.213106553276637811e+01 1.182000043180034776e-05
6.303151575787893535e+01 1.156858188978452734e-05
6.393196598299149258e+01 1.128528251965371460e-05
6.483241620810404982e+01 1.095798488174878099e-05
6.573286643321659994e+01 1.062124894878646856e-05
6.663331665832916428e+01 1.030199052832292469e-05
6.753376688344171441e+01 1.000465720508947864e-05
6.843421710855427875e+01 9.731656673228647432e-06
6.933466733366682888e+01 9.487506022656086563e-06
7.023511755877939322e+01 9.274604598952503005e-06
7.113556778389194335e+01 9.093485504959913836e-06
7.203601800900449348e+01 8.940993565488564244e-06
7.293646823411705782e+01 8.802825054837244909e-06
7.383691845922960795e+01 8.654197504346062433e-06
7.473736868434217229e+01 8.485747316404105051e-06
7.563781890945472242e+01 8.306850371223180161e-06
7.653826913456728676e+01 8.113368084750437266e-06
7.743871935967983688e+01 7.900205912206983969e-06
7.833916958479238701e+01 7.685435783494353024e-06
7.923961980990495135e+01 7.488697581203450951e-06
8.014007003501750148e+01 7.316194517810959352e-06
8.104052026013006582e+01 7.167038726277204480e-06
8.194097048524261595e+01 7.039477908544988637e-06
8.284142071035518029e+01 6.932083162495019389e-06
8.374187093546773042e+01 6.841402205829646433e-06
8.464232116058028055e+01 6.759723684352411227e-06
8.554277138569284489e+01 6.681826429901363514e-06
8.644322161080539502e+01 6.611317844112617747e-06
8.734367183591795936e+01 6.544702513890736781e-06
8.824412206103050949e+01 6.463476416666789452e-06
8.914457228614307382e+01 6.362957935574557148e-06
9.004502251125562395e+01 6.265852310454422611e-06
9.094547273636817408e+01 6.191234356960853652e-06
9.184592296148073842e+01 6.134384935307424008e-06
9.274637318659328855e+01 6.079601408922153987e-06
9.364682341170585289e+01 6.031553663725649030e-06
9.454727363681840302e+01 6.014219497201273503e-06
9.544772386193096736e+01 6.035736203680838106e-06
9.634817408704351749e+01 6.063459061603102800e-06
9.724862431215606762e+01 6.038206303864141053e-06
9.814907453726863196e+01 5.946682388407202854e-06
9.904952476238118209e+01 5.827105777838337908e-06
9.994997498749374643e+01 5.690557589309740876e-06
1.008504252126062966e+02 5.530678850895343029e-06
1.017508754377188609e+02 5.371466712326758735e-06
1.026513256628314110e+02 5.243400470271379899e-06
1.035517758879439612e+02 5.156676920586590890e-06
1.044522261130565255e+02 5.103870687479683684e-06
1.053526763381690756e+02 5.063637792924604200e-06
1.062531265632816400e+02 5.015156422457023788e-06
1.071535767883941901e+02 4.965485266698864712e-06
1.080540270135067544e+02 4.940336817318686816e-06
1.089544772386193046e+02 4.954558816750784239e-06
1.098549274637318547e+02 5.003282820365933438e-06
1.107553776888444190e+02 5.063318043281615367e-06
1.116558279139569692e+02 5.092138298004547437e-06
1.125562781390695335e+02 5.050904700846110423e-06
1.134567283641820836e+02 4.960724020673150733e-06
1.143571785892946480e+02 4.870978400799080749e-06
1.152576288144071981e+02 4.794668298948762457e-06
1.161580790395197482e+02 4.726401347717764801e-06
1.170585292646323126e+02 4.661297361173756751e-06
1.179589794897448627e+02 4.584130723298977679e-06
1.188594297148574270e+02 4.488943213781260279e-06
1.197598799399699772e+02 4.380762369997616583e-06
1.206603301650825415e+02 4.263780999565139481e-06
1.215607803901950916e+02 4.152635269677023896e-06
1.224612306153076418e+02 4.063996532285286720e-06
1.233616808404202061e+02 4.004553595934034315e-06
1.242621310655327562e+02 3.974572765153206468e-06
1.251625812906453206e+02 3.972029040238890116e-06
1.260630315157578707e+02 3.991580253212124450e-06
1.269634817408704350e+02 4.023787134899869632e-06
1.278639319659829852e+02 4.052852330657642587e-06
1.287643821910955353e+02 4.052739540047287346e-06
1.296648324162080996e+02 4.015563488100774732e-06
1.305652826413206640e+02 3.966469919380920767e-06
1.314657328664331999e+02 3.918733450806664482e-06
1.323661830915457642e+02 3.861470409731038477e-06
1.332666333166583286e+02 3.793914284026449814e-06
1.341670835417708929e+02 3.734885353787954238e-06
1.350675337668834288e+02 3.703138807301140983e-06
1.359679839919959932e+02 3.704672793124354773e-06
1.368684342171085575e+02 3.727919717624093212e-06
1.377688844422210934e+02 3.738910457565869708e-06
1.386693346673336578e+02 3.705139977747863566e-06
1.395697848924462221e+02 3.639798527605646052e-06
1.404702351175587864e+02 3.582127653780472905e-06
1.413706853426713224e+02 3.555484113239596354e-06
1.422711355677838867e+02 3.564940681373149810e-06
1.431715857928964510e+02 3.604643304095060533e-06
1.440720360180089870e+02 3.661757003397218875e-06
1.449724862431215513e+02 3.727243867289617572e-06
1.458729364682341156e+02 3.795388904938054362e-06
1.467733866933466800e+02 3.846588603451256800e-06
1.476738369184592159e+02 3.861085016463338073e-06
1.485742871435717802e+02 3.850977298733865616e-06
1.494747373686843446e+02 3.855157419224845498e-06
1.503751875937968805e+02 3.884834022448652617e-06
1.512756378189094448e+02 3.889337717178693983e-06
1.521760880440220092e+02 3.808291238104320797e-06
1.530765382691345735e+02 3.658842752582387762e-06
1.539769884942471094e+02 3.509046279992884444e-06
1.548774387193596738e+02 3.400688041007917251e-06
1.557778889444722381e+02 3.341510831012840290e-06
1.566783391695847740e+02 3.323516309098019714e-06
1.575787893946973384e+02 3.326677828377682982e-06
1.584792396198099027e+02 3.321916239083978710e-06
1.593796898449224670e+02 3.299039853498418461e-06
1.602801400700350030e+02 3.281431078381363789e-06
1.611805902951475673e+02 3.296969596761925808e-06
1.620810405202601316e+02 3.360331395116242036e-06
1.629814907453726676e+02 3.471942428637185106e-06
1.638819409704852319e+02 3.606999681477599474e-06
1.647823911955977962e+02 3.710436366105541652e-06
1.656828414207103606e+02 3.739477292675739322e-06
1.665832916458228965e+02 3.696595267786924721e-06
1.674837418709354608e+02 3.601210416480525197e-06
1.683841920960480252e+02 3.490060313706454042e-06
1.692846423211605611e+02 3.409626582968956572e-06
1.701850925462731254e+02 3.379690483926424401e-06
1.710855427713856898e+02 3.384228723261190064e-06
1.719859929964982541e+02 3.392913253485502193e-06
1.728864432216107900e+02 3.395963817759211836e-06
1.737868934467233544e+02 3.394880272750331328e-06
1.746873436718359187e+02 3.372379827227310484e-06
1.755877938969484546e+02 3.324907530811277700e-06
1.764882441220610190e+02 3.284239271048179322e-06
1.773886943471735833e+02 3.270770803475713774e-06
1.782891445722861476e+02 3.266198100194157370e-06
1.791895947973986836e+02 3.247866606917305820e-06
1.800900450225112479e+02 3.231646073527767018e-06
1.809904952476238122e+02 3.245299452488828855e-06
1.818909454727363482e+02 3.284711572905261084e-06
1.827913956978489125e+02 3.315641130892616004e-06
1.836918459229614768e+02 3.310080870265896914e-06
1.845922961480740412e+02 3.275564798088784324e-06
1.854927463731865771e+02 3.238533185982300709e-06
1.863931965982991414e+02 3.201296128420745077e-06
1.872936468234117058e+02 3.147972523613703042e-06
1.881940970485242417e+02 3.081343758387914153e-06
1.890945472736368060e+02 3.024795251269024505e-06
1.899949974987493704e+02 2.993999229693993686e-06
1.908954477238619347e+02 2.976376294563909409e-06
1.917958979489744706e+02 2.945784040355537787e-06
1.926963481740870350e+02 2.900655686479435474e-06
1.935967983991995993e+02 2.866001087450178093e-06
1.944972486243121352e+02 2.862895629703304869e-06
1.953976988494246996e+02 2.899382906349600322e-06
1.962981490745372639e+02 2.973746955783149910e-06
1.971985992996498283e+02 3.072169379036006931e-06
1.980990495247623642e+02 3.168275985625241009e-06
1.989994997498749285e+02 3.235828620822440254e-06
1.998999499749874929e+02 3.265665023629974604e-06
2.008004002001000288e+02 3.265366468513347728e-06
2.017008504252125931e+02 3.247821840247843620e-06
2.026013006503251574e+02 3.220091021098527113e-06
2.035017508754377218e+02 3.195131514849516326e-06
2.044022011005502577e+02 3.186257649463435753e-06
2.053026513256628220e+02 3.179294174175122404e-06
2.062031015507753864e+02 3.149486148787969575e-06
2.071035517758879223e+02 3.093803819488127630e-06
2.080040020010004866e+02 3.026531093837055089e-06
2.089044522261130510e+02 2.970028193310175878e-06
2.098049024512256153e+02 2.939215427233001730e-06
2.107053526763381512e+02 2.923426552361768625e-06
2.116058029014507156e+02 2.906214313088481436e-06
2.125062531265632799e+02 2.895810940499977036e-06
2.134067033516758158e+02 2.909158700965978536e-06
2.143071535767883802e+02 2.943702361705185280e-06
2.152076038019009445e+02 2.985029470143883130e-06
2.161080540270135089e+02 3.030997023853405358e-06
2.170085042521260448e+02 3.087039107001495784e-06
2.179089544772386091e+02 3.142114514320172822e-06
2.188094047023511735e+02 3.174046085176721364e-06
2.197098549274637094e+02 3.174517367245996425e-06
2.206103051525762737e+02 3.145016299750526145e-06
2.215107553776888381e+02 3.081703006998974742e-06
2.224112056028014024e+02 3.004976329642384311e-06
2.233116558279139383e+02 2.953129430034993867e-06
2.242121060530265027e+02 2.940457031740156590e-06
2.251125562781390670e+02 2.954527288676610060e-06
2.260130065032516029e+02 2.976487867239694586e-06
2.269134567283641672e+02 2.991262728341153486e-06
2.278139069534767316e+02 2.992140780696678910e-06
2.287143571785892959e+02 2.981625266546949851e-06
2.296148074037018318e+02 2.963485974348748270e-06
2.305152576288143962e+02 2.938853898051830145e-06
2.314157078539269605e+02 2.919254781384524076e-06
2.323161580790394964e+02 2.931710196981553169e-06
2.332166083041520608e+02 2.995467578896063314e-06
2.341170585292646251e+02 3.103578880305860489e-06
2.350175087543771895e+02 3.218163658709034386e-06
2.359179589794897254e+02 3.290489000473258905e-06
2.368184092046022897e+02 3.297983897551409499e-06
2.377188594297148541e+02 3.248928696632390825e-06
2.386193096548273900e+02 3.173302873065280312e-06
2.395197598799399543e+02 3.102363487583683989e-06
2.404202101050525187e+02 3.049662992705356741e-06
2.413206603301650830e+02 3.029660013997402980e-06
2.422211105552776189e+02 3.050280115279264024e-06
2.431215607803901833e+02 3.085762443110651712e-06
2.440220110055027476e+02 3.093429091151901878e-06
2.449224612306152835e+02 3.066598858111015404e-06
2.458229114557278479e+02 3.029565756936574970e-06
2.467233616808404122e+02 2.997777521845211828e-06
2.476238119059529765e+02 2.982968244556903482e-06
2.485242621310655124e+02 2.993222251659434126e-06
2.494247123561780768e+02 3.026161796749906052e-06
2.503251625812906411e+02 3.088126216074345713e-06
2.512256128064031770e+02 3.193732129904853102e-06
2.521260630315157414e+02 3.331420088690502540e-06
2.530265132566283057e+02 3.450993759667701664e-06
2.539269634817408701e+02 3.509111337479609047e-06
2.548274137068534060e+02 3.515181594667545150e-06
2.557278639319659703e+02 3.500887025200371214e-06
2.566283141570785347e+02 3.474413166768181212e-06
2.575287643821910706e+02 3.424413044610560910e-06
2.584292146073036633e+02 3.343712306884785440e-06
2.593296648324161993e+02 3.250600250369895170e-06
2.602301150575287352e+02 3.175580515793352949e-06
2.611305652826413279e+02 3.128429222066550849e-06
2.620310155077538639e+02 3.096733195153247490e-06
2.629314657328663998e+02 3.069622842063656928e-06
2.638319159579789925e+02 3.054296541767655133e-06
2.647323661830915285e+02 3.062018667970298397e-06
2.656328164082040644e+02 3.093865535912632002e-06
2.665332666333166571e+02 3.142704545125999400e-06
2.674337168584291931e+02 3.197728313270441529e-06
2.683341670835417858e+02 3.250449094563087004e-06
2.692346173086543217e+02 3.306561189856523907e-06
2.701350675337668577e+02 3.372151852974414340e-06
2.710355177588794504e+02 3.432139160578320530e-06
2.719359679839919863e+02 3.466801010392828528e-06
2.728364182091045222e+02 3.467675616577776756e-06
2.737368684342171150e+02 3.429445540459736200e-06
2.746373186593296509e+02 3.356998645444280492e-06
2.755377688844421868e+02 3.270501548139757863e-06
2.764382191095547796e+02 3.188617936124116695e-06
2.773386693346673155e+02 3.126903663814186625e-06
2.782391195597798514e+02 3.101681000915103472e-06
2.791395697848924442e+02 3.119098541704744567e-06
2.800400200100049801e+02 3.159322759652859167e-06
2.809404702351175729e+02 3.187649781032778732e-06
2.818409204602301088e+02 3.192927806114290394e-06
2.827413706853426447e+02 3.194105931960017893e-06
2.836418209104552375e+02 3.212325008314654757e-06
2.845422711355677734e+02 3.263885937708255828e-06
2.854427213606803093e+02 3.352678160572462213e-06
2.863431715857929021e+02 3.455008507265498245e-06
2.872436218109054380e+02 3.532326226684661490e-06
2.881440720360179739e+02 3.564555507019140190e-06
2.890445222611305667e+02 3.558945251604750039e-06
2.899449724862431026e+02 3.533600957239799594e-06
2.908454227113556385e+02 3.508314417997601982e-06
2.917458729364682313e+02 3.494449750845848160e-06
2.926463231615807672e+02 3.491478297463419657e-06
2.935467733866933600e+02 3.486425952853029410e-06
2.944472236118058959e+02 3.465932878622171294e-06
2.953476738369184318e+02 3.430837276920147085e-06
2.962481240620310246e+02 3.400337971527487722e-06
2.971485742871435605e+02 3.399707778031751328e-06
2.980490245122560964e+02 3.433176474211850573e-06
2.989494747373686891e+02 3.484160122693569640e-06
2.998499249624812251e+02 3.543812266951722919e-06
3.007503751875937610e+02 3.607671853675137414e-06
3.016508254127063537e+02 3.672612978294583301e-06
3.025512756378188897e+02 3.754128716982521123e-06
3.034517258629314256e+02 3.857552444490227089e-06
3.043521760880440183e+02 3.952390739794909105e-06
3.052526263131565543e+02 4.002191166530084991e-06
3.061530765382691470e+02 3.999722863231100698e-06
3.070535267633816829e+02 3.959107766264733725e-06
3.079539769884942189e+02 3.893388370746524674e-06
3.088544272136068116e+02 3.803423021742607603e-06
3.097548774387193475e+02 3.690735430654937805e-06
3.106553276638318835e+02 3.578224603650072684e-06
3.115557778889444762e+02 3.489493886696829292e-06
3.124562281140570121e+02 3.427895524155771582e-06
3.133566783391695481e+02 3.387609873787026275e-06
3.142571285642821408e+02 3.358932665133843436e-06
3.151575787893946767e+02 3.341521268199768665e-06
3.160580290145072127e+02 3.343102756263860143e-06
3.169584792396198054e+02 3.362431785407670800e-06
3.178589294647323413e+02 3.398524855525485480e-06
3.187593796898449341e+02 3.446968098169370899e-06
3.196598299149574700e+02 3.497841400572329610e-06
3.205602801400700059e+02 3.547922851597875176e-06
3.214607303651825987e+02 3.583427639659782191e-06
3.223611805902951346e+02 3.581185583552630572e-06
3.232616308154076705e+02 3.541625663836177929e-06
3.241620810405202633e+02 3.490423442165775553e-06
3.250625312656327992e+02 3.444375983446159169e-06
3.259629814907453351e+02 3.395504969956795775e-06
3.268634317158579279e+02 3.334523990073972233e-06
3.277638819409704638e+02 3.273557005616957286e-06
3.286643321660829997e+02 3.226048813378838498e-06
3.295647823911955925e+02 3.193156882706815384e-06
3.304652326163081284e+02 3.177785020938165821e-06
3.313656828414207212e+02 3.186492771408998793e-06
3.322661330665332571e+02 3.217043484955399006e-06
3.331665832916457930e+02 3.252684922910813199e-06
3.340670335167583858e+02 3.275220906827830948e-06
3.349674837418709217e+02 3.294897240747162830e-06
3.358679339669834576e+02 3.342396936097464556e-06
3.367683841920960504e+02 3.428234582311608954e-06
3.376688344172085863e+02 3.531536955622543272e-06
3.385692846423211222e+02 3.617972102754955111e-06
3.394697348674337150e+02 3.661290311529980151e-06
3.403701850925462509e+02 3.651054561113958007e-06
3.412706353176587868e+02 3.595724717377612712e-06
3.421710855427713796e+02 3.525448915108771565e-06
3.430715357678839155e+02 3.471979532027513154e-06
3.439719859929965082e+02 3.441470756598165570e-06
3.448724362181090441e+02 3.419679183083828344e-06
3.457728864432215801e+02 3.388607477336788307e-06
3.466733366683341728e+02 3.347327515358178558e-06
3.475737868934467087e+02 3.317253274608367968e-06
3.484742371185592447e+02 3.323472318237607338e-06
3.493746873436718374e+02 3.365768075092857629e-06
3.502751375687843733e+02 3.420354316589652018e-06
3.511755877938969093e+02 3.479050860228982557e-06
3.520760380190095020e+02 3.552910569311042795e-06
3.529764882441220379e+02 3.639202991061317747e-06
3.538769384692345739e+02 3.719629317605792326e-06
3.547773886943471666e+02 3.770407322060240584e-06
3.556778389194597025e+02 3.775318675750720396e-06
3.565782891445722953e+02 3.743161063176826499e-06
3.574787393696848312e+02 3.696858585682147959e-06
3.583791895947973671e+02 3.657851707534005992e-06
3.592796398199099599e+02 3.644916490571713282e-06
3.601800900450224958e+02 3.662244465986951461e-06
3.610805402701350317e+02 3.685341285466515513e-06
3.619809904952476245e+02 3.670284038021554180e-06
3.628814407203601604e+02 3.607118923436652135e-06
3.637818909454726963e+02 3.542822385787592389e-06
3.646823411705852891e+02 3.519810121834460787e-06
3.655827913956978250e+02 3.535734184136291625e-06
3.664832416208103609e+02 3.572700499298439267e-06
3.673836918459229537e+02 3.635318571411006090e-06
3.682841420710354896e+02 3.737190237481109667e-06
3.691845922961480824e+02 3.877713858190259937e-06
3.700850425212606183e+02 4.042169182825501623e-06
3.709854927463731542e+02 4.203152864465685116e-06
3.718859429714857470e+02 4.326617135829414884e-06
3.727863931965982829e+02 4.379417997935409728e-06
3.736868434217108188e+02 4.346464232541488334e-06
3.745872936468234116e+02 4.251049241892245705e-06
3.754877438719359475e+02 4.138755039389401521e-06
3.763881940970484834e+02 4.031122979539669110e-06
3.772886443221610762e+02 3.919543287654722080e-06
3.781890945472736121e+02 3.801784599756462997e-06
3.790895447723861480e+02 3.700011595854897190e-06
3.799899949974987408e+02 3.642760819609668000e-06
3.808904452226112767e+02 3.639742485602180625e-06
3.817908954477238694e+02 3.683041549718445284e-06
3.826913456728364054e+02 3.770877498245155136e-06
3.835917958979489413e+02 3.906463297427458509e-06
3.844922461230615340e+02 4.075607842172127959e-06
3.853926963481740700e+02 4.240025401716412192e-06
3.862931465732866059e+02 4.356793795832778217e-06
3.871935967983991986e+02 4.412288974315403845e-06
3.880940470235117346e+02 4.415346821738369007e-06
3.889944972486242705e+02 4.370036298684645553e-06
3.898949474737368632e+02 4.284537012893236289e-06
3.907953976988493991e+02 4.172021322991887529e-06
3.916958479239619351e+02 4.042477118114885672e-06
3.925962981490745278e+02 3.912877506438138573e-06
3.934967483741870637e+02 3.800469066264182473e-06
3.943971985992996565e+02 3.717512341479549148e-06
3.952976488244121924e+02 3.671550413406442553e-06
3.961980990495247283e+02 3.658611403849906477e-06
3.970985492746373211e+02 3.675436885722141610e-06
3.979989994997498570e+02 3.736794226339301463e-06
3.988994497248623929e+02 3.857794004092382915e-06
3.997998999499749857e+02 4.029725379710466235e-06
4.007003501750875216e+02 4.223658355688904309e-06
4.016008004002000575e+02 4.408295203407048741e-06
4.025012506253126503e+02 4.546516454637449234e-06
4.034017008504251862e+02 4.602218265980858474e-06
4.043021510755377221e+02 4.570120856140238942e-06
4.052026013006503149e+02 4.473737061859545863e-06
4.061030515257628508e+02 4.343583450625675401e-06
4.070035017508754436e+02 4.204738572353969462e-06
4.079039519759879795e+02 4.078126476482657880e-06
4.088044022011005154e+02 3.984912226086080406e-06
4.097048524262131082e+02 3.941714049839331221e-06
4.106053026513256441e+02 3.948198232000387196e-06
4.115057528764381800e+02 3.995333737283335465e-06
4.124062031015507728e+02 4.084481576972076719e-06
4.133066533266633087e+02 4.222947080239656479e-06
4.142071035517758446e+02 4.412010166980115474e-06
4.151075537768884374e+02 4.637230282980128707e-06
4.160080040020009733e+02 4.863326658125280851e-06
4.169084542271135092e+02 5.044350506744192313e-06
4.178089044522261020e+02 5.142978245052394387e-06
4.187093546773386379e+02 5.139857448149440675e-06
4.196098049024512306e+02 5.036518351628409665e-06
4.205102551275637666e+02 4.849747974094382429e-06
4.214107053526763025e+02 4.628236266327163992e-06
4.223111555777888952e+02 4.439801458764201840e-06
4.232116058029014312e+02 4.319781340921041806e-06
4.241120560280139671e+02 4.259319282478627285e-06
4.250125062531265598e+02 4.235702168970043499e-06
4.259129564782390958e+02 4.243731672497748146e-06
4.268134067033516317e+02 4.299884134333710177e-06
4.277138569284642244e+02 4.416753262406597707e-06
4.286143071535767604e+02 4.590996116824137285e-06
4.295147573786892963e+02 4.809943311975531640e-06
4.304152076038018890e+02 5.049459691974818982e-06
4.313156578289144250e+02 5.272818267970277117e-06
4.322161080540270177e+02 5.439283647237017004e-06
4.331165582791395536e+02 5.509557312860749687e-06
4.340170085042520896e+02 5.458930092247223343e-06
4.349174587293646823e+02 5.303837175032308174e-06
4.358179089544772182e+02 5.103074119337410632e-06
4.367183591795897541e+02 4.916055186818394866e-06
4.376188094047023469e+02 4.761753355268998368e-06
4.385192596298148828e+02 4.642542988691442841e-06
4.394197098549274187e+02 4.573935788325132076e-06
4.403201600800400115e+02 4.572049628188762611e-06
4.412206103051525474e+02 4.649044739390461499e-06
4.421210605302650833e+02 4.812965507713781792e-06
4.430215107553776761e+02 5.045867955695676794e-06
4.439219609804902120e+02 5.306918581175062570e-06
4.448224112056028048e+02 5.554502050434192006e-06
4.457228614307153407e+02 5.748696429292971944e-06
4.466233116558278766e+02 5.852765760326789112e-06
4.475237618809404694e+02 5.851490700423090780e-06
4.484242121060530053e+02 5.756079404781061864e-06
4.493246623311655412e+02 5.587667944973702978e-06
4.502251125562781340e+02 5.372660643476156069e-06
4.511255627813906699e+02 5.154900057003544910e-06
4.520260130065032058e+02 4.990683057478931252e-06
4.529264632316157986e+02 4.914285452227111411e-06
4.538269134567283345e+02 4.935553239934056382e-06
4.547273636818408704e+02 5.049231030952153112e-06
4.556278139069534632e+02 5.228130287137521979e-06
4.565282641320659991e+02 5.432592193375156223e-06
4.574287143571785919e+02 5.625944052068595188e-06
4.583291645822911278e+02 5.788138373651923859e-06
4.592296148074036637e+02 5.922344150661866771e-06
4.601300650325162565e+02 6.035625618392813900e-06
4.610305152576287924e+02 6.126621773989761411e-06
4.619309654827413283e+02 6.178283769961587045e-06
4.628314157078539210e+02 6.152028327802216095e-06
4.637318659329664570e+02 6.019435007199964951e-06
4.646323161580789929e+02 5.807111976769330471e-06
4.655327663831915856e+02 5.589808858959526530e-06
4.664332166083041216e+02 5.442127381319771948e-06
4.673336668334167143e+02 5.398961679971939716e-06
4.682341170585292502e+02 5.453555808178900524e-06
4.691345672836417862e+02 5.571379467157821597e-06
4.700350175087543789e+02 5.707673984745825290e-06
4.709354677338669148e+02 5.824677511247080946e-06
4.718359179589794508e+02 5.906841298051066367e-06
4.727363681840920435e+02 5.966295077004340817e-06
4.736368184092045794e+02 6.021074990830158309e-06
4.745372686343171154e+02 6.076680118915911834e-06
4.754377188594297081e+02 6.122402538249357737e-06
4.763381690845422440e+02 6.127951453375153858e-06
4.772386193096547800e+02 6.076435706422278637e-06
4.781390695347673727e+02 5.991660343229971549e-06
4.790395197598799086e+02 5.909717447401307069e-06
4.799399699849925014e+02 5.849632656981118002e-06
4.808404202101050373e+02 5.812052698166692644e-06
4.817408704352175732e+02 5.795674765102834977e-06
4.826413206603301660e+02 5.805557164872167793e-06
4.835417708854427019e+02 5.844116333470642358e-06
4.844422211105552378e+02 5.902270348059005820e-06
4.853426713356678306e+02 5.968116958906606023e-06
4.862431215607803665e+02 6.044895393089539901e-06
4.871435717858929024e+02 6.145583506925907983e-06
4.880440220110054952e+02 6.266386472236913314e-06
4.889444722361180311e+02 6.381110000302532689e-06
4.898449224612305670e+02 6.471059475415077728e-06
4.907453726863431598e+02 6.532358822428786122e-06
4.916458229114556957e+02 6.552482122480050519e-06
4.925462731365682885e+02 6.511464895983620892e-06
4.934467233616808244e+02 6.407807285771331854e-06
4.943471735867933603e+02 6.277936750958195191e-06
4.952476238119059531e+02 6.169282319397340911e-06
4.961480740370184890e+02 6.119318359474652073e-06
4.970485242621310249e+02 6.154862180806878250e-06
4.979489744872436177e+02 6.273761377536276831e-06
4.988494247123561536e+02 6.431008660925998860e-06
4.997498749374686895e+02 6.565312768668711548e-06
5.006503251625812823e+02 6.643787832572245017e-06
5.015507753876938182e+02 6.671533537916512086e-06
5.024512256128063541e+02 6.663158107496247565e-06
5.033516758379189469e+02 6.628556658453304563e-06
5.042521260630314828e+02 6.588668832086396230e-06
5.051525762881440755e+02 6.576971628472889052e-06
5.060530265132566115e+02 6.609185992564084321e-06
5.069534767383691474e+02 6.669048859405236135e-06
5.078539269634817401e+02 6.732660265685309051e-06
5.087543771885942760e+02 6.785159962909151047e-06
5.096548274137068120e+02 6.828507630867826624e-06
5.105552776388194047e+02 6.880460805344285474e-06
5.114557278639319406e+02 6.950033675094466012e-06
5.123561780890445334e+02 7.024669730304980932e-06
5.132566283141570693e+02 7.084627817584858787e-06
5.141570785392696052e+02 7.112858751987106034e-06
5.150575287643821412e+02 7.109268730610002342e-06
5.159579789894946771e+02 7.093597042716314808e-06
5.168584292146073267e+02 7.077699368660822335e-06
5.177588794397198626e+02 7.069607886085452980e-06
5.186593296648323985e+02 7.080577127976674893e-06
5.195597798899449344e+02 7.098994882218113515e-06
5.204602301150574704e+02 7.095111101025413087e-06
5.213606803401700063e+02 7.055518739420064751e-06
5.222611305652826559e+02 6.993283959141718319e-06
5.231615807903951918e+02 6.934912244573392421e-06
5.240620310155077277e+02 6.902249578801046490e-06
5.249624812406202636e+02 6.903253783268698541e-06
5.258629314657327996e+02 6.939516337719070494e-06
5.267633816908454492e+02 7.010365607439869404e-06
5.276638319159579851e+02 7.110434390914183345e-06
5.285642821410705210e+02 7.236523149513601066e-06
5.294647323661830569e+02 7.383125120325475107e-06
5.303651825912955928e+02 7.525372960089011453e-06
5.312656328164081287e+02 7.616806732174567489e-06
5.321660830415207784e+02 7.624783112409726751e-06
5.330665332666333143e+02 7.570419749338806335e-06
5.339669834917458502e+02 7.503119086219065791e-06
5.348674337168583861e+02 7.457518140905062659e-06
5.357678839419709220e+02 7.448831189085252280e-06
5.366683341670835716e+02 7.475394083930738714e-06
5.375687843921961075e+02 7.527366982839503673e-06
5.384692346173086435e+02 7.592495982648993020e-06
5.393696848424211794e+02 7.654308425324845704e-06
5.402701350675337153e+02 7.703059512484118797e-06
5.411705852926462512e+02 7.741364192416568080e-06
5.420710355177589008e+02 7.778873492202819658e-06
5.429714857428714367e+02 7.826832105458412603e-06
5.438719359679839727e+02 7.888808106551203450e-06
5.447723861930965086e+02 7.960310926828080452e-06
5.456728364182090445e+02 8.034136273890683574e-06
5.465732866433215804e+02 8.099742204059106728e-06
5.474737368684342300e+02 8.156756862240010164e-06
5.483741870935467659e+02 8.214563955416834964e-06
5.492746373186593019e+02 8.277230867167133555e-06
5.501750875437718378e+02 8.353871770713803613e-06
5.510755377688843737e+02 8.462228015429071036e-06
5.519759879939970233e+02 8.605685740296277705e-06
5.528764382191095592e+02 8.770096772067295754e-06
5.537768884442220951e+02 8.947080301471173799e-06
5.546773386693346310e+02 9.145749739025787561e-06
5.555777888944471670e+02 9.369813513894521693e-06
5.564782391195597029e+02 9.599552455315985184e-06
5.573786893446723525e+02 9.804980569699037936e-06
5.582791395697848884e+02 9.959499314828823378e-06
5.591795897948974243e+02 1.005684013576692947e-05
5.600800400200099602e+02 1.011017488901017293e-05
5.609804902451224962e+02 1.012571010301312415e-05
5.618809404702351458e+02 1.010481237034621793e-05
5.627813906953476817e+02 1.006093775926420478e-05
5.636818409204602176e+02 1.003217781207953877e-05
5.645822911455727535e+02 1.005912475569034464e-05
5.654827413706852894e+02 1.015040278698315198e-05
5.663831915957978254e+02 1.029668422794164535e-05
5.672836418209104750e+02 1.047718465716868742e-05
5.681840920460230109e+02 1.064308310801803919e-05
5.690845422711355468e+02 1.074009996775447795e-05
5.699849924962480827e+02 1.075437109560652532e-05
5.708854427213606186e+02 1.072842985281941537e-05
5.717858929464731546e+02 1.072008108697871890e-05
5.726863431715858042e+02 1.075653161494105695e-05
5.735867933966983401e+02 1.084357621397765965e-05
5.744872436218108760e+02 1.098312173272644805e-05
5.753876938469234119e+02 1.115697346908249198e-05
5.762881440720359478e+02 1.132707668275022412e-05
5.771885942971485974e+02 1.146577015573639671e-05
5.780890445222611334e+02 1.157143946512928538e-05
5.789894947473736693e+02 1.165914152178032746e-05
5.798899449724862052e+02 1.174080208796464426e-05
5.807903951975987411e+02 1.180472373232762550e-05
5.816908454227112770e+02 1.184455418943485211e-05
5.825912956478239266e+02 1.190856728635896401e-05
5.834917458729364625e+02 1.204739963695978744e-05
5.843921960980489985e+02 1.223883498055431009e-05
5.852926463231615344e+02 1.241022440797967271e-05
5.861930965482740703e+02 1.250477743911466636e-05
5.870935467733867199e+02 1.251718449757338643e-05
5.879939969984992558e+02 1.247559482897743358e-05
5.888944472236117917e+02 1.240314417368687588e-05
5.897948974487243277e+02 1.230899710657484452e-05
5.906953476738368636e+02 1.221189179172337408e-05
5.915957978989493995e+02 1.215874333642635554e-05
5.924962481240620491e+02 1.218860892864877034e-05
5.933966983491745850e+02 1.228536148261931997e-05
5.942971485742871209e+02 1.239978983035696511e-05
5.951975987993996569e+02 1.249465994155579533e-05
5.960980490245121928e+02 1.256687112796037008e-05
5.969984992496247287e+02 1.265567157704368608e-05
5.978989494747373783e+02 1.280199616240966817e-05
5.987993996998499142e+02 1.301283118095530427e-05
5.996998499249624501e+02 1.327093117861823207e-05
6.006003001500749860e+02 1.351370574412643446e-05
6.015007503751875220e+02 1.363529977113370652e-05
6.024012006003001716e+02 1.360478275057598077e-05
6.033016508254127075e+02 1.353083802792885812e-05
6.042021010505252434e+02 1.354284910030358760e-05
6.051025512756377793e+02 1.367906528791990065e-05
6.060030015007503152e+02 1.386244191268681839e-05
6.069034517258628512e+02 1.398290451798678890e-05
6.078039019509755008e+02 1.403244614590530172e-05
6.087043521760880367e+02 1.406181845528062828e-05
6.096048024012005726e+02 1.407752005575750062e-05
6.105052526263131085e+02 1.407148452328672632e-05
6.114057028514256444e+02 1.405048865738278459e-05
6.123061530765382940e+02 1.398922846084264208e-05
6.132066033016508300e+02 1.386097931151794620e-05
6.141070535267633659e+02 1.369838211116747876e-05
6.150075037518759018e+02 1.355548763162561831e-05
6.159079539769884377e+02 1.346878274800104122e-05
6.168084042021009736e+02 1.346070367342103871e-05
6.177088544272136232e+02 1.352129894642794203e-05
6.186093046523261592e+02 1.362165818645000415e-05
6.195097548774386951e+02 1.375602139133415902e-05
6.204102051025512310e+02 1.393202259229463573e-05
6.213106553276637669e+02 1.413696243694131028e-05
6.222111055527763028e+02 1.434670777228691465e-05
6.231115557778889524e+02 1.453980730924896103e-05
6.240120060030014884e+02 1.467401945394042741e-05
6.249124562281140243e+02 1.472947914233592575e-05
6.258129064532265602e+02 1.473094772640009556e-05
6.267133566783390961e+02 1.471329171361277341e-05
6.276138069034517457e+02 1.471399088060733027e-05
6.285142571285642816e+02 1.474953034094295046e-05
6.294147073536768175e+02 1.482515466585576007e-05
6.303151575787893535e+02 1.495771825693792054e-05
6.312156078039018894e+02 1.514726823110920485e-05
6.321160580290144253e+02 1.534897935508164010e-05
6.330165082541270749e+02 1.551212312887067547e-05
6.339169584792396108e+02 1.562947361536109071e-05
6.348174087043521467e+02 1.573344621527834311e-05
6.357178589294646827e+02 1.584515252847660944e-05
6.366183091545772186e+02 1.594037378887355787e-05
6.375187593796898682e+02 1.599281502434225455e-05
6.384192096048024041e+02 1.599949389059780234e-05
6.393196598299149400e+02 1.598847160302115455e-05
6.402201100550274759e+02 1.601154047515944580e-05
6.411205602801400119e+02 1.612296675159185816e-05
6.420210105052525478e+02 1.633550578607010229e-05
6.429214607303651974e+02 1.661145357937042738e-05
6.438219109554777333e+02 1.690248566792275023e-05
6.447223611805902692e+02 1.717072381253443138e-05
6.456228114057028051e+02 1.737536980578073331e-05
6.465232616308153411e+02 1.749139686950430003e-05
6.474237118559278770e+02 1.756847244950447410e-05
6.483241620810405266e+02 1.766798587992265710e-05
6.492246123061530625e+02 1.776432637124616170e-05
6.501250625312655984e+02 1.777615628763504229e-05
6.510255127563781343e+02 1.769353796893004870e-05
6.519259629814906702e+02 1.759187778322045012e-05
6.528264132066033198e+02 1.753688284737432409e-05
6.537268634317158558e+02 1.752453915191831154e-05
6.546273136568283917e+02 1.751225818548515873e-05
6.555277638819409276e+02 1.749499252133156647e-05
6.564282141070534635e+02 1.751544059089432545e-05
6.573286643321659994e+02 1.759724194044481505e-05
6.582291145572786490e+02 1.769106787281913786e-05
6.591295647823911850e+02 1.772222953752156246e-05
6.600300150075037209e+02 1.768937621762162055e-05
6.609304652326162568e+02 1.762788828032504389e-05
6.618309154577287927e+02 1.755958970459778790e-05
6.627313656828414423e+02 1.753563542835074243e-05
6.636318159079539782e+02 1.758866829544300048e-05
6.645322661330665142e+02 1.766429007436371150e-05
6.654327163581790501e+02 1.767057887925363639e-05
6.663331665832915860e+02 1.756236156993741773e-05
6.672336168084041219e+02 1.739234584981680498e-05
6.681340670335167715e+02 1.725951907908000052e-05
6.690345172586293074e+02 1.720037259135564784e-05
6.699349674837418434e+02 1.717403256289100791e-05
6.708354177088543793e+02 1.713354148373737878e-05
6.717358679339669152e+02 1.705927114984347089e-05
6.726363181590794511e+02 1.694666988253104445e-05
6.735367683841921007e+02 1.680099728719962508e-05
6.744372186093046366e+02 1.665198816984255357e-05
6.753376688344171725e+02 1.654414270592492349e-05
6.762381190595297085e+02 1.649798030140572271e-05
6.771385692846422444e+02 1.650592174001773888e-05
6.780390195097548940e+02 1.655444348125971547e-05
6.789394697348674299e+02 1.661539028015923339e-05
6.798399199599799658e+02 1.664470190487383157e-05
6.807403701850925017e+02 1.667139765246621934e-05
6.816408204102050377e+02 1.677953703768381692e-05
6.825412706353175736e+02 1.698084462071522253e-05
6.834417208604302232e+02 1.720750089106996402e-05
6.843421710855427591e+02 1.736695376810163286e-05
6.852426213106552950e+02 1.739635978550808183e-05
6.861430715357678309e+02 1.730687715749702399e-05
6.870435217608803669e+02 1.715769447094426102e-05
6.879439719859930165e+02 1.699486073732751619e-05
6.888444222111055524e+02 1.684053474599402460e-05
6.897448724362180883e+02 1.670410985823827445e-05
6.906453226613306242e+02 1.658436245747220780e-05
6.915457728864431601e+02 1.652580818708775386e-05
6.924462231115556961e+02 1.661308412965888548e-05
6.933466733366683457e+02 1.686021610599680047e-05
6.942471235617808816e+02 1.715595285472321200e-05
6.951475737868934175e+02 1.731838393053654202e-05
6.960480240120059534e+02 1.724221172205902530e-05
6.969484742371184893e+02 1.697126722138316471e-05
6.978489244622311389e+02 1.664181577937661225e-05
6.987493746873436749e+02 1.639334179036900779e-05
6.996498249124562108e+02 1.628021300561199576e-05
7.005502751375687467e+02 1.625554802006064223e-05
7.014507253626812826e+02 1.624367686332150537e-05
7.023511755877938185e+02 1.621324811352225974e-05
7.032516258129064681e+02 1.618289475342704904e-05
7.041520760380190040e+02 1.616782180718832638e-05
7.050525262631315400e+02 1.611862979663614823e-05
7.059529764882440759e+02 1.598783552633225202e-05
7.068534267133566118e+02 1.580646887039868754e-05
7.077538769384691477e+02 1.561425130586452885e-05
7.086543271635817973e+02 1.542213502637050228e-05
7.095547773886943332e+02 1.524275979705554223e-05
7.104552276138068692e+02 1.509728322329291001e-05
7.113556778389194051e+02 1.498779015388472089e-05
7.122561280640319410e+02 1.491486202422982589e-05
7.131565782891445906e+02 1.490567938897906722e-05
7.140570285142571265e+02 1.497013866341458642e-05
7.149574787393696624e+02 1.508061711491618992e-05
7.158579289644821984e+02 1.519526949579824555e-05
7.167583791895947343e+02 1.527425085352861626e-05
7.176588294147072702e+02 1.527149633983894609e-05
7.185592796398199198e+02 1.518411781253923033e-05
7.194597298649324557e+02 1.506429234665571181e-05
7.203601800900449916e+02 1.492432473323515437e-05
7.212606303151575275e+02 1.474197150039881277e-05
7.221610805402700635e+02 1.453394815556121372e-05
7.230615307653827131e+02 1.435151243028155558e-05
7.239619809904952490e+02 1.423448942923896782e-05
7.248624312156077849e+02 1.418793176081003640e-05
7.257628814407203208e+02 1.421194313306752707e-05
7.266633316658328567e+02 1.431076979543828372e-05
7.275637818909453927e+02 1.444976041690345434e-05
7.284642321160580423e+02 1.459162941516290292e-05
7.293646823411705782e+02 1.476313010499373661e-05
7.302651325662831141e+02 1.499693961682026508e-05
7.311655827913956500e+02 1.522424889420208129e-05
7.320660330165081859e+02 1.531913826683259792e-05
7.329664832416207219e+02 1.523375270409622391e-05
7.338669334667333715e+02 1.502267463745393467e-05
7.347673836918459074e+02 1.475421319019483188e-05
7.356678339169584433e+02 1.446581365858054944e-05
7.365682841420709792e+02 1.419926421586096584e-05
7.374687343671835151e+02 1.394961643007168685e-05
7.383691845922961647e+02 1.366354131008647090e-05
7.392696348174087007e+02 1.333332110391011646e-05
7.401700850425212366e+02 1.300310904947106654e-05
7.410705352676337725e+02 1.273112285360259508e-05
7.419709854927463084e+02 1.256265154116910451e-05
7.428714357178588443e+02 1.250098147597509339e-05
7.437718859429714939e+02 1.249876855096165104e-05
7.446723361680840299e+02 1.247916306766117089e-05
7.455727863931965658e+02 1.239326617419198585e-05
7.464732366183091017e+02 1.226387904262993375e-05
7.473736868434216376e+02 1.214404857068679031e-05
7.482741370685342872e+02 1.205945135522097411e-05
7.491745872936468231e+02 1.201179569641869556e-05
7.500750375187593590e+02 1.200254538098478987e-05
7.509754877438718950e+02 1.202454371149206058e-05
7.518759379689844309e+02 1.204185434542712202e-05
7.527763881940969668e+02 1.201762640443245479e-05
7.536768384192096164e+02 1.196687337285970722e-05
7.545772886443221523e+02 1.192483972062907849e-05
7.554777388694346882e+02 1.188989416314555708e-05
7.563781890945472242e+02 1.181821635238604862e-05
7.572786393196597601e+02 1.166847048080658864e-05
7.581790895447722960e+02 1.144558716865063670e-05
7.590795397698849456e+02 1.119578994719712456e-05
7.599799899949974815e+02 1.098578556652259929e-05
7.608804402201100174e+02 1.085557138459556268e-05
7.617808904452225534e+02 1.078474189070560594e-05
7.626813406703350893e+02 1.073038481984883701e-05
7.635817908954477389e+02 1.068225006109013467e-05
7.644822411205602748e+02 1.065182996564020570e-05
7.653826913456728107e+02 1.064816934194444219e-05
7.662831415707853466e+02 1.067204299342559091e-05
7.671835917958978825e+02 1.071357408749885828e-05
7.680840420210104185e+02 1.074185719052699885e-05
7.689844922461230681e+02 1.072860575725933830e-05
7.698849424712356040e+02 1.068560507110384380e-05
7.707853926963481399e+02 1.064295270203930249e-05
7.716858429214606758e+02 1.061881859078702042e-05
7.725862931465732117e+02 1.063848405024869081e-05
7.734867433716858613e+02 1.071840287514923291e-05
7.743871935967983973e+02 1.083256278339079267e-05
7.752876438219109332e+02 1.093655434735270634e-05
7.761880940470234691e+02 1.097995260921197618e-05
7.770885442721360050e+02 1.092554310492587765e-05
7.779889944972485409e+02 1.078927947524520202e-05
7.788894447223611905e+02 1.062145795222275930e-05
7.797898949474737265e+02 1.046566131358012373e-05
7.806903451725862624e+02 1.034437654701172903e-05
7.815907953976987983e+02 1.026193534217909288e-05
7.824912456228113342e+02 1.021833119163250854e-05
7.833916958479238701e+02 1.020929453275644181e-05
7.842921460730365197e+02 1.022372123771325839e-05
7.851925962981490557e+02 1.025328443835732617e-05
7.860930465232615916e+02 1.029111370197874918e-05
7.869934967483741275e+02 1.032180923377000879e-05
7.878939469734866634e+02 1.033304890333181589e-05
7.887943971985993130e+02 1.032515264825337552e-05
7.896948474237118489e+02 1.029401561662179750e-05
7.905952976488243849e+02 1.022645299259829833e-05
7.914957478739369208e+02 1.011611069411195875e-05
7.923961980990494567e+02 9.980084136010916994e-06
7.932966483241619926e+02 9.857531447004321034e-06
7.941970985492746422e+02 9.789985880518243446e-06
7.950975487743871781e+02 9.791372944800518213e-06
7.959979989994997140e+02 9.836442503798899540e-06
7.968984492246122500e+02 9.874924879352632768e-06
7.977988994497247859e+02 9.862486813722544024e-06
7.986993496748374355e+02 9.806017133716729640e-06
7.995997998999499714e+02 9.742413584981592849e-06
8.005002501250625073e+02 9.695550489746451432e-06
8.014007003501750432e+02 9.678215439523127266e-06
8.023011505752875792e+02 9.688606011328139474e-06
8.032016008004001151e+02 9.712352820554781088e-06
8.041020510255127647e+02 9.731860099040816130e-06
8.050025012506253006e+02 9.722859008942044706e-06
8.059029514757378365e+02 9.666851058262097254e-06
8.068034017008503724e+02 9.585818325256977159e-06
8.077038519259629084e+02 9.530733207822202115e-06
8.086043021510754443e+02 9.523149567588135901e-06
8.095047523761880939e+02 9.545780136231489963e-06
8.104052026013006298e+02 9.576967586836810853e-06
8.113056528264131657e+02 9.606768043123218185e-06
8.122061030515257016e+02 9.629684733727838356e-06
8.131065532766382375e+02 9.640511565696193940e-06
8.140070035017508872e+02 9.628836957184467842e-06
8.149074537268634231e+02 9.583496614444160803e-06
8.158079039519759590e+02 9.509205470724903594e-06
8.167083541770884949e+02 9.419173668021697750e-06
8.176088044022010308e+02 9.309551752661380353e-06
8.185092546273135667e+02 9.181583708900230940e-06
8.194097048524262163e+02 9.065728308393178361e-06
8.203101550775387523e+02 8.984461974416946500e-06
8.212106053026512882e+02 8.941034969172500520e-06
8.221110555277638241e+02 8.936840460844898794e-06
8.230115057528763600e+02 8.971420008393381513e-06
8.239119559779890096e+02 9.037267663524238827e-06
8.248124062031015455e+02 9.110374677644573005e-06
8.257128564282140815e+02 9.156790946452520705e-06
8.266133066533266174e+02 9.157795339528994886e-06
8.275137568784391533e+02 9.121812175564887406e-06
8.284142071035516892e+02 9.082067483369295920e-06
8.293146573286643388e+02 9.077020253414803223e-06
8.302151075537768747e+02 9.118239003868399702e-06
8.311155577788894107e+02 9.179815970200996564e-06
8.320160080040019466e+02 9.224898795702528645e-06
8.329164582291144825e+02 9.235219801728544308e-06
8.338169084542270184e+02 9.228596070289034293e-06
8.347173586793396680e+02 9.252869359726159103e-06
8.356178089044522039e+02 9.336169592994085799e-06
8.365182591295647399e+02 9.455358736570161971e-06
8.374187093546772758e+02 9.552776835128065638e-06
8.383191595797898117e+02 9.585439376684350379e-06
8.392196098049024613e+02 9.566580948626036065e-06
8.401200600300149972e+02 9.537282714501044465e-06
8.410205102551275331e+02 9.526654469695799128e-06
8.419209604802400690e+02 9.538188371736709302e-06
8.428214107053526050e+02 9.550111284133827933e-06
8.437218609304651409e+02 9.543693170599508950e-06
8.446223111555777905e+02 9.523764474288024944e-06
8.455227613806903264e+02 9.506734540058421880e-06
8.464232116058028623e+02 9.495369608116319268e-06
8.473236618309153982e+02 9.486625086130291126e-06
8.482241120560279342e+02 9.487292419855039441e-06
8.491245622811405838e+02 9.506560129203290725e-06
8.500250125062531197e+02 9.544481116909823027e-06
8.509254627313656556e+02 9.597923581330607051e-06
8.518259129564781915e+02 9.670243049465697825e-06
8.527263631815907274e+02 9.756274251269373378e-06
8.536268134067032634e+02 9.833579890846454283e-06
8.545272636318159130e+02 9.886559377558584187e-06
8.554277138569284489e+02 9.930203135260263854e-06
8.563281640820409848e+02 9.992018563053738209e-06
8.572286143071535207e+02 1.008495577693169356e-05
8.581290645322660566e+02 1.019807950207460772e-05
8.590295147573785925e+02 1.029049178797494334e-05
8.599299649824912422e+02 1.033026541841243869e-05
8.608304152076037781e+02 1.033070482663743250e-05
8.617308654327163140e+02 1.031907507028006086e-05
8.626313156578288499e+02 1.030011262556593683e-05
8.635317658829413858e+02 1.026233974970962225e-05
8.644322161080540354e+02 1.020645892732183123e-05
8.653326663331665713e+02 1.014813517545903224e-05
8.662331165582791073e+02 1.010477034217799000e-05
8.671335667833916432e+02 1.009391932637330102e-05
8.680340170085041791e+02 1.013210306577575465e-05
8.689344672336167150e+02 1.022688295470817298e-05
8.698349174587293646e+02 1.036557923677009184e-05
8.707353676838419005e+02 1.051035089064465955e-05
8.716358179089544365e+02 1.062119086212388804e-05
8.725362681340669724e+02 1.067916080834421925e-05
8.734367183591795083e+02 1.068904856524382050e-05
8.743371685842921579e+02 1.068414813416026565e-05
8.752376188094046938e+02 1.069769842037946384e-05
8.761380690345172297e+02 1.073201658158627451e-05
8.770385192596297657e+02 1.077486696848719851e-05
8.779389694847423016e+02 1.081728018258758005e-05
8.788394197098548375e+02 1.085197183786219382e-05
8.797398699349674871e+02 1.087120444582218113e-05
8.806403201600800230e+02 1.087076940897379836e-05
8.815407703851925589e+02 1.086127944360376313e-05
8.824412206103050949e+02 1.086484699704001961e-05
8.833416708354176308e+02 1.088743239558155168e-05
8.842421210605301667e+02 1.091671811946331537e-05
8.851425712856428163e+02 1.095015055291734344e-05
8.860430215107553522e+02 1.100140252181312068e-05
8.869434717358678881e+02 1.107634582884296460e-05
8.878439219609804240e+02 1.116986131507852583e-05
8.887443721860929600e+02 1.126975954904237683e-05
8.896448224112056096e+02 1.135093604711420040e-05
8.905452726363181455e+02 1.140291449969756032e-05
8.914457228614306814e+02 1.145446617784487788e-05
8.923461730865432173e+02 1.153202765873631138e-05
8.932466233116557532e+02 1.162820186638195225e-05
8.941470735367682892e+02 1.172353018541383932e-05
8.950475237618809388e+02 1.181234132516665739e-05
8.959479739869934747e+02 1.189375398236000392e-05
8.968484242121060106e+02 1.196921145253214859e-05
8.977488744372185465e+02 1.205499240447423486e-05
8.986493246623310824e+02 1.216376561761383081e-05
8.995497748874437320e+02 1.227920829247237684e-05
9.004502251125562680e+02 1.236122024042047569e-05
9.013506753376688039e+02 1.237911098207949660e-05
9.022511255627813398e+02 1.233017236149771839e-05
9.031515757878938757e+02 1.223852224928363950e-05
9.040520260130064116e+02 1.214792031882843675e-05
9.049524762381190612e+02 1.210631049292724779e-05
9.058529264632315972e+02 1.213103174601968351e-05
9.067533766883441331e+02 1.219246457987899837e-05
9.076538269134566690e+02 1.224343656554474630e-05
9.085542771385692049e+02 1.226348352144198373e-05
9.094547273636817408e+02 1.226226049816288016e-05
9.103551775887943904e+02 1.225608783228440505e-05
9.112556278139069263e+02 1.226233071985449917e-05
9.121560780390194623e+02 1.230126166314389377e-05
9.130565282641319982e+02 1.238400914435528338e-05
9.139569784892445341e+02 1.249765681465772706e-05
9.148574287143571837e+02 1.261243719860137156e-05
9.157578789394697196e+02 1.270889830056133272e-05
9.166583291645822555e+02 1.277589807452565038e-05
9.175587793896947915e+02 1.279997398611568832e-05
9.184592296148073274e+02 1.279565480772716531e-05
9.193596798399198633e+02 1.279935710391032298e-05
9.202601300650325129e+02 1.282666592644639209e-05
9.211605802901450488e+02 1.288638412214618665e-05
9.220610305152575847e+02 1.300576446769023785e-05
9.229614807403701207e+02 1.319751100349507176e-05
9.238619309654826566e+02 1.343400571273019747e-05
9.247623811905953062e+02 1.367407076458064226e-05
9.256628314157078421e+02 1.388610782026313154e-05
9.265632816408203780e+02 1.405864429775631617e-05
9.274637318659329139e+02 1.419592298588411663e-05
9.283641820910454499e+02 1.430013511339369784e-05
9.292646323161579858e+02 1.437535780517686871e-05
9.301650825412706354e+02 1.444984238304823961e-05
9.310655327663831713e+02 1.455645664275270687e-05
9.319659829914957072e+02 1.470032484391925532e-05
9.328664332166082431e+02 1.487409737921766581e-05
9.337668834417207790e+02 1.505291865691787310e-05
9.346673336668334287e+02 1.518983159769359291e-05
9.355677838919459646e+02 1.524939358254702898e-05
9.364682341170585005e+02 1.523529325168506652e-05
9.373686843421710364e+02 1.519868164771478726e-05
9.382691345672835723e+02 1.520079992494170026e-05
9.391695847923961082e+02 1.524561033160703345e-05
9.400700350175087578e+02 1.530466997202382714e-05
9.409704852426212938e+02 1.539435406261627402e-05
9.418709354677338297e+02 1.555154652619944968e-05
9.427713856928463656e+02 1.576258738159595072e-05
9.436718359179589015e+02 1.596038212194482751e-05
9.445722861430714374e+02 1.609110947781862129e-05
9.454727363681840870e+02 1.615616593123057060e-05
9.463731865932966230e+02 1.619349941842229617e-05
9.472736368184091589e+02 1.623700537819680001e-05
9.481740870435216948e+02 1.631395512062509489e-05
9.490745372686342307e+02 1.642358085502556883e-05
9.499749874937468803e+02 1.653294391705885152e-05
9.508754377188594162e+02 1.663111368050707243e-05
9.517758879439719522e+02 1.673708453734401602e-05
9.526763381690844881e+02 1.685430808268617803e-05
9.535767883941970240e+02 1.696833901291801630e-05
9.544772386193095599e+02 1.707319564287131943e-05
9.553776888444222095e+02 1.715895384343009360e-05
9.562781390695347454e+02 1.720539910633716018e-05
9.571785892946472813e+02 1.720260457209192204e-05
9.580790395197598173e+02 1.718145193708400892e-05
9.589794897448723532e+02 1.718650872750175236e-05
9.598799399699850028e+02 1.724025354966401611e-05
9.607803901950975387e+02 1.734247720579338588e-05
9.616808404202100746e+02 1.747682999963546803e-05
9.625812906453226105e+02 1.762052073462879167e-05
9.634817408704351465e+02 1.777100323000249774e-05
9.643821910955476824e+02 1.794313284872879046e-05
9.652826413206603320e+02 1.814967795247306929e-05
9.661830915457728679e+02 1.840704030857753608e-05
9.670835417708854038e+02 1.870986180758539829e-05
9.679839919959979397e+02 1.902848208767538420e-05
9.688844422211104757e+02 1.934043171031954274e-05
9.697848924462230116e+02 1.963324102958118487e-05
9.706853426713356612e+02 1.989385265045184824e-05
9.715857928964481971e+02 2.011461861611507393e-05
9.724862431215607330e+02 2.028840448618461420e-05
9.733866933466732689e+02 2.040521002168178331e-05
9.742871435717858049e+02 2.048378004045490740e-05
9.751875937968984545e+02 2.056627087295439282e-05
9.760880440220109904e+02 2.066863108099679586e-05
9.769884942471235263e+02 2.077079838193848815e-05
9.778889444722360622e+02 2.084723419057153273e-05
9.787893946973485981e+02 2.091312857864841796e-05
9.796898449224611340e+02 2.101888350058017131e-05
9.805902951475737837e+02 2.120773636641406807e-05
9.814907453726863196e+02 2.149040228140413743e-05
9.823911955977988555e+02 2.180981016468902571e-05
9.832916458229113914e+02 2.208549918618053654e-05
9.841920960480239273e+02 2.230888236735468580e-05
9.850925462731365769e+02 2.252757897726432126e-05
9.859929964982491128e+02 2.276361201622748045e-05
9.868934467233616488e+02 2.299414905846279813e-05
9.877938969484741847e+02 2.315749482103364706e-05
9.886943471735867206e+02 2.320613051480355219e-05
9.895947973986992565e+02 2.318662840176938635e-05
9.904952476238119061e+02 2.320923876016074870e-05
9.913956978489244420e+02 2.334558887289094146e-05
9.922961480740369780e+02 2.357572889013931304e-05
9.931965982991495139e+02 2.383801518518785222e-05
9.940970485242620498e+02 2.408415640200809994e-05
9.949974987493745857e+02 2.433335926171965630e-05
9.958979489744872353e+02 2.465319529986890389e-05
9.967983991995997712e+02 2.503455127289010059e-05
9.976988494247123072e+02 2.537607409197003923e-05
9.985992996498248431e+02 2.564014748817487996e-05
9.994997498749373790e+02 2.592158652578831012e-05
1.000400200100050029e+03 2.630500786310186246e-05
1.001300650325162565e+03 2.679595320469086193e-05
1.002201100550275100e+03 2.738992101059261209e-05
1.003101550775387636e+03 2.804064578062803441e-05
1.004002001000500172e+03 2.864363094038843965e-05
1.004902451225612708e+03 2.915386596908449936e-05
1.005802901450725358e+03 2.960007877690723309e-05
1.006703351675837894e+03 2.999606271933754497e-05
1.007603801900950430e+03 3.032173402168444773e-05
1.008504252126062966e+03 3.055467371592133417e-05
1.009404702351175501e+03 3.074181681465487713e-05
1.010305152576288151e+03 3.098492708574333187e-05
1.011205602801400687e+03 3.133406776813782365e-05
1.012106053026513223e+03 3.177473759579495921e-05
1.013006503251625759e+03 3.227265302836543082e-05
1.013906953476738295e+03 3.278417963714340693e-05
1.014807403701850831e+03 3.325055200238858391e-05
1.015707853926963480e+03 3.363483149544331654e-05
1.016608304152076016e+03 3.395323680945825799e-05
1.017508754377188552e+03 3.419393402610487547e-05
1.018409204602301088e+03 3.431032622049097057e-05
1.019309654827413624e+03 3.441979938999121716e-05
1.020210105052526160e+03 3.475237620080667394e-05
1.021110555277638809e+03 3.539844893544319128e-05
1.022011005502751345e+03 3.625700733344261847e-05
1.022911455727863881e+03 3.714871746554088719e-05
1.023811905952976417e+03 3.793791373686462712e-05
1.024712356178089067e+03 3.856383470296079950e-05
1.025612806403201603e+03 3.906197466128508844e-05
1.026513256628314139e+03 3.949063557503717641e-05
1.027413706853426675e+03 3.987051407664289751e-05
1.028314157078539210e+03 4.022869782542397299e-05
1.029214607303651746e+03 4.057893934506718101e-05
1.030115057528764282e+03 4.095208088400593109e-05
1.031015507753876818e+03 4.139026414283314382e-05
1.031915957978989354e+03 4.191255221568022081e-05
1.032816408204101890e+03 4.255993753104656100e-05
1.033716858429214653e+03 4.333494709100611363e-05
1.034617308654327189e+03 4.410706399100137076e-05
1.035517758879439725e+03 4.475447287730130702e-05
1.036418209104552261e+03 4.530631106009215645e-05
1.037318659329664797e+03 4.588041853390297751e-05
1.038219109554777333e+03 4.656507393736173870e-05
1.039119559779889869e+03 4.734679496177624750e-05
1.040020010005002405e+03 4.812354106770873715e-05
1.040920460230114941e+03 4.881615206472580986e-05
1.041820910455227477e+03 4.946981608034191770e-05
1.042721360680340013e+03 5.029176321010324688e-05
1.043621810905452776e+03 5.142442897075282762e-05
1.044522261130565312e+03 5.281072441725113156e-05
1.045422711355677848e+03 5.434203551907399230e-05
1.046323161580790384e+03 5.594598022800559723e-05
1.047223611805902920e+03 5.752519235574394537e-05
1.048124062031015455e+03 5.895806585720575683e-05
1.049024512256127991e+03 6.015110115728898712e-05
1.049924962481240527e+03 6.108757355875281262e-05
1.050825412706353063e+03 6.190515571618782585e-05
1.051725862931465599e+03 6.275878632504840692e-05
1.052626313156578135e+03 6.362204083544381313e-05
1.053526763381690898e+03 6.439912154168699781e-05
1.054427213606803434e+03 6.514693238056537647e-05
1.055327663831915970e+03 6.605241900717973924e-05
1.056228114057028506e+03 6.729533529558430526e-05
1.057128564282141042e+03 6.890337106212349259e-05
1.058029014507253578e+03 7.080022282854480016e-05
1.058929464732366114e+03 7.276033969958259221e-05
1.059829914957478650e+03 7.435289096097616175e-05
1.060730365182591186e+03 7.536158294375694497e-05
1.061630815407703722e+03 7.609458908266979031e-05
1.062531265632816257e+03 7.710548686663040024e-05
1.063431715857929021e+03 7.863092204193207447e-05
1.064332166083041557e+03 8.039270425434993114e-05
1.065232616308154093e+03 8.209053611695311329e-05
1.066133066533266629e+03 8.379328501096882102e-05
1.067033516758379164e+03 8.573159918888856562e-05
1.067933966983491700e+03 8.793059983573730750e-05
1.068834417208604236e+03 9.013588845248213331e-05
1.069734867433716772e+03 9.213954686584777858e-05
1.070635317658829308e+03 9.395848670626036087e-05
1.071535767883941844e+03 9.556327994969126985e-05
1.072436218109054380e+03 9.684539543434749658e-05
1.073336668334167143e+03 9.805661703175108982e-05
1.074237118559279679e+03 9.962594507123648810e-05
1.075137568784392215e+03 1.016828024718912168e-04
1.076038019009504751e+03 1.040447533048136509e-04
1.076938469234617287e+03 1.062873489497445412e-04
1.077838919459729823e+03 1.081789087127814206e-04
1.078739369684842359e+03 1.100258096493423666e-04
1.079639819909954895e+03 1.122912881803643504e-04
1.080540270135067431e+03 1.152141022381078164e-04
1.081440720360179967e+03 1.188510370249018256e-04
1.082341170585292502e+03 1.229832608400388430e-04
1.083241620810405038e+03 1.270822670360169295e-04
1.084142071035517802e+03 1.306842264090372408e-04
1.085042521260630338e+03 1.336726732435661921e-04
1.085942971485742873e+03 1.361438818148837549e-04
1.086843421710855409e+03 1.382837926659080945e-04
1.087743871935967945e+03 1.402944941807059414e-04
1.088644322161080481e+03 1.420899129189815953e-04
1.089544772386193017e+03 1.435708830060547047e-04
1.090445222611305553e+03 1.449656924194401089e-04
1.091345672836418089e+03 1.466910207927748459e-04
1.092246123061530625e+03 1.491498260875046401e-04
1.093146573286643161e+03 1.526032426334439514e-04
1.094047023511755924e+03 1.569267723418743424e-04
1.094947473736868460e+03 1.616789772670107299e-04
1.095847923961980996e+03 1.665452742140264978e-04
1.096748374187093532e+03 1.713791351695578521e-04
1.097648824412206068e+03 1.757531665787217731e-04
1.098549274637318604e+03 1.790989645441410760e-04
1.099449724862431140e+03 1.814200207912457675e-04
1.100350175087543676e+03 1.833624932290707423e-04
1.101250625312656211e+03 1.851400788339311156e-04
1.102151075537768747e+03 1.867744779957825334e-04
1.103051525762881283e+03 1.889171479269285536e-04
1.103951975987994047e+03 1.919391624534732199e-04
1.104852426213106583e+03 1.957925676165811772e-04
1.105752876438219118e+03 2.008655805171665593e-04
1.106653326663331654e+03 2.076051389424294225e-04
1.107553776888444190e+03 2.152684061448227289e-04
1.108454227113556726e+03 2.227796273375606318e-04
1.109354677338669262e+03 2.304132604747887152e-04
1.110255127563781798e+03 2.386497742873474660e-04
1.111155577788894334e+03 2.469112022973536679e-04
1.112056028014006870e+03 2.542254337330455321e-04
1.112956478239119406e+03 2.601807389611048103e-04
1.113856928464232169e+03 2.651979713645478270e-04
1.114757378689344705e+03 2.696273828758318815e-04
1.115657828914457241e+03 2.735767150649760738e-04
1.116558279139569777e+03 2.777705470217076535e-04
1.117458729364682313e+03 2.829838609230599989e-04
1.118359179589794849e+03 2.887654323095688032e-04
1.119259629814907385e+03 2.932882250530082944e-04
1.120160080040019920e+03 2.953278875857336572e-04
1.121060530265132456e+03 2.951482638247195176e-04
1.121960980490244992e+03 2.939455703139355006e-04
1.122861430715357528e+03 2.939743307196350693e-04
1.123761880940470292e+03 2.962534271369740763e-04
1.124662331165582827e+03 2.989105938635569591e-04
1.125562781390695363e+03 2.987433292820451214e-04
1.126463231615807899e+03 2.942675731737747933e-04
1.127363681840920435e+03 2.868272742363016056e-04
1.128264132066032971e+03 2.778302411729318463e-04
1.129164582291145507e+03 2.671737320706368021e-04
1.130065032516258043e+03 2.550305876931315756e-04
1.130965482741370579e+03 2.424687146896711560e-04
1.131865932966483115e+03 2.304281255406988727e-04
1.132766383191595651e+03 2.195034800658152954e-04
1.133666833416708187e+03 2.095360173209200559e-04
1.134567283641820950e+03 1.994184863270017890e-04
1.135467733866933486e+03 1.880453853841833258e-04
1.136368184092046022e+03 1.756503326859961160e-04
1.137268634317158558e+03 1.634489232978073611e-04
1.138169084542271094e+03 1.520274905977071257e-04
1.139069534767383630e+03 1.411610492534506010e-04
1.139969984992496165e+03 1.307062709843396413e-04
1.140870435217608701e+03 1.207646337449228707e-04
1.141770885442721237e+03 1.113814229008780498e-04
1.142671335667833773e+03 1.026764817632920649e-04
1.143571785892946309e+03 9.480914626206953324e-05
1.144472236118059072e+03 8.803585687998465817e-05
1.145372686343171608e+03 8.271648398722450987e-05
1.146273136568284144e+03 7.881879912460351581e-05
1.147173586793396680e+03 7.579873131139808478e-05
1.148074037018509216e+03 7.291715574400502034e-05
1.148974487243621752e+03 6.950914183587884518e-05
1.149874937468734288e+03 6.581351146235996064e-05
1.150775387693846824e+03 6.269878894095712123e-05
1.151675837918959360e+03 6.055198407163771176e-05
1.152576288144071896e+03 5.923596253064235278e-05
1.153476738369184432e+03 5.845372371114545933e-05
1.154377188594297195e+03 5.792629373913184824e-05
1.155277638819409731e+03 5.753767609215396328e-05
1.156178089044522267e+03 5.720119873558436867e-05
1.157078539269634803e+03 5.675941583868667601e-05
1.157978989494747339e+03 5.607807730437804858e-05
1.158879439719859874e+03 5.501817416707220398e-05
1.159779889944972410e+03 5.364281725299712745e-05
1.160680340170084946e+03 5.220626969505508773e-05
1.161580790395197482e+03 5.091771392135647421e-05
1.162481240620310018e+03 4.986275093009596906e-05
1.163381690845422554e+03 4.903024722867145070e-05
1.164282141070535317e+03 4.835504675268744232e-05
1.165182591295647853e+03 4.776962870398157867e-05
1.166083041520760389e+03 4.726016383800653461e-05
1.166983491745872925e+03 4.687334975922893392e-05
1.167883941970985461e+03 4.667195973979185159e-05
1.168784392196097997e+03 4.668966988713663330e-05
1.169684842421210533e+03 4.690714536914630285e-05
1.170585292646323069e+03 4.720644400043361605e-05
1.171485742871435605e+03 4.735850252456027002e-05
1.172386193096548141e+03 4.723039654685313424e-05
1.173286643321660677e+03 4.695962927001584439e-05
1.174187093546773440e+03 4.674151287189764597e-05
1.175087543771885976e+03 4.665570485557293551e-05
1.175987993996998512e+03 4.670468437488380911e-05
1.176888444222111048e+03 4.687422134024242504e-05
1.177788894447223583e+03 4.715589818937547398e-05
1.178689344672336119e+03 4.754622736525133649e-05
1.179589794897448655e+03 4.802636179409778395e-05
1.180490245122561191e+03 4.852636884719414362e-05
1.181390695347673727e+03 4.894706640087558583e-05
1.182291145572786263e+03 4.928921625789271918e-05
1.183191595797898799e+03 4.964958179524616040e-05
1.184092046023011562e+03 5.006041170427666663e-05
1.184992496248124098e+03 5.047401560586044027e-05
1.185892946473236634e+03 5.087864761063653417e-05
1.186793396698349170e+03 5.128226497493022985e-05
1.187693846923461706e+03 5.163119187748261955e-05
1.188594297148574242e+03 5.191485437411076377e-05
1.189494747373686778e+03 5.222528336855399277e-05
1.190395197598799314e+03 5.264717237698686311e-05
1.191295647823911850e+03 5.321502789944545386e-05
1.192196098049024386e+03 5.393263866612790916e-05
1.193096548274136921e+03 5.477416489722796691e-05
1.193996998499249457e+03 5.568676304543831231e-05
1.194897448724362221e+03 5.665663975806717502e-05
1.195797898949474757e+03 5.776542163917591213e-05
1.196698349174587293e+03 5.909479632605155468e-05
1.197598799399699828e+03 6.062878299020639988e-05
1.198499249624812364e+03 6.227475468090520503e-05
1.199399699849924900e+03 6.394159979199978867e-05
1.200300150075037436e+03 6.554265837625413945e-05
1.201200600300149972e+03 6.689673501110488159e-05
1.202101050525262508e+03 6.781674801715910741e-05
1.203001500750375044e+03 6.832729270054251265e-05
1.203901950975487580e+03 6.873909759271985549e-05
1.204802401200600343e+03 6.936602743689898446e-05
1.205702851425712879e+03 7.031622438538866963e-05
1.206603301650825415e+03 7.160281958437468824e-05
1.207503751875937951e+03 7.319596343900864591e-05
1.208404202101050487e+03 7.498767006564948333e-05
1.209304652326163023e+03 7.693829624060161685e-05
1.210205102551275559e+03 7.921811177609264004e-05
1.211105552776388095e+03 8.211091856560629398e-05
1.212006003001500630e+03 8.590070814667235145e-05
1.212906453226613166e+03 9.076020706246001098e-05
1.213806903451725702e+03 9.660108238587910320e-05
1.214707353676838466e+03 1.029578640619312413e-04
1.215607803901951002e+03 1.090183029521338981e-04
1.216508254127063537e+03 1.139190318524506543e-04
1.217408704352176073e+03 1.170227309383602859e-04
1.218309154577288609e+03 1.176499333889636519e-04
1.219209604802401145e+03 1.152180769310428828e-04
1.220110055027513681e+03 1.102470847742279784e-04
1.221010505252626217e+03 1.045714444893158497e-04
1.221910955477738753e+03 9.989113044109280558e-05
1.222811405702851289e+03 9.683491545898754820e-05
1.223711855927963825e+03 9.518686791953927728e-05
1.224612306153076588e+03 9.438514937905870868e-05
1.225512756378189124e+03 9.396427281353610876e-05
1.226413206603301660e+03 9.385448034543679289e-05
1.227313656828414196e+03 9.425972941949055395e-05
1.228214107053526732e+03 9.526253711185382383e-05
1.229114557278639268e+03 9.670605819744229994e-05
1.230015007503751804e+03 9.844042720948168411e-05
1.230915457728864340e+03 1.005022074003367264e-04
1.231815907953976875e+03 1.029225963257584820e-04
1.232716358179089411e+03 1.055290575372565200e-04
1.233616808404201947e+03 1.083232718491155107e-04
1.234517258629314711e+03 1.117768947678680154e-04
1.235417708854427246e+03 1.162852498647487802e-04
1.236318159079539782e+03 1.216325897760471493e-04
1.237218609304652318e+03 1.273261697393387212e-04
1.238119059529764854e+03 1.335629752009505301e-04
1.239019509754877390e+03 1.410253636791838536e-04
1.239919959979989926e+03 1.499035521800270760e-04
1.240820410205102462e+03 1.598457689020085087e-04
1.241720860430214998e+03 1.706019487310326882e-04
1.242621310655327534e+03 1.821188269459581824e-04
1.243521760880440070e+03 1.942547692629995331e-04
1.244422211105552606e+03 2.067881163105997550e-04
1.245322661330665369e+03 2.197350679664241649e-04
1.246223111555777905e+03 2.338132153959984066e-04
1.247123561780890441e+03 2.498023090720103670e-04
1.248024012006002977e+03 2.666410560850007629e-04
1.248924462231115513e+03 2.807812007257300580e-04
1.249824912456228049e+03 2.887327486604945328e-04
1.250725362681340584e+03 2.907533923050461275e-04
1.251625812906453120e+03 2.905041970966286457e-04
1.252526263131565656e+03 2.905226750260837842e-04
1.253426713356678192e+03 2.906013338673383217e-04
1.254327163581790728e+03 2.898462171386191675e-04
1.255227613806903491e+03 2.880438963392683584e-04
1.256128064032016027e+03 2.856115475074298693e-04
1.257028514257128563e+03 2.831922589790270613e-04
1.257928964482241099e+03 2.810905149552582385e-04
1.258829414707353635e+03 2.794314548680794158e-04
1.259729864932466171e+03 2.786301708037864050e-04
1.260630315157578707e+03 2.789613056838144574e-04
1.261530765382691243e+03 2.798257101617845606e-04
1.262431215607803779e+03 2.803598967135099138e-04
1.263331665832916315e+03 2.806037562819659634e-04
1.264232116058028851e+03 2.813009732586047918e-04
1.265132566283141614e+03 2.831200446781646915e-04
1.266033016508254150e+03 2.861423098845356471e-04
1.266933466733366686e+03 2.901231571465975336e-04
1.267833916958479222e+03 2.949170339901294592e-04
1.268734367183591758e+03 2.999853873775388548e-04
1.269634817408704293e+03 3.045765404844119791e-04
1.270535267633816829e+03 3.086403723025247462e-04
1.271435717858929365e+03 3.127575474639507878e-04
1.272336168084041901e+03 3.173444921302053510e-04
1.273236618309154437e+03 3.224471804573862958e-04
1.274137068534266973e+03 3.279501449765903328e-04
1.275037518759379736e+03 3.337443747247568885e-04
1.275937968984492272e+03 3.397582378326371652e-04
1.276838419209604808e+03 3.458141934050550526e-04
1.277738869434717344e+03 3.517243430708759432e-04
1.278639319659829880e+03 3.572992554146462970e-04
1.279539769884942416e+03 3.624804349673594792e-04
1.280440220110054952e+03 3.677414331698158141e-04
1.281340670335167488e+03 3.737573120674330990e-04
1.282241120560280024e+03 3.807571625046328651e-04
1.283141570785392560e+03 3.883685230360584668e-04
1.284042021010505096e+03 3.960271369055026356e-04
1.284942471235617859e+03 4.034793653834644147e-04
1.285842921460730395e+03 4.108462428052135737e-04
1.286743371685842931e+03 4.182083548925116367e-04
1.287643821910955467e+03 4.256453282242494778e-04
1.288544272136068003e+03 4.333675447074084508e-04
1.289444722361180538e+03 4.413272830770776050e-04
1.290345172586293074e+03 4.494511195364234201e-04
1.291245622811405610e+03 4.579281874686311378e-04
1.292146073036518146e+03 4.666122266002513505e-04
1.293046523261630682e+03 4.749495027515287853e-04
1.293946973486743218e+03 4.826664771727418881e-04
1.294847423711855754e+03 4.898372011664097218e-04
1.295747873936968517e+03 4.969238856394125273e-04
1.296648324162081053e+03 5.046451125329717282e-04
1.297548774387193589e+03 5.127688534874838468e-04
1.298449224612306125e+03 5.199507936954353643e-04
1.299349674837418661e+03 5.253547573726008446e-04
1.300250125062531197e+03 5.290913185183170617e-04
1.301150575287643733e+03 5.314631352014968389e-04
1.302051025512756269e+03 5.326944720112600532e-04
1.302951475737868805e+03 5.332731142839189321e-04
1.303851925962981340e+03 5.338677283724470356e-04
1.304752376188093876e+03 5.348347089602843414e-04
1.305652826413206640e+03 5.361753823930148852e-04
1.306553276638319176e+03 5.378048463103914665e-04
1.307453726863431712e+03 5.397315821356470870e-04
1.308354177088544247e+03 5.423245635735812016e-04
1.309254627313656783e+03 5.461256019158345102e-04
1.310155077538769319e+03 5.518592357870448668e-04
1.311055527763881855e+03 5.600932456577854606e-04
1.311955977988994391e+03 5.704443358115326903e-04
1.312856428214106927e+03 5.818475026630605092e-04
1.313756878439219463e+03 5.935187167546573809e-04
1.314657328664331999e+03 6.052610585576621415e-04
1.315557778889444762e+03 6.173911428350374294e-04
1.316458229114557298e+03 6.308120750908771104e-04
1.317358679339669834e+03 6.468529026572031673e-04
1.318259129564782370e+03 6.662727107611183435e-04
1.319159579789894906e+03 6.887282684316772732e-04
1.320060030015007442e+03 7.132530306325650165e-04
1.320960480240119978e+03 7.385876507868451707e-04
1.321860930465232514e+03 7.635263541771583531e-04
1.322761380690345050e+03 7.881608000901585030e-04
1.323661830915457585e+03 8.142813698707820382e-04
1.324562281140570121e+03 8.435707365342298486e-04
1.325462731365682885e+03 8.763248735283885602e-04
1.326363181590795421e+03 9.120983527606076925e-04
1.327263631815907956e+03 9.502600398884456000e-04
1.328164082041020492e+03 9.897248860887303702e-04
1.329064532266133028e+03 1.029062800819793800e-03
1.329964982491245564e+03 1.067722111557066001e-03
1.330865432716358100e+03 1.106719658600884481e-03
1.331765882941470636e+03 1.147400224884230404e-03
1.332666333166583172e+03 1.190164687948534793e-03
1.333566783391695708e+03 1.234265558005446552e-03
1.334467233616808244e+03 1.278050264906017671e-03
1.335367683841921007e+03 1.320713241642308645e-03
1.336268134067033543e+03 1.363950946624802041e-03
1.337168584292146079e+03 1.410250005305847170e-03
1.338069034517258615e+03 1.460946550091508228e-03
1.338969484742371151e+03 1.515715716533338250e-03
1.339869934967483687e+03 1.572769809063666226e-03
1.340770385192596223e+03 1.631993171867066354e-03
1.341670835417708759e+03 1.695609833404405431e-03
1.342571285642821294e+03 1.765010440681080836e-03
1.343471735867933830e+03 1.839624099290685473e-03
1.344372186093046366e+03 1.918425353709284379e-03
1.345272636318158902e+03 2.001772104935848392e-03
1.346173086543271666e+03 2.092196039089204256e-03
1.347073536768384201e+03 2.191407157698757515e-03
1.347973986993496737e+03 2.298924642534197222e-03
1.348874437218609273e+03 2.414242969944137632e-03
1.349774887443721809e+03 2.536765217558622880e-03
1.350675337668834345e+03 2.664682518681555420e-03
1.351575787893946881e+03 2.791619317191700381e-03
1.352476238119059417e+03 2.909429299434632740e-03
1.353376688344171953e+03 3.015895486494517188e-03
1.354277138569284489e+03 3.118648310174175313e-03
1.355177588794397025e+03 3.231931870283903489e-03
1.356078039019509788e+03 3.367277677508051948e-03
1.356978489244622324e+03 3.522822376301091088e-03
1.357878939469734860e+03 3.691427070757047520e-03
1.358779389694847396e+03 3.874201377686653080e-03
1.359679839919959932e+03 4.072465158741192005e-03
1.360580290145072468e+03 4.282519075194006659e-03
1.361480740370185003e+03 4.502044734119028772e-03
1.362381190595297539e+03 4.733963189118743121e-03
1.363281640820410075e+03 4.985171336832362396e-03
1.364182091045522611e+03 5.264489326022639241e-03
1.365082541270635147e+03 5.580813452231735139e-03
1.365982991495747910e+03 5.930187715906219681e-03
1.366883441720860446e+03 6.298800775907482594e-03
1.367783891945972982e+03 6.690613600425725400e-03
1.368684342171085518e+03 7.121076146584303344e-03
1.369584792396198054e+03 7.589475598183123735e-03
1.370485242621310590e+03 8.101483597118076807e-03
1.371385692846423126e+03 8.694716549789628657e-03
1.372286143071535662e+03 9.415226652868386586e-03
1.373186593296648198e+03 1.028901413115553519e-02
1.374087043521760734e+03 1.130616390249097533e-02
1.374987493746873270e+03 1.240062691040426726e-02
1.375887943971986033e+03 1.348167458134602592e-02
1.376788394197098569e+03 1.451173644931062941e-02
1.377688844422211105e+03 1.552556980058264653e-02
1.378589294647323641e+03 1.659696104823379231e-02
1.379489744872436177e+03 1.781521577228907527e-02
1.380390195097548713e+03 1.926577806587254776e-02
1.381290645322661248e+03 2.101618822439488624e-02
1.382191095547773784e+03 2.314708149344842439e-02
1.383091545772886320e+03 2.574504640998878310e-02
1.383991995997998856e+03 2.885461126891131212e-02
1.384892446223111392e+03 3.247605142751233687e-02
1.385792896448224155e+03 3.657669747996650234e-02
1.386693346673336691e+03 4.114622588614245957e-02
1.387593796898449227e+03 4.626444652121990131e-02
1.388494247123561763e+03 5.203951701049317619e-02
1.389394697348674299e+03 5.837664105795609126e-02
1.390295147573786835e+03 6.497689329688284554e-02
1.391195597798899371e+03 7.143089089561407978e-02
1.392096048024011907e+03 7.706641496245923706e-02
1.392996498249124443e+03 8.131385770846139005e-02
1.393896948474236979e+03 8.433191401686282451e-02
1.394797398699349515e+03 8.654502683329670654e-02
1.395697848924462278e+03 8.774933745651464223e-02
1.396598299149574814e+03 8.715909853051495570e-02
1.397498749374687350e+03 8.395716064383829114e-02
1.398399199599799886e+03 7.789638742788097814e-02
1.399299649824912422e+03 6.969585614025344822e-02
1.400200100050024957e+03 6.050810221580128767e-02
1.401100550275137493e+03 5.127945368465442605e-02
1.402001000500250029e+03 4.278503361809377764e-02
1.402901450725362565e+03 3.553265076412132767e-02
1.403801900950475101e+03 2.959717014399617860e-02
1.404702351175587637e+03 2.482114052363337819e-02
1.405602801400700173e+03 2.101823675886110507e-02
1.406503251625812936e+03 1.799670401329551625e-02
1.407403701850925472e+03 1.556702153524685932e-02
1.408304152076038008e+03 1.357149307859889867e-02
1.409204602301150544e+03 1.190012413378972733e-02
1.410105052526263080e+03 1.048833883025751708e-02
1.411005502751375616e+03 9.297632341767865863e-03
1.411905952976488152e+03 8.301418992222297025e-03
1.412806403201600688e+03 7.469757789021222970e-03
1.413706853426713224e+03 6.765545042796404854e-03
1.414607303651825760e+03 6.160613672843548785e-03
1.415507753876938295e+03 5.640809148784183859e-03
1.416408204102051059e+03 5.192613439759140997e-03
1.417308654327163595e+03 4.799466106300333615e-03
1.418209104552276131e+03 4.445969030366327644e-03
1.419109554777388666e+03 4.123101488730144572e-03
1.420010005002501202e+03 3.830296563666876156e-03
1.420910455227613738e+03 3.568022037170811688e-03
1.421810905452726274e+03 3.336206721002318593e-03
1.422711355677838810e+03 3.133802483799698856e-03
1.423611805902951346e+03 2.956295179464270544e-03
1.424512256128063882e+03 2.798263379256423627e-03
1.425412706353176418e+03 2.656697946352728351e-03
1.426313156578289181e+03 2.530052316515714328e-03
1.427213606803401717e+03 2.416433598637717471e-03
1.428114057028514253e+03 2.312765976537570038e-03
1.429014507253626789e+03 2.216336342952491233e-03
1.429914957478739325e+03 2.125176977915279024e-03
1.430815407703851861e+03 2.037423343363743266e-03
1.431715857928964397e+03 1.953239317651437115e-03
1.432616308154076933e+03 1.874101353597461403e-03
1.433516758379189469e+03 1.799990384534576934e-03
1.434417208604302004e+03 1.729271901513133999e-03
1.435317658829414540e+03 1.660511084795159758e-03
1.436218109054527304e+03 1.593833148401486641e-03
1.437118559279639840e+03 1.530071445995043883e-03
1.438019009504752376e+03 1.470831549758043911e-03
1.438919459729864911e+03 1.417491027881293301e-03
1.439819909954977447e+03 1.369733528692373015e-03
1.440720360180089983e+03 1.326487288886578830e-03
1.441620810405202519e+03 1.285908419524540210e-03
1.442521260630315055e+03 1.245562369909205018e-03
1.443421710855427591e+03 1.204225005469671981e-03
1.444322161080540127e+03 1.162913439883871310e-03
1.445222611305652663e+03 1.122839770287874109e-03
1.446123061530765426e+03 1.083805701911292078e-03
1.447023511755877962e+03 1.045459012793059465e-03
1.447923961980990498e+03 1.009212354148854773e-03
1.448824412206103034e+03 9.768778029435548713e-04
1.449724862431215570e+03 9.477877289496104826e-04
1.450625312656328106e+03 9.197939527438692793e-04
1.451525762881440642e+03 8.927437024429217419e-04
1.452426213106553178e+03 8.686820487583199338e-04
1.453326663331665713e+03 8.485189386966370591e-04
1.454227113556778249e+03 8.307792538871377900e-04
1.455127563781890785e+03 8.138640999645303320e-04
1.456028014007003321e+03 7.964220120437159314e-04
1.456928464232116085e+03 7.772431690659539977e-04
1.457828914457228620e+03 7.568206072783662192e-04
1.458729364682341156e+03 7.365791132956546602e-04
1.459629814907453692e+03 7.170962128430551042e-04
1.460530265132566228e+03 6.986907017483427783e-04
1.461430715357678764e+03 6.818660186310824016e-04
1.462331165582791300e+03 6.667340499812529587e-04
1.463231615807903836e+03 6.526087803063956123e-04
1.464132066033016372e+03 6.388413627350083895e-04
1.465032516258128908e+03 6.258720846127503734e-04
1.465932966483241444e+03 6.146036198526220540e-04
1.466833416708354207e+03 6.053147924100324732e-04
1.467733866933466743e+03 5.974973227298166142e-04
1.468634317158579279e+03 5.898979527672839392e-04
1.469534767383691815e+03 5.807656020273840132e-04
1.470435217608804351e+03 5.695291151167879975e-04
1.471335667833916887e+03 5.578905536243748730e-04
1.472236118059029423e+03 5.474716645830578600e-04
1.473136568284141958e+03 5.381491718817560345e-04
1.474037018509254494e+03 5.288416087743545496e-04
1.474937468734367030e+03 5.185605747597089518e-04
1.475837918959479566e+03 5.074064590965642182e-04
1.476738369184592329e+03 4.964822324155790997e-04
1.477638819409704865e+03 4.866093475790434441e-04
1.478539269634817401e+03 4.780156363714484127e-04
1.479439719859929937e+03 4.710422527479679209e-04
1.480340170085042473e+03 4.660586349863862147e-04
1.481240620310155009e+03 4.629106238231560258e-04
1.482141070535267545e+03 4.604425113503868186e-04
1.483041520760380081e+03 4.568269140853685071e-04
1.483941970985492617e+03 4.510092525750439871e-04
1.484842421210605153e+03 4.432226602252867741e-04
1.485742871435717689e+03 4.342783787836100736e-04
1.486643321660830452e+03 4.247727996793509682e-04
1.487543771885942988e+03 4.148518301780349752e-04
1.488444222111055524e+03 4.048569284349905510e-04
1.489344672336168060e+03 3.956097210307803289e-04
1.490245122561280596e+03 3.875834017174162142e-04
1.491145572786393132e+03 3.802589844820792632e-04
1.492046023011505667e+03 3.726269827232636927e-04
1.492946473236618203e+03 3.646508347792701775e-04
1.493846923461730739e+03 3.574648760164945245e-04
1.494747373686843275e+03 3.515784705296117613e-04
1.495647823911955811e+03 3.462255739114078988e-04
1.496548274137068574e+03 3.407399685499424560e-04
1.497448724362181110e+03 3.350657544211082715e-04
1.498349174587293646e+03 3.296627788081924046e-04
1.499249624812406182e+03 3.252243919101393123e-04
1.500150075037518718e+03 3.216978456563132248e-04
1.501050525262631254e+03 3.183701467665035214e-04
1.501950975487743790e+03 3.146229034266853197e-04
1.502851425712856326e+03 3.099826471776665881e-04
1.503751875937968862e+03 3.045913263967763582e-04
1.504652326163081398e+03 2.992000534773540097e-04
1.505552776388193934e+03 2.942123039601632676e-04
1.506453226613306470e+03 2.898122936385267657e-04
1.507353676838419233e+03 2.861702701486142325e-04
1.508254127063531769e+03 2.829043068887074808e-04
1.509154577288644305e+03 2.793019383571799640e-04
1.510055027513756841e+03 2.750231268162950404e-04
1.510955477738869376e+03 2.703327505414089972e-04
1.511855927963981912e+03 2.658265686806801143e-04
1.512756378189094448e+03 2.619283974312019113e-04
1.513656828414206984e+03 2.588790508649523861e-04
1.514557278639319520e+03 2.567641489437590564e-04
1.515457728864432056e+03 2.550957104453697934e-04
1.516358179089544592e+03 2.531096369718984092e-04
1.517258629314657355e+03 2.501802584906859077e-04
1.518159079539769891e+03 2.464035053503866105e-04
1.519059529764882427e+03 2.425255627235355744e-04
1.519959979989994963e+03 2.389199238254437229e-04
1.520860430215107499e+03 2.356441648837412318e-04
1.521760880440220035e+03 2.326975977121564332e-04
1.522661330665332571e+03 2.300226247987432885e-04
1.523561780890445107e+03 2.277804734767312558e-04
1.524462231115557643e+03 2.260876452851915243e-04
1.525362681340670179e+03 2.247232419677469963e-04
1.526263131565782714e+03 2.233234670274313657e-04
1.527163581790895478e+03 2.217395478599301780e-04
1.528064032016008014e+03 2.201007226229166744e-04
1.528964482241120550e+03 2.185309970441007743e-04
1.529864932466233086e+03 2.168058559950758555e-04
1.530765382691345621e+03 2.146933088212577500e-04
1.531665832916458157e+03 2.124242950139590197e-04
1.532566283141570693e+03 2.102304691981860527e-04
1.533466733366683229e+03 2.080530744988235683e-04
1.534367183591795765e+03 2.058237342843368366e-04
1.535267633816908301e+03 2.035096569877240360e-04
1.536168084042020837e+03 2.010622421407258801e-04
1.537068534267133600e+03 1.984004865918711775e-04
1.537968984492246136e+03 1.954962664604666469e-04
1.538869434717358672e+03 1.926520585214388051e-04
1.539769884942471208e+03 1.904053659753035467e-04
1.540670335167583744e+03 1.889597398197022902e-04
1.541570785392696280e+03 1.878638686157352473e-04
1.542471235617808816e+03 1.864614246518399125e-04
1.543371685842921352e+03 1.846738837788587423e-04
1.544272136068033888e+03 1.829725722588567251e-04
1.545172586293146423e+03 1.816265761944771938e-04
1.546073036518258959e+03 1.805607690203970509e-04
1.546973486743371723e+03 1.796680925906132787e-04
1.547873936968484259e+03 1.790147078106797956e-04
1.548774387193596795e+03 1.785740798101723072e-04
1.549674837418709330e+03 1.780701347868353466e-04
1.550575287643821866e+03 1.773019944275580281e-04
1.551475737868934402e+03 1.764290429028402170e-04
1.552376188094046938e+03 1.758387944641860267e-04
1.553276638319159474e+03 1.757755427459752821e-04
1.554177088544272010e+03 1.763764495528430648e-04
1.555077538769384546e+03 1.779032666004918531e-04
1.555977988994497082e+03 1.808069538368739222e-04
1.556878439219609618e+03 1.856938932711496343e-04
1.557778889444722381e+03 1.930330071362545117e-04
1.558679339669834917e+03 2.027289463461194434e-04
1.559579789894947453e+03 2.140214255017018825e-04
1.560480240120059989e+03 2.262000217492186600e-04
1.561380690345172525e+03 2.397507688054556854e-04
1.562281140570285061e+03 2.565549630740071368e-04
1.563181590795397597e+03 2.786424544286850635e-04
1.564082041020510133e+03 3.066629285493111976e-04
1.564982491245622668e+03 3.390449809502165518e-04
1.565882941470735204e+03 3.717493955547929076e-04
1.566783391695847740e+03 3.981048480398939322e-04
1.567683841920960504e+03 4.092156177671017877e-04
1.568584292146073039e+03 3.974213643097411898e-04
1.569484742371185575e+03 3.633608064294940551e-04
1.570385192596298111e+03 3.163514429601156164e-04
1.571285642821410647e+03 2.676659844818041222e-04
1.572186093046523183e+03 2.253016738799144250e-04
1.573086543271635719e+03 1.917633439367668572e-04
1.573986993496748255e+03 1.657094537452824447e-04
1.574887443721860791e+03 1.448927751714672253e-04
1.575787893946973327e+03 1.278825784701753047e-04
1.576688344172085863e+03 1.141791092519176177e-04
1.577588794397198626e+03 1.034140488728381321e-04
1.578489244622311162e+03 9.502001010151248973e-05
1.579389694847423698e+03 8.840697267821158217e-05
1.580290145072536234e+03 8.310099160662043772e-05
1.581190595297648770e+03 7.875866901253483114e-05
1.582091045522761306e+03 7.513806910842880276e-05
1.582991495747873842e+03 7.206817835263016540e-05
1.583891945972986377e+03 6.942629899968908499e-05
1.584792396198098913e+03 6.712277274047391605e-05
1.585692846423211449e+03 6.509086700758683368e-05
1.586593296648323985e+03 6.328004618276840182e-05
1.587493746873436749e+03 6.165142958869771373e-05
1.588394197098549284e+03 6.017467103959828786e-05
1.589294647323661820e+03 5.882577587744126750e-05
1.590195097548774356e+03 5.758554699596439764e-05
1.591095547773886892e+03 5.643846042087582033e-05
1.591995997998999428e+03 5.537183933935623952e-05
1.592896448224111964e+03 5.437523888504587302e-05
1.593796898449224500e+03 5.343998202383104231e-05
1.594697348674337036e+03 5.255880530273678800e-05
1.595597798899449572e+03 5.172558552240495852e-05
1.596498249124562108e+03 5.093512673652903308e-05
1.597398699349674871e+03 5.018299272632538064e-05
1.598299149574787407e+03 4.946537410951042790e-05
1.599199599799899943e+03 4.877898208117689238e-05
1.600100050025012479e+03 4.812096281639629912e-05
1.601000500250125015e+03 4.748882803665489171e-05
1.601900950475237551e+03 4.688039832017707218e-05
1.602801400700350086e+03 4.629375653335063295e-05
1.603701850925462622e+03 4.572720935554119479e-05
1.604602301150575158e+03 4.517925531770925119e-05
1.605502751375687694e+03 4.464855811551632369e-05
1.606403201600800230e+03 4.413392421802733777e-05
1.607303651825912766e+03 4.363428399386458752e-05
1.608204102051025529e+03 4.314867573251477111e-05
1.609104552276138065e+03 4.267623206029196508e-05
1.610005002501250601e+03 4.221616834620025817e-05
1.610905452726363137e+03 4.176777276872439235e-05
1.611805902951475673e+03 4.133039777480394572e-05
1.612706353176588209e+03 4.090345271045795215e-05
1.613606803401700745e+03 4.048639744126734767e-05
1.614507253626813281e+03 4.007873681221541212e-05
1.615407703851925817e+03 3.968001582178325485e-05
1.616308154077038353e+03 3.928981540590299829e-05
1.617208604302150889e+03 3.890774874433662443e-05
1.618109054527263652e+03 3.853345801596198155e-05
1.619009504752376188e+03 3.816661154097026834e-05
1.619909954977488724e+03 3.780690125749057044e-05
1.620810405202601260e+03 3.745404048809884657e-05
1.621710855427713796e+03 3.710776195825165702e-05
1.622611305652826331e+03 3.676781603424854496e-05
1.623511755877938867e+03 3.643396915295190957e-05
1.624412206103051403e+03 3.610600241941874680e-05
1.625312656328163939e+03 3.578371035190873684e-05
1.626213106553276475e+03 3.546689975653126626e-05
1.627113556778389011e+03 3.515538871618190104e-05
1.628014007003501774e+03 3.484900568045010637e-05
1.628914457228614310e+03 3.454758864491215802e-05
1.629814907453726846e+03 3.425098440971448250e-05
1.630715357678839382e+03 3.395904790862179691e-05
1.631615807903951918e+03 3.367164160081478446e-05
1.632516258129064454e+03 3.338863491866008663e-05
1.633416708354176990e+03 3.310990376549342336e-05
1.634317158579289526e+03 3.283533005818649049e-05
1.635217608804402062e+03 3.256480130985323735e-05
1.636118059029514598e+03 3.229821024862262438e-05
1.637018509254627133e+03 3.203545446884406214e-05
1.637918959479739897e+03 3.177643611151825858e-05
1.638819409704852433e+03 3.152106157110331694e-05
1.639719859929964969e+03 3.126924122614469929e-05
1.640620310155077505e+03 3.102088919147499916e-05
1.641520760380190040e+03 3.077592308995778651e-05
1.642421210605302576e+03 3.053426384196401291e-05
1.643321660830415112e+03 3.029583547096775190e-05
1.644222111055527648e+03 3.006056492380553653e-05
1.645122561280640184e+03 2.982838190429644898e-05
1.646023011505752720e+03 2.959921871905021816e-05
1.646923461730865256e+03 2.937301013440586213e-05
1.647823911955978019e+03 2.914969324355122949e-05
1.648724362181090555e+03 2.892920734295995058e-05
1.649624812406203091e+03 2.871149381737381280e-05
1.650525262631315627e+03 2.849649603261827967e-05
1.651425712856428163e+03 2.828415923562494578e-05
1.652326163081540699e+03 2.807443046106989837e-05
1.653226613306653235e+03 2.786725844411394500e-05
1.654127063531765771e+03 2.766259353875823946e-05
1.655027513756878307e+03 2.746038764138461656e-05
1.655927963981990843e+03 2.726059411908213074e-05
1.656828414207103378e+03 2.706316774239953487e-05
1.657728864432216142e+03 2.686806462219090352e-05
1.658629314657328678e+03 2.667524215025500161e-05
1.659529764882441214e+03 2.648465894348921629e-05
1.660430215107553749e+03 2.629627479130601251e-05
1.661330665332666285e+03 2.611005060608030960e-05
1.662231115557778821e+03 2.592594837641223269e-05
1.663131565782891357e+03 2.574393112301117368e-05
1.664032016008003893e+03 2.556396285702070974e-05
1.664932466233116429e+03 2.538600854061796790e-05
1.665832916458228965e+03 2.521003404973397034e-05
1.666733366683341501e+03 2.503600613875636200e-05
1.667633816908454037e+03 2.486389240708154657e-05
1.668534267133566800e+03 2.469366126739880492e-05
1.669434717358679336e+03 2.452528191559317483e-05
1.670335167583791872e+03 2.435872430216519058e-05
1.671235617808904408e+03 2.419395910507258070e-05
1.672136068034016944e+03 2.403095770390676101e-05
1.673036518259129480e+03 2.386969215531906709e-05
1.673936968484242016e+03 2.371013516962369852e-05
1.674837418709354552e+03 2.355226008850681016e-05
1.675737868934467087e+03 2.339604086377410999e-05
1.676638319159579623e+03 2.324145203707868399e-05
1.677538769384692159e+03 2.308846872056993218e-05
1.678439219609804923e+03 2.293706657841198396e-05
1.679339669834917459e+03 2.278722180912225474e-05
1.680240120060029994e+03 2.263891112868419417e-05
1.681140570285142530e+03 2.249211175438932964e-05
1.682041020510255066e+03 2.234680138937314843e-05
1.682941470735367602e+03 2.220295820780105047e-05
1.683841920960480138e+03 2.206056084067547785e-05
1.684742371185592674e+03 2.191958836222651110e-05
1.685642821410705210e+03 2.178002027685771924e-05
1.686543271635817746e+03 2.164183650661757693e-05
1.687443721860930282e+03 2.150501737917124759e-05
1.688344172086043045e+03 2.136954361624348635e-05
1.689244622311155581e+03 2.123539632251176461e-05
1.690145072536268117e+03 2.110255697492784092e-05
1.691045522761380653e+03 2.097100741244441006e-05
1.691945972986493189e+03 2.084072982612716568e-05
1.692846423211605725e+03 2.071170674963659954e-05
1.693746873436718261e+03 2.058392105005850403e-05
1.694647323661830796e+03 2.045735591906792429e-05
1.695547773886943332e+03 2.033199486441182181e-05
1.696448224112055868e+03 2.020782170169434567e-05
1.697348674337168404e+03 2.008482054645164999e-05
1.698249124562281168e+03 1.996297580650277994e-05
1.699149574787393703e+03 1.984227217456495385e-05
1.700050025012506239e+03 1.972269462111987543e-05
1.700950475237618775e+03 1.960422838752124376e-05
1.701850925462731311e+03 1.948685897933378445e-05
1.702751375687843847e+03 1.937057215989124891e-05
1.703651825912956383e+03 1.925535394406730028e-05
1.704552276138068919e+03 1.914119059224603128e-05
1.705452726363181455e+03 1.902806860448912258e-05
1.706353176588293991e+03 1.891597471488617370e-05
1.707253626813406527e+03 1.880489588608547224e-05
1.708154077038519290e+03 1.869481930399274672e-05
1.709054527263631826e+03 1.858573237263649348e-05
1.709954977488744362e+03 1.847762270918863934e-05
1.710855427713856898e+03 1.837047813913835788e-05
1.711755877938969434e+03 1.826428669160853630e-05
1.712656328164081970e+03 1.815903659481459125e-05
1.713556778389194506e+03 1.805471627165602147e-05
1.714457228614307041e+03 1.795131433543668232e-05
1.715357678839419577e+03 1.784881958571054661e-05
1.716258129064532113e+03 1.774722100424613131e-05
1.717158579289644649e+03 1.764650775110673399e-05
1.718059029514757185e+03 1.754666916084101733e-05
1.718959479739869948e+03 1.744769473878096016e-05
1.719859929964982484e+03 1.734957415744260440e-05
1.720760380190095020e+03 1.725229725302610139e-05
1.721660830415207556e+03 1.715585402201214371e-05
1.722561280640320092e+03 1.706023461785012742e-05
1.723461730865432628e+03 1.696542934773619113e-05
1.724362181090545164e+03 1.687142866947651752e-05
1.725262631315657700e+03 1.677822318843534145e-05
1.726163081540770236e+03 1.668580365456164076e-05
1.727063531765882772e+03 1.659416095949526167e-05
1.727963981990995308e+03 1.650328613374626527e-05
1.728864432216108071e+03 1.641317034394837571e-05
1.729764882441220607e+03 1.632380489018207825e-05
1.730665332666333143e+03 1.623518120336554099e-05
1.731565782891445679e+03 1.614729084271105620e-05
1.732466233116558215e+03 1.606012549324673034e-05
1.733366683341670750e+03 1.597367696339613828e-05
1.734267133566783286e+03 1.588793718262249759e-05
1.735167583791895822e+03 1.580289819912682610e-05
1.736068034017008358e+03 1.571855217760281324e-05
1.736968484242120894e+03 1.563489139704758889e-05
1.737868934467233430e+03 1.555190824862353439e-05
1.738769384692346193e+03 1.546959523357162362e-05
1.739669834917458729e+03 1.538794496117389208e-05
1.740570285142571265e+03 1.530695014676434256e-05
1.741470735367683801e+03 1.522660360978634463e-05
1.742371185592796337e+03 1.514689827189467258e-05
1.743271635817908873e+03 1.506782715510229564e-05
1.744172086043021409e+03 1.498938337996876086e-05
1.745072536268133945e+03 1.491156016383082254e-05
1.745972986493246481e+03 1.483435081907234700e-05
1.746873436718359017e+03 1.475774875143427855e-05
1.747773886943471553e+03 1.468174745836155640e-05
1.748674337168584316e+03 1.460634052738725369e-05
1.749574787393696852e+03 1.453152163455294060e-05
1.750475237618809388e+03 1.445728454286302037e-05
1.751375687843921924e+03 1.438362310077368684e-05
1.752276138069034459e+03 1.431053124071451492e-05
1.753176588294146995e+03 1.423800297764216192e-05
1.754077038519259531e+03 1.416603240762482646e-05
1.754977488744372067e+03 1.409461370645809667e-05
1.755877938969484603e+03 1.402374112830930275e-05
1.756778389194597139e+03 1.395340900439058398e-05
1.757678839419709675e+03 1.388361174166137822e-05
1.758579289644822438e+03 1.381434382155597512e-05
1.759479739869934974e+03 1.374559979873979228e-05
1.760380190095047510e+03 1.367737429988995439e-05
1.761280640320160046e+03 1.360966202250165610e-05
1.762181090545272582e+03 1.354245773371919051e-05
1.763081540770385118e+03 1.347575626919077753e-05
1.763981990995497654e+03 1.340955253194698217e-05
1.764882441220610190e+03 1.334384149130076773e-05
1.765782891445722726e+03 1.327861818177172494e-05
1.766683341670835262e+03 1.321387770202989648e-05
1.767583791895947797e+03 1.314961521386165812e-05
1.768484242121060333e+03 1.308582594115673340e-05
1.769384692346173097e+03 1.302250516891374817e-05
1.770285142571285633e+03 1.295964824226696092e-05
1.771185592796398169e+03 1.289725056553088075e-05
1.772086043021510704e+03 1.283530760126400630e-05
1.772986493246623240e+03 1.277381486935166694e-05
1.773886943471735776e+03 1.271276794610443582e-05
1.774787393696848312e+03 1.265216246337648038e-05
1.775687843921960848e+03 1.259199410769848857e-05
1.776588294147073384e+03 1.253225861942926548e-05
1.777488744372185920e+03 1.247295179192168533e-05
1.778389194597298456e+03 1.241406947070590442e-05
1.779289644822411219e+03 1.235560755268648399e-05
1.780190095047523755e+03 1.229756198535643005e-05
1.781090545272636291e+03 1.223992876602412335e-05
1.781990995497748827e+03 1.218270394105577209e-05
1.782891445722861363e+03 1.212588360513169324e-05
1.783791895947973899e+03 1.206946390051610918e-05
1.784692346173086435e+03 1.201344101634078313e-05
1.785592796398198971e+03 1.195781118790127029e-05
1.786493246623311506e+03 1.190257069596613200e-05
1.787393696848424042e+03 1.184771586609995141e-05
1.788294147073536578e+03 1.179324306799615613e-05
1.789194597298649342e+03 1.173914871482415064e-05
1.790095047523761878e+03 1.168542926258734664e-05
1.790995497748874413e+03 1.163208120949234034e-05
1.791895947973986949e+03 1.157910109532970426e-05
1.792796398199099485e+03 1.152648550086628178e-05
1.793696848424212021e+03 1.147423104724703276e-05
1.794597298649324557e+03 1.142233439540888508e-05
1.795497748874437093e+03 1.137079224550359515e-05
1.796398199099549629e+03 1.131960133633182493e-05
1.797298649324662165e+03 1.126875844478621093e-05
1.798199099549774701e+03 1.121826038530439103e-05
1.799099549774887464e+03 1.116810400933232606e-05
1.800000000000000000e+03 1.111828620479540233e-05
