0.000000000000000000e+00 1.201168615132978913e-03
9.004502251125562351e-01 1.600124204906530840e-03
1.800900450225112470e+00 2.128216273372688250e-03
2.701350675337668594e+00 2.722049617262729902e-03
3.601800900450224940e+00 3.185430802112025183e-03
4.502251125562780842e+00 3.333415819675849059e-03
5.402701350675337189e+00 3.164385976592263682e-03
6.303151575787893535e+00 2.738990161778733379e-03
7.203601800900449881e+00 2.179660658884653365e-03
8.104052026013006227e+00 1.655635882592504859e-03
9.004502251125561685e+00 1.247450916984063976e-03
9.904952476238118919e+00 9.514853646605225508e-04
1.080540270135067438e+01 7.397879401281794035e-04
1.170585292646323161e+01 5.871130891998427173e-04
1.260630315157578707e+01 4.751974130157178827e-04
1.350675337668834430e+01 3.915376199248648756e-04
1.440720360180089976e+01 3.277202631026219235e-04
1.530765382691345522e+01 2.780759801277507938e-04
1.620810405202601245e+01 2.387724462991906618e-04
1.710855427713856969e+01 2.071996429065790812e-04
1.800900450225112337e+01 1.815270371834013625e-04
1.890945472736368060e+01 1.604327990487010509e-04
1.980990495247623784e+01 1.429357412633334426e-04
2.071035517758879507e+01 1.282559548078392360e-04
2.161080540270134875e+01 1.157098347184939367e-04
2.251125562781390599e+01 1.047559675397032047e-04
2.341170585292646322e+01 9.512102280921522299e-05
2.431215607803901690e+01 8.669089818590898836e-05
2.521260630315157414e+01 7.933803336895537686e-05
2.611305652826413137e+01 7.290782229469050795e-05
2.701350675337668861e+01 6.725489129705981546e-05
2.791395697848924229e+01 6.225745585505853196e-05
2.881440720360179952e+01 5.781675319195330874e-05
2.971485742871435676e+01 5.385303484507678962e-05
3.061530765382691044e+01 5.030169759436072701e-05
3.151575787893946767e+01 4.710929781330102381e-05
3.241620810405202491e+01 4.422792865038768957e-05
3.331665832916458214e+01 4.160974697030430996e-05
3.421710855427713938e+01 3.921253453731000775e-05
3.511755877938969661e+01 3.701297765968624396e-05
3.601800900450224674e+01 3.499855665795693167e-05
3.691845922961480397e+01 3.315220766666651377e-05
3.781890945472736121e+01 3.145616249686834255e-05
3.871935967983991844e+01 2.990010220558228315e-05
3.961980990495247568e+01 2.847741908622084041e-05
4.052026013006503291e+01 2.717887024773468345e-05
4.142071035517759015e+01 2.598587540529670307e-05
4.232116058029014027e+01 2.486276774835232981e-05
4.322161080540269751e+01 2.377369023808003474e-05
4.412206103051525474e+01 2.272023891152017138e-05
4.502251125562781198e+01 2.172714061662488484e-05
4.592296148074036921e+01 2.080621642432599103e-05
4.682341170585292645e+01 1.995488946729899433e-05
4.772386193096548368e+01 1.916615309107430487e-05
4.862431215607803381e+01 1.843333736939219966e-05
4.952476238119059104e+01 1.775119639869627319e-05
5.042521260630314828e+01 1.711596107653101591e-05
5.132566283141570551e+01 1.652530217330204786e-05
5.222611305652826275e+01 1.597834064931646881e-05
5.312656328164081998e+01 1.547538688762930786e-05
5.402701350675337721e+01 1.501618188376980296e-05
5.492746373186592734e+01 1.459389123801329495e-05
5.582791395697848458e+01 1.418600228497767552e-05
5.672836418209104181e+01 1.376360116560878939e-05
5.762881440720359905e+01 1.332553207373190796e-05
5.852926463231615628e+01 1.289629001584448293e-05
5.942971485742871351e+01 1.249629180548578433e-05
6.033016508254127075e+01 1.213431669056542350e-05
6.123061530765382088e+01 1.181178982568212577e-05
6.213106553276637811e+01 1.152511375177862360e-05
6.303151575787893535e+01 1.126241695864662394e-05
6.393196598299149258e+01 1.100581414127092358e-05
6.483241620810404982e+01 1.075054818776909429e-05
6.573286643321659994e+01 1.050273099109187313e-05
6.663331665832916428e+01 1.024976760682293413e-05
6.753376688344171441e+01 9.973038432184215825e-06
6.843421710855427875e+01 9.685431915335824309e-06
6.933466733366682888e+01 9.414541084797244122e-06
7.023511755877939322e+01 9.174126059091490304e-06
7.113556778389194335e+01 8.966436577953417158e-06
7.203601800900449348e+01 8.790451495903024227e-06
7.293646823411705782e+01 8.643935534026330749e-06
7.383691845922960795e+01 8.523765670855249811e-06
7.473736868434217229e+01 8.426551697110413645e-06
7.563781890945472242e+01 8.334551866105859944e-06
7.653826913456728676e+01 8.201001019156742083e-06
7.743871935967983688e+01 7.995658151233448925e-06
7.833916958479238701e+01 7.752838839073150276e-06
7.923961980990495135e+01 7.521502836655865681e-06
8.014007003501750148e+01 7.321732121541339261e-06
8.104052026013006582e+01 7.154497711469827705e-06
8.194097048524261595e+01 7.016260872725018277e-06
8.284142071035518029e+01 6.903133442605952971e-06
8.374187093546773042e+01 6.808236499999508872e-06
8.464232116058028055e+01 6.719472017745002138e-06
8.554277138569284489e+01 6.629939505042756832e-06
8.644322161080539502e+01 6.546466720933077415e-06
8.734367183591795936e+01 6.470555012592637829e-06
8.824412206103050949e+01 6.387022538751600520e-06
8.914457228614307382e+01 6.289921686573805330e-06
9.004502251125562395e+01 6.198414112813588879e-06
9.094547273636817408e+01 6.127520806397473253e-06
9.184592296148073842e+01 6.063289288839003218e-06
9.274637318659328855e+01 5.974543741159367019e-06
9.364682341170585289e+01 5.857807697257993026e-06
9.454727363681840302e+01 5.743279970942076507e-06
9.544772386193096736e+01 5.652336402715545257e-06
9.634817408704351749e+01 5.580149555358024339e-06
9.724862431215606762e+01 5.507043136628637941e-06
9.814907453726863196e+01 5.425027712938822823e-06
9.904952476238118209e+01 5.340900390616136755e-06
9.994997498749374643e+01 5.253624110530197291e-06
1.008504252126062966e+02 5.162473073189428927e-06
1.017508754377188609e+02 5.080676890022253394e-06
1.026513256628314110e+02 5.021768397824164285e-06
1.035517758879439612e+02 4.989793950332402341e-06
1.044522261130565255e+02 4.976593145549158501e-06
1.053526763381690756e+02 4.957256726616308686e-06
1.062531265632816400e+02 4.906889476901866392e-06
1.071535767883941901e+02 4.835836159564696451e-06
1.080540270135067544e+02 4.776217508467280643e-06
1.089544772386193046e+02 4.746953199683850134e-06
1.098549274637318547e+02 4.748404912015154438e-06
1.107553776888444190e+02 4.765712713138139021e-06
1.116558279139569692e+02 4.767260805149213419e-06
1.125562781390695335e+02 4.723111991196683295e-06
1.134567283641820836e+02 4.647560673502204293e-06
1.143571785892946480e+02 4.581282160747869271e-06
1.152576288144071981e+02 4.546108895952487865e-06
1.161580790395197482e+02 4.543159770070837728e-06
1.170585292646323126e+02 4.558311517099512186e-06
1.179589794897448627e+02 4.568106138871709102e-06
1.188594297148574270e+02 4.556034312954966159e-06
1.197598799399699772e+02 4.504071770269401032e-06
1.206603301650825415e+02 4.403942487654931753e-06
1.215607803901950916e+02 4.286901156332872881e-06
1.224612306153076418e+02 4.192908559933649203e-06
1.233616808404202061e+02 4.140256996323555839e-06
1.242621310655327562e+02 4.132215447284286102e-06
1.251625812906453206e+02 4.165261193242798503e-06
1.260630315157578707e+02 4.227914417715087972e-06
1.269634817408704350e+02 4.303802675781944236e-06
1.278639319659829852e+02 4.374167202084676839e-06
1.287643821910955353e+02 4.408069032475029299e-06
1.296648324162080996e+02 4.396261262737653074e-06
1.305652826413206640e+02 4.371082392375500754e-06
1.314657328664331999e+02 4.336431160150745665e-06
1.323661830915457642e+02 4.251128948832323611e-06
1.332666333166583286e+02 4.107255560115652384e-06
1.341670835417708929e+02 3.951254185593989380e-06
1.350675337668834288e+02 3.826231056137018481e-06
1.359679839919959932e+02 3.744985777848043993e-06
1.368684342171085575e+02 3.698354793159123870e-06
1.377688844422210934e+02 3.663753112139287508e-06
1.386693346673336578e+02 3.621763664498609442e-06
1.395697848924462221e+02 3.578082510218938080e-06
1.404702351175587864e+02 3.552657651360086940e-06
1.413706853426713224e+02 3.558916296495613971e-06
1.422711355677838867e+02 3.601417587577420983e-06
1.431715857928964510e+02 3.675238239299885971e-06
1.440720360180089870e+02 3.763274007568775720e-06
1.449724862431215513e+02 3.849489790761361250e-06
1.458729364682341156e+02 3.928726407571648922e-06
1.467733866933466800e+02 3.980549955733568114e-06
1.476738369184592159e+02 3.967442568383756490e-06
1.485742871435717802e+02 3.884822614517139588e-06
1.494747373686843446e+02 3.783750804729054746e-06
1.503751875937968805e+02 3.708332491082384910e-06
1.512756378189094448e+02 3.646481351186101135e-06
1.521760880440220092e+02 3.559360982675388800e-06
1.530765382691345735e+02 3.445020817537785526e-06
1.539769884942471094e+02 3.337187322903229309e-06
1.548774387193596738e+02 3.259371401818285492e-06
1.557778889444722381e+02 3.216142385848859489e-06
1.566783391695847740e+02 3.203384318018965678e-06
1.575787893946973384e+02 3.210642500554908461e-06
1.584792396198099027e+02 3.220802185904727670e-06
1.593796898449224670e+02 3.225174267525673293e-06
1.602801400700350030e+02 3.238505453559011016e-06
1.611805902951475673e+02 3.283917364559948395e-06
1.620810405202601316e+02 3.376958863507659863e-06
1.629814907453726676e+02 3.520028059101681225e-06
1.638819409704852319e+02 3.687788903261931976e-06
1.647823911955977962e+02 3.821592548657237893e-06
1.656828414207103606e+02 3.879376910534532808e-06
1.665832916458228965e+02 3.866721003237112292e-06
1.674837418709354608e+02 3.788300412294544293e-06
1.683841920960480252e+02 3.664872746515950508e-06
1.692846423211605611e+02 3.555285518408102018e-06
1.701850925462731254e+02 3.495584723459067080e-06
1.710855427713856898e+02 3.467007873155083773e-06
1.719859929964982541e+02 3.426352222913741066e-06
1.728864432216107900e+02 3.363723465128892974e-06
1.737868934467233544e+02 3.297885509231331541e-06
1.746873436718359187e+02 3.229224599806278712e-06
1.755877938969484546e+02 3.154780952729076617e-06
1.764882441220610190e+02 3.092152952047421801e-06
1.773886943471735833e+02 3.054449430286817090e-06
1.782891445722861476e+02 3.031890953490669923e-06
1.791895947973986836e+02 3.010368472142194801e-06
1.800900450225112479e+02 2.996669794500723050e-06
1.809904952476238122e+02 3.004740892769001630e-06
1.818909454727363482e+02 3.029066942555293283e-06
1.827913956978489125e+02 3.044205300858765377e-06
1.836918459229614768e+02 3.029666194954665802e-06
1.845922961480740412e+02 2.993314142572656580e-06
1.854927463731865771e+02 2.955083969684629269e-06
1.863931965982991414e+02 2.916476498585808862e-06
1.872936468234117058e+02 2.872040294983419269e-06
1.881940970485242417e+02 2.830757810482750462e-06
1.890945472736368060e+02 2.806593500382622654e-06
1.899949974987493704e+02 2.803260547898910376e-06
1.908954477238619347e+02 2.808348823600486263e-06
1.917958979489744706e+02 2.803357442248823673e-06
1.926963481740870350e+02 2.788686466324877698e-06
1.935967983991995993e+02 2.784609491544200674e-06
1.944972486243121352e+02 2.809060026897596126e-06
1.953976988494246996e+02 2.870943896572821173e-06
1.962981490745372639e+02 2.971177178930423382e-06
1.971985992996498283e+02 3.097050485537818297e-06
1.980990495247623642e+02 3.219404689837212452e-06
1.989994997498749285e+02 3.304129918251601133e-06
1.998999499749874929e+02 3.325954233971001198e-06
2.008004002001000288e+02 3.285769148624028919e-06
2.017008504252125931e+02 3.221777077720384977e-06
2.026013006503251574e+02 3.178387511164682308e-06
2.035017508754377218e+02 3.173858739534289905e-06
2.044022011005502577e+02 3.190544949289511295e-06
2.053026513256628220e+02 3.181668581034440594e-06
2.062031015507753864e+02 3.116466655430389295e-06
2.071035517758879223e+02 3.018425735528697263e-06
2.080040020010004866e+02 2.931905685332483319e-06
2.089044522261130510e+02 2.881186145785967879e-06
2.098049024512256153e+02 2.865065227872166178e-06
2.107053526763381512e+02 2.861918389623919148e-06
2.116058029014507156e+02 2.851328471497315240e-06
2.125062531265632799e+02 2.840836122105172621e-06
2.134067033516758158e+02 2.851111916266023965e-06
2.143071535767883802e+02 2.888397468348303631e-06
2.152076038019009445e+02 2.949139130561260254e-06
2.161080540270135089e+02 3.036561168532669827e-06
2.170085042521260448e+02 3.148848787070204926e-06
2.179089544772386091e+02 3.255866929837659073e-06
2.188094047023511735e+02 3.319767522263886012e-06
2.197098549274637094e+02 3.339960468202229495e-06
2.206103051525762737e+02 3.333162891964152486e-06
2.215107553776888381e+02 3.300538017638175950e-06
2.224112056028014024e+02 3.263361215023378937e-06
2.233116558279139383e+02 3.258790114480113061e-06
2.242121060530265027e+02 3.285503350135583513e-06
2.251125562781390670e+02 3.306740442940708430e-06
2.260130065032516029e+02 3.306116892383065002e-06
2.269134567283641672e+02 3.296348519275356886e-06
2.278139069534767316e+02 3.284307155178166454e-06
2.287143571785892959e+02 3.263101829154713010e-06
2.296148074037018318e+02 3.221283959127059936e-06
2.305152576288143962e+02 3.151784431650355711e-06
2.314157078539269605e+02 3.069018454101308097e-06
2.323161580790394964e+02 3.012168763155435223e-06
2.332166083041520608e+02 3.008699033845568720e-06
2.341170585292646251e+02 3.051946363189596993e-06
2.350175087543771895e+02 3.103355535642363496e-06
2.359179589794897254e+02 3.119012728496678227e-06
2.368184092046022897e+02 3.086490410807942539e-06
2.377188594297148541e+02 3.022594582207015395e-06
2.386193096548273900e+02 2.949737672516426427e-06
2.395197598799399543e+02 2.878420368912111786e-06
2.404202101050525187e+02 2.808587491484167139e-06
2.413206603301650830e+02 2.750887893832555266e-06
2.422211105552776189e+02 2.718872485205813714e-06
2.431215607803901833e+02 2.709788488999904224e-06
2.440220110055027476e+02 2.711845037571966009e-06
2.449224612306152835e+02 2.721262620735469422e-06
2.458229114557278479e+02 2.736215606062052597e-06
2.467233616808404122e+02 2.750671492239688843e-06
2.476238119059529765e+02 2.768704656710388545e-06
2.485242621310655124e+02 2.800295036152534005e-06
2.494247123561780768e+02 2.847027723649779193e-06
2.503251625812906411e+02 2.914654373588312872e-06
2.512256128064031770e+02 3.015861241863584086e-06
2.521260630315157414e+02 3.143885886594923678e-06
2.530265132566283057e+02 3.261734966711027871e-06
2.539269634817408701e+02 3.330897143697311894e-06
2.548274137068534060e+02 3.349436733319407034e-06
2.557278639319659703e+02 3.342814307319967450e-06
2.566283141570785347e+02 3.330182306154997162e-06
2.575287643821910706e+02 3.310174508976650530e-06
2.584292146073036633e+02 3.268355948030485342e-06
2.593296648324161993e+02 3.210898634693649634e-06
2.602301150575287352e+02 3.169476318038470291e-06
2.611305652826413279e+02 3.162182928434633666e-06
2.620310155077538639e+02 3.173246828063354250e-06
2.629314657328663998e+02 3.168136102018697922e-06
2.638319159579789925e+02 3.139905993003534066e-06
2.647323661830915285e+02 3.109269190485603004e-06
2.656328164082040644e+02 3.085871868713020460e-06
2.665332666333166571e+02 3.077223736457897616e-06
2.674337168584291931e+02 3.099883281592081515e-06
2.683341670835417858e+02 3.163066349271022225e-06
2.692346173086543217e+02 3.259349508892588803e-06
2.701350675337668577e+02 3.359145645305501952e-06
2.710355177588794504e+02 3.423795270348100194e-06
2.719359679839919863e+02 3.445139134413023991e-06
2.728364182091045222e+02 3.442491797660242559e-06
2.737368684342171150e+02 3.421358341284173568e-06
2.746373186593296509e+02 3.380523624209124609e-06
2.755377688844421868e+02 3.326686830144337095e-06
2.764382191095547796e+02 3.260134198703045067e-06
2.773386693346673155e+02 3.185640169867798345e-06
2.782391195597798514e+02 3.127266277170506956e-06
2.791395697848924442e+02 3.104222213035305888e-06
2.800400200100049801e+02 3.107817157969487232e-06
2.809404702351175729e+02 3.117246468853440318e-06
2.818409204602301088e+02 3.129226189786243155e-06
2.827413706853426447e+02 3.157985964338932605e-06
2.836418209104552375e+02 3.210801081378195799e-06
2.845422711355677734e+02 3.287484224641578565e-06
2.854427213606803093e+02 3.375873790922059894e-06
2.863431715857929021e+02 3.449140818654543634e-06
2.872436218109054380e+02 3.491413812479937615e-06
2.881440720360179739e+02 3.501380844210329313e-06
2.890445222611305667e+02 3.483575229568336047e-06
2.899449724862431026e+02 3.446541428871355805e-06
2.908454227113556385e+02 3.394157548073322771e-06
2.917458729364682313e+02 3.329463089184037699e-06
2.926463231615807672e+02 3.264131879990992477e-06
2.935467733866933600e+02 3.202358577449082485e-06
2.944472236118058959e+02 3.140121211954054060e-06
2.953476738369184318e+02 3.083103073180764662e-06
2.962481240620310246e+02 3.047548920384733848e-06
2.971485742871435605e+02 3.048484427481935975e-06
2.980490245122560964e+02 3.088685863997931688e-06
2.989494747373686891e+02 3.162637132174114003e-06
2.998499249624812251e+02 3.271840099675936993e-06
3.007503751875937610e+02 3.412888153988962298e-06
3.016508254127063537e+02 3.553058115654176375e-06
3.025512756378188897e+02 3.651292507813842506e-06
3.034517258629314256e+02 3.706084436615867758e-06
3.043521760880440183e+02 3.743619367203159252e-06
3.052526263131565543e+02 3.770324153742718278e-06
3.061530765382691470e+02 3.776009835826341341e-06
3.070535267633816829e+02 3.757495265451986203e-06
3.079539769884942189e+02 3.725089557902679883e-06
3.088544272136068116e+02 3.697244711182203591e-06
3.097548774387193475e+02 3.688075653611498054e-06
3.106553276638318835e+02 3.693093660392797268e-06
3.115557778889444762e+02 3.685058315893249785e-06
3.124562281140570121e+02 3.646043023549876648e-06
3.133566783391695481e+02 3.593601613708339792e-06
3.142571285642821408e+02 3.555785649401505732e-06
3.151575787893946767e+02 3.541777553488012857e-06
3.160580290145072127e+02 3.542160798740187402e-06
3.169584792396198054e+02 3.544124067024305859e-06
3.178589294647323413e+02 3.551306872254009653e-06
3.187593796898449341e+02 3.581762100658586229e-06
3.196598299149574700e+02 3.647879668763804957e-06
3.205602801400700059e+02 3.738668650219708785e-06
3.214607303651825987e+02 3.820738964587630801e-06
3.223611805902951346e+02 3.857726846793269763e-06
3.232616308154076705e+02 3.833610585769120090e-06
3.241620810405202633e+02 3.765856972911593376e-06
3.250625312656327992e+02 3.688453627775834268e-06
3.259629814907453351e+02 3.622595246969852896e-06
3.268634317158579279e+02 3.571191939617481391e-06
3.277638819409704638e+02 3.531565623093980544e-06
3.286643321660829997e+02 3.497725685831355517e-06
3.295647823911955925e+02 3.461724826685398614e-06
3.304652326163081284e+02 3.425590338709917973e-06
3.313656828414207212e+02 3.403814624499561426e-06
3.322661330665332571e+02 3.406295035037170549e-06
3.331665832916457930e+02 3.425884051215189091e-06
3.340670335167583858e+02 3.457375385326297521e-06
3.349674837418709217e+02 3.516416083213763498e-06
3.358679339669834576e+02 3.620448623912931242e-06
3.367683841920960504e+02 3.763679746540117833e-06
3.376688344172085863e+02 3.915776502710260365e-06
3.385692846423211222e+02 4.035097709796797721e-06
3.394697348674337150e+02 4.098397819537111468e-06
3.403701850925462509e+02 4.106329500978647299e-06
3.412706353176587868e+02 4.058407823345010998e-06
3.421710855427713796e+02 3.966343139434729851e-06
3.430715357678839155e+02 3.861467065952553415e-06
3.439719859929965082e+02 3.764847459228774957e-06
3.448724362181090441e+02 3.680260566480406637e-06
3.457728864432215801e+02 3.598832246789158614e-06
3.466733366683341728e+02 3.510925662469132420e-06
3.475737868934467087e+02 3.427106216880594800e-06
3.484742371185592447e+02 3.377573953273373030e-06
3.493746873436718374e+02 3.379824596815878746e-06
3.502751375687843733e+02 3.425626371602800230e-06
3.511755877938969093e+02 3.504474151279653867e-06
3.520760380190095020e+02 3.615690930067651977e-06
3.529764882441220379e+02 3.748327345618238924e-06
3.538769384692345739e+02 3.876502934047100027e-06
3.547773886943471666e+02 3.975435254217254068e-06
3.556778389194597025e+02 4.022545098599479029e-06
3.565782891445722953e+02 4.002777018290475856e-06
3.574787393696848312e+02 3.926310405028603824e-06
3.583791895947973671e+02 3.825441315865611649e-06
3.592796398199099599e+02 3.733228746331886126e-06
3.601800900450224958e+02 3.663415597122217623e-06
3.610805402701350317e+02 3.608261839749140495e-06
3.619809904952476245e+02 3.555162958332992325e-06
3.628814407203601604e+02 3.504259229480027834e-06
3.637818909454726963e+02 3.472081353963655604e-06
3.646823411705852891e+02 3.478541514713855497e-06
3.655827913956978250e+02 3.525762702757416221e-06
3.664832416208103609e+02 3.603592767592974966e-06
3.673836918459229537e+02 3.714087254991840719e-06
3.682841420710354896e+02 3.862451382739991598e-06
3.691845922961480824e+02 4.033121794913447578e-06
3.700850425212606183e+02 4.185527343807021409e-06
3.709854927463731542e+02 4.264556255965636227e-06
3.718859429714857470e+02 4.242945655458330991e-06
3.727863931965982829e+02 4.142978973434264301e-06
3.736868434217108188e+02 4.007142374229508563e-06
3.745872936468234116e+02 3.872393359894524097e-06
3.754877438719359475e+02 3.760604709863735246e-06
3.763881940970484834e+02 3.677769563905746293e-06
3.772886443221610762e+02 3.619645809570094341e-06
3.781890945472736121e+02 3.583436984952669156e-06
3.790895447723861480e+02 3.578123604389186822e-06
3.799899949974987408e+02 3.616583556798731196e-06
3.808904452226112767e+02 3.698607609027542135e-06
3.817908954477238694e+02 3.814763066330545237e-06
3.826913456728364054e+02 3.966444640942920449e-06
3.835917958979489413e+02 4.163594286082032665e-06
3.844922461230615340e+02 4.399616488901754529e-06
3.853926963481740700e+02 4.632320513841899795e-06
3.862931465732866059e+02 4.796176227568072998e-06
3.871935967983991986e+02 4.851357329800309284e-06
3.880940470235117346e+02 4.807253215272579357e-06
3.889944972486242705e+02 4.693858396821056488e-06
3.898949474737368632e+02 4.547133620181379013e-06
3.907953976988493991e+02 4.403190818339714402e-06
3.916958479239619351e+02 4.271956769464529933e-06
3.925962981490745278e+02 4.141392407354772919e-06
3.934967483741870637e+02 4.006877807751682643e-06
3.943971985992996565e+02 3.892165620748696648e-06
3.952976488244121924e+02 3.827141997465423371e-06
3.961980990495247283e+02 3.814123892005193894e-06
3.970985492746373211e+02 3.841179481873342809e-06
3.979989994997498570e+02 3.915279227761842343e-06
3.988994497248623929e+02 4.049108167186114731e-06
3.997998999499749857e+02 4.223731133593608383e-06
4.007003501750875216e+02 4.386915132863957222e-06
4.016008004002000575e+02 4.492419945936314668e-06
4.025012506253126503e+02 4.530215191719853487e-06
4.034017008504251862e+02 4.509875986485888313e-06
4.043021510755377221e+02 4.444665620947710643e-06
4.052026013006503149e+02 4.355758794359425833e-06
4.061030515257628508e+02 4.256226727761844384e-06
4.070035017508754436e+02 4.145647924704160884e-06
4.079039519759879795e+02 4.028552101332979296e-06
4.088044022011005154e+02 3.922848943162459366e-06
4.097048524262131082e+02 3.851168154906422624e-06
4.106053026513256441e+02 3.823266768666754728e-06
4.115057528764381800e+02 3.841217497728433942e-06
4.124062031015507728e+02 3.911537058996409868e-06
4.133066533266633087e+02 4.036925676751100341e-06
4.142071035517758446e+02 4.206286400671254630e-06
4.151075537768884374e+02 4.403783158268162351e-06
4.160080040020009733e+02 4.613815187276843311e-06
4.169084542271135092e+02 4.799449089329633708e-06
4.178089044522261020e+02 4.909424236100944508e-06
4.187093546773386379e+02 4.923028959940188612e-06
4.196098049024512306e+02 4.856975756215895122e-06
4.205102551275637666e+02 4.732464259638131810e-06
4.214107053526763025e+02 4.579465050320109005e-06
4.223111555777888952e+02 4.439335452579795176e-06
4.232116058029014312e+02 4.339818201919466756e-06
4.241120560280139671e+02 4.287594694107647572e-06
4.250125062531265598e+02 4.285061247012577156e-06
4.259129564782390958e+02 4.348505282895130288e-06
4.268134067033516317e+02 4.484206760884012867e-06
4.277138569284642244e+02 4.666460187923742601e-06
4.286143071535767604e+02 4.867688867793328047e-06
4.295147573786892963e+02 5.077325240199365028e-06
4.304152076038018890e+02 5.270561248863641591e-06
4.313156578289144250e+02 5.412646491943380240e-06
4.322161080540270177e+02 5.499889456352873432e-06
4.331165582791395536e+02 5.535280640163285338e-06
4.340170085042520896e+02 5.487360427359600099e-06
4.349174587293646823e+02 5.327053982590245100e-06
4.358179089544772182e+02 5.089502089313998072e-06
4.367183591795897541e+02 4.854137120505727596e-06
4.376188094047023469e+02 4.668894069239263803e-06
4.385192596298148828e+02 4.539538136249111296e-06
4.394197098549274187e+02 4.460860744364694948e-06
4.403201600800400115e+02 4.423098506823307906e-06
4.412206103051525474e+02 4.428341209844373587e-06
4.421210605302650833e+02 4.502475063399196833e-06
4.430215107553776761e+02 4.656005323336625202e-06
4.439219609804902120e+02 4.856075057141734467e-06
4.448224112056028048e+02 5.047097252309335706e-06
4.457228614307153407e+02 5.186868258728192634e-06
4.466233116558278766e+02 5.262215850919635418e-06
4.475237618809404694e+02 5.264037253703455199e-06
4.484242121060530053e+02 5.184372661723247240e-06
4.493246623311655412e+02 5.042797073430486809e-06
4.502251125562781340e+02 4.878861353638203630e-06
4.511255627813906699e+02 4.743508951432021058e-06
4.520260130065032058e+02 4.675698015857925869e-06
4.529264632316157986e+02 4.688774606363622247e-06
4.538269134567283345e+02 4.790808235399690555e-06
4.547273636818408704e+02 4.980049185806018530e-06
4.556278139069534632e+02 5.225136801914962598e-06
4.565282641320659991e+02 5.479723435501301007e-06
4.574287143571785919e+02 5.712522950248423299e-06
4.583291645822911278e+02 5.912504204714132777e-06
4.592296148074036637e+02 6.070776818604079275e-06
4.601300650325162565e+02 6.173110903088246943e-06
4.610305152576287924e+02 6.199115747810387889e-06
4.619309654827413283e+02 6.127563811021560071e-06
4.628314157078539210e+02 5.962111416289945271e-06
4.637318659329664570e+02 5.735768817171913872e-06
4.646323161580789929e+02 5.498054768114314891e-06
4.655327663831915856e+02 5.308983451590508716e-06
4.664332166083041216e+02 5.212011119559087087e-06
4.673336668334167143e+02 5.212839246482480709e-06
4.682341170585292502e+02 5.290773589817502027e-06
4.691345672836417862e+02 5.408965239307089269e-06
4.700350175087543789e+02 5.524546465542284570e-06
4.709354677338669148e+02 5.606586421112510970e-06
4.718359179589794508e+02 5.645153788318039952e-06
4.727363681840920435e+02 5.649476259177789076e-06
4.736368184092045794e+02 5.635768637128566842e-06
4.745372686343171154e+02 5.618439937061125067e-06
4.754377188594297081e+02 5.612061429004995559e-06
4.763381690845422440e+02 5.632670023259306937e-06
4.772386193096547800e+02 5.693156551169546789e-06
4.781390695347673727e+02 5.791067991978102778e-06
4.790395197598799086e+02 5.912909193387905048e-06
4.799399699849925014e+02 6.037774913986975470e-06
4.808404202101050373e+02 6.136106296669967879e-06
4.817408704352175732e+02 6.194936474695383277e-06
4.826413206603301660e+02 6.226544353052571811e-06
4.835417708854427019e+02 6.241989845737780121e-06
4.844422211105552378e+02 6.250673568331031460e-06
4.853426713356678306e+02 6.270401984848010135e-06
4.862431215607803665e+02 6.313823225776712569e-06
4.871435717858929024e+02 6.379817352552172035e-06
4.880440220110054952e+02 6.463643737419299928e-06
4.889444722361180311e+02 6.554387325640157810e-06
4.898449224612305670e+02 6.622780603050891836e-06
4.907453726863431598e+02 6.637545528956266698e-06
4.916458229114556957e+02 6.592722111467622171e-06
4.925462731365682885e+02 6.507149744898397822e-06
4.934467233616808244e+02 6.408946396724138540e-06
4.943471735867933603e+02 6.322740766530143849e-06
4.952476238119059531e+02 6.273632955089886886e-06
4.961480740370184890e+02 6.287144009654699075e-06
4.970485242621310249e+02 6.359332129843236773e-06
4.979489744872436177e+02 6.450449340519692771e-06
4.988494247123561536e+02 6.526450931682208053e-06
4.997498749374686895e+02 6.580282503177040976e-06
5.006503251625812823e+02 6.619392820832292346e-06
5.015507753876938182e+02 6.654260097268374301e-06
5.024512256128063541e+02 6.700961349523175155e-06
5.033516758379189469e+02 6.771807260324417623e-06
5.042521260630314828e+02 6.861069312027677549e-06
5.051525762881440755e+02 6.936857323115388661e-06
5.060530265132566115e+02 6.960566647480209803e-06
5.069534767383691474e+02 6.928357949124857157e-06
5.078539269634817401e+02 6.878386483690316036e-06
5.087543771885942760e+02 6.854856810534665866e-06
5.096548274137068120e+02 6.862814817177682556e-06
5.105552776388194047e+02 6.879755367252677717e-06
5.114557278639319406e+02 6.897701565169334278e-06
5.123561780890445334e+02 6.918114224176551124e-06
5.132566283141570693e+02 6.939314023774602670e-06
5.141570785392696052e+02 6.953365340611808771e-06
5.150575287643821412e+02 6.949108221141682518e-06
5.159579789894946771e+02 6.937130816166425897e-06
5.168584292146073267e+02 6.942561383652271722e-06
5.177588794397198626e+02 6.970178905699427094e-06
5.186593296648323985e+02 7.014179652348330436e-06
5.195597798899449344e+02 7.076296517515695980e-06
5.204602301150574704e+02 7.143751975932237757e-06
5.213606803401700063e+02 7.181941709480282299e-06
5.222611305652826559e+02 7.170866038766392098e-06
5.231615807903951918e+02 7.134199163891655337e-06
5.240620310155077277e+02 7.114320384635832109e-06
5.249624812406202636e+02 7.131819009385714112e-06
5.258629314657327996e+02 7.180695508150923412e-06
5.267633816908454492e+02 7.251788861154512261e-06
5.276638319159579851e+02 7.345101222673394343e-06
5.285642821410705210e+02 7.454784717047720684e-06
5.294647323661830569e+02 7.562566443964579683e-06
5.303651825912955928e+02 7.646183216300599976e-06
5.312656328164081287e+02 7.695550764338434738e-06
5.321660830415207784e+02 7.723667713361683423e-06
5.330665332666333143e+02 7.737808714000394620e-06
5.339669834917458502e+02 7.722619073677092325e-06
5.348674337168583861e+02 7.668232678113725049e-06
5.357678839419709220e+02 7.584329167044803796e-06
5.366683341670835716e+02 7.497980079174924466e-06
5.375687843921961075e+02 7.434324309677378285e-06
5.384692346173086435e+02 7.400007620627672156e-06
5.393696848424211794e+02 7.384313567503295491e-06
5.402701350675337153e+02 7.368711200431926065e-06
5.411705852926462512e+02 7.351103787674766021e-06
5.420710355177589008e+02 7.353807569361267638e-06
5.429714857428714367e+02 7.402780520864175351e-06
5.438719359679839727e+02 7.507334634371501193e-06
5.447723861930965086e+02 7.657035322532755492e-06
5.456728364182090445e+02 7.824722426591567442e-06
5.465732866433215804e+02 7.974401536100029407e-06
5.474737368684342300e+02 8.078552051966953181e-06
5.483741870935467659e+02 8.139335817289486167e-06
5.492746373186593019e+02 8.184452778096055827e-06
5.501750875437718378e+02 8.237910640476692347e-06
5.510755377688843737e+02 8.309079553825056294e-06
5.519759879939970233e+02 8.408648150616854938e-06
5.528764382191095592e+02 8.550012807842092058e-06
5.537768884442220951e+02 8.731131627785431408e-06
5.546773386693346310e+02 8.926506779479711313e-06
5.555777888944471670e+02 9.108514327859685184e-06
5.564782391195597029e+02 9.264769408214145805e-06
5.573786893446723525e+02 9.396452246999826194e-06
5.582791395697848884e+02 9.513742341133251231e-06
5.591795897948974243e+02 9.628568714289552528e-06
5.600800400200099602e+02 9.742959461706652427e-06
5.609804902451224962e+02 9.851500306123294628e-06
5.618809404702351458e+02 9.955596337914813130e-06
5.627813906953476817e+02 1.004638647654262766e-05
5.636818409204602176e+02 1.010446620334956276e-05
5.645822911455727535e+02 1.012163971480352644e-05
5.654827413706852894e+02 1.010067062138509227e-05
5.663831915957978254e+02 1.006402456861850418e-05
5.672836418209104750e+02 1.006428318602394576e-05
5.681840920460230109e+02 1.014255358302450547e-05
5.690845422711355468e+02 1.028785380871619721e-05
5.699849924962480827e+02 1.045437811098520501e-05
5.708854427213606186e+02 1.060748312687724626e-05
5.717858929464731546e+02 1.074243959948968332e-05
5.726863431715858042e+02 1.086224453969496665e-05
5.735867933966983401e+02 1.095945992429221001e-05
5.744872436218108760e+02 1.102185631394738148e-05
5.753876938469234119e+02 1.105028270061217298e-05
5.762881440720359478e+02 1.105661229303510672e-05
5.771885942971485974e+02 1.104368489405540218e-05
5.780890445222611334e+02 1.101769010253228511e-05
5.789894947473736693e+02 1.099011397001381732e-05
5.798899449724862052e+02 1.095726540345469498e-05
5.807903951975987411e+02 1.093350034657002162e-05
5.816908454227112770e+02 1.095564525217757878e-05
5.825912956478239266e+02 1.103990746883471830e-05
5.834917458729364625e+02 1.116678634763015788e-05
5.843921960980489985e+02 1.130673364288894197e-05
5.852926463231615344e+02 1.145092921790733187e-05
5.861930965482740703e+02 1.160399959678987517e-05
5.870935467733867199e+02 1.177253053276493655e-05
5.879939969984992558e+02 1.195372649932648132e-05
5.888944472236117917e+02 1.212294124270067487e-05
5.897948974487243277e+02 1.224917557931801598e-05
5.906953476738368636e+02 1.231875577266912784e-05
5.915957978989493995e+02 1.234858468820792897e-05
5.924962481240620491e+02 1.237669824026701696e-05
5.933966983491745850e+02 1.242377349576065978e-05
5.942971485742871209e+02 1.247396930046380426e-05
5.951975987993996569e+02 1.251237453813193683e-05
5.960980490245121928e+02 1.255363003767222396e-05
5.969984992496247287e+02 1.262140509100129588e-05
5.978989494747373783e+02 1.271702944020064900e-05
5.987993996998499142e+02 1.281800114432436433e-05
5.996998499249624501e+02 1.290172333827025796e-05
6.006003001500749860e+02 1.295878281327833644e-05
6.015007503751875220e+02 1.299219266205761830e-05
6.024012006003001716e+02 1.303441222584788916e-05
6.033016508254127075e+02 1.312928902512595985e-05
6.042021010505252434e+02 1.328481553675686193e-05
6.051025512756377793e+02 1.345482333533943063e-05
6.060030015007503152e+02 1.358564565064517081e-05
6.069034517258628512e+02 1.367936891908315944e-05
6.078039019509755008e+02 1.377701615552625630e-05
6.087043521760880367e+02 1.390015389823855134e-05
6.096048024012005726e+02 1.403255440967636451e-05
6.105052526263131085e+02 1.412259540392617087e-05
6.114057028514256444e+02 1.410170258395147271e-05
6.123061530765382940e+02 1.395873150044338638e-05
6.132066033016508300e+02 1.375550386837047348e-05
6.141070535267633659e+02 1.357930907251216316e-05
6.150075037518759018e+02 1.351011395174449361e-05
6.159079539769884377e+02 1.358361955591859257e-05
6.168084042021009736e+02 1.378047624088393968e-05
6.177088544272136232e+02 1.406677275130501962e-05
6.186093046523261592e+02 1.442363858501187620e-05
6.195097548774386951e+02 1.482497636671920336e-05
6.204102051025512310e+02 1.523853397619288495e-05
6.213106553276637669e+02 1.562516919590470327e-05
6.222111055527763028e+02 1.594554099694692789e-05
6.231115557778889524e+02 1.618829629671782123e-05
6.240120060030014884e+02 1.634841602596756154e-05
6.249124562281140243e+02 1.641611195852475365e-05
6.258129064532265602e+02 1.642560835181050913e-05
6.267133566783390961e+02 1.641856420131382303e-05
6.276138069034517457e+02 1.640421657706526293e-05
6.285142571285642816e+02 1.641242697774109168e-05
6.294147073536768175e+02 1.648435321120425256e-05
6.303151575787893535e+02 1.660453536728246355e-05
6.312156078039018894e+02 1.670958701261895913e-05
6.321160580290144253e+02 1.673865012390518848e-05
6.330165082541270749e+02 1.668412251057269568e-05
6.339169584792396108e+02 1.660136280699776496e-05
6.348174087043521467e+02 1.655775943481293237e-05
6.357178589294646827e+02 1.657370179136085939e-05
6.366183091545772186e+02 1.659104128485231790e-05
6.375187593796898682e+02 1.653735603941307821e-05
6.384192096048024041e+02 1.639397269586044553e-05
6.393196598299149400e+02 1.619681569243514141e-05
6.402201100550274759e+02 1.603043615356884534e-05
6.411205602801400119e+02 1.598239979787837028e-05
6.420210105052525478e+02 1.609076738912763551e-05
6.429214607303651974e+02 1.632303465558449960e-05
6.438219109554777333e+02 1.658764709665341727e-05
6.447223611805902692e+02 1.682198181310554119e-05
6.456228114057028051e+02 1.705567990202043146e-05
6.465232616308153411e+02 1.734305415295318538e-05
6.474237118559278770e+02 1.768074899334219806e-05
6.483241620810405266e+02 1.801348300994220480e-05
6.492246123061530625e+02 1.829654898251285652e-05
6.501250625312655984e+02 1.850523430196802154e-05
6.510255127563781343e+02 1.860301418356395868e-05
6.519259629814906702e+02 1.859599076300102658e-05
6.528264132066033198e+02 1.855983915362608927e-05
6.537268634317158558e+02 1.854735992494120731e-05
6.546273136568283917e+02 1.857061337505165084e-05
6.555277638819409276e+02 1.863894545970558206e-05
6.564282141070534635e+02 1.876229217294081718e-05
6.573286643321659994e+02 1.889566298525822654e-05
6.582291145572786490e+02 1.892316798305716027e-05
6.591295647823911850e+02 1.876621924899682601e-05
6.600300150075037209e+02 1.846028989352104614e-05
6.609304652326162568e+02 1.809110023896990239e-05
6.618309154577287927e+02 1.772392312334710051e-05
6.627313656828414423e+02 1.739312148524063388e-05
6.636318159079539782e+02 1.711530877583368246e-05
6.645322661330665142e+02 1.690551721215605347e-05
6.654327163581790501e+02 1.678488402463538279e-05
6.663331665832915860e+02 1.676058605929780368e-05
6.672336168084041219e+02 1.682957752456745276e-05
6.681340670335167715e+02 1.698417955370792621e-05
6.690345172586293074e+02 1.720481897628065528e-05
6.699349674837418434e+02 1.744168013848084193e-05
6.708354177088543793e+02 1.757807384577734605e-05
6.717358679339669152e+02 1.752375040958902569e-05
6.726363181590794511e+02 1.732114295823702717e-05
6.735367683841921007e+02 1.707626686263065050e-05
6.744372186093046366e+02 1.682528521733934568e-05
6.753376688344171725e+02 1.652844689708367519e-05
6.762381190595297085e+02 1.617983538947164745e-05
6.771385692846422444e+02 1.585830544979425182e-05
6.780390195097548940e+02 1.564599484258754475e-05
6.789394697348674299e+02 1.558781393856933025e-05
6.798399199599799658e+02 1.569171135870666006e-05
6.807403701850925017e+02 1.591368804137312471e-05
6.816408204102050377e+02 1.618500161997662231e-05
6.825412706353175736e+02 1.645727138679124580e-05
6.834417208604302232e+02 1.668996762395445139e-05
6.843421710855427591e+02 1.681018499950574888e-05
6.852426213106552950e+02 1.674577096679628356e-05
6.861430715357678309e+02 1.653952126621002823e-05
6.870435217608803669e+02 1.631748946486363897e-05
6.879439719859930165e+02 1.616462395084109445e-05
6.888444222111055524e+02 1.612031372057190845e-05
6.897448724362180883e+02 1.619633476585742186e-05
6.906453226613306242e+02 1.631742726674540112e-05
6.915457728864431601e+02 1.636170153689521731e-05
6.924462231115556961e+02 1.632001324007019974e-05
6.933466733366683457e+02 1.628262129568171205e-05
6.942471235617808816e+02 1.629572847739491171e-05
6.951475737868934175e+02 1.631477785199757894e-05
6.960480240120059534e+02 1.625491213656132024e-05
6.969484742371184893e+02 1.610061270210331194e-05
6.978489244622311389e+02 1.591802362387660343e-05
6.987493746873436749e+02 1.574849258008473193e-05
6.996498249124562108e+02 1.558553602792253623e-05
7.005502751375687467e+02 1.543094705480452602e-05
7.014507253626812826e+02 1.529738051207581357e-05
7.023511755877938185e+02 1.519845401981669097e-05
7.032516258129064681e+02 1.513849676433536713e-05
7.041520760380190040e+02 1.512538121878595627e-05
7.050525262631315400e+02 1.518142765692456821e-05
7.059529764882440759e+02 1.530648604036014918e-05
7.068534267133566118e+02 1.546685969403666954e-05
7.077538769384691477e+02 1.564797105715206134e-05
7.086543271635817973e+02 1.586137982753559340e-05
7.095547773886943332e+02 1.608954328310858905e-05
7.104552276138068692e+02 1.625829450207406330e-05
7.113556778389194051e+02 1.630967297133021176e-05
7.122561280640319410e+02 1.629987227259352848e-05
7.131565782891445906e+02 1.631480824229684788e-05
7.140570285142571265e+02 1.634113984777413003e-05
7.149574787393696624e+02 1.629695496592188270e-05
7.158579289644821984e+02 1.613367693777747956e-05
7.167583791895947343e+02 1.588952158986061379e-05
7.176588294147072702e+02 1.566222704826131603e-05
7.185592796398199198e+02 1.551354091771561651e-05
7.194597298649324557e+02 1.542058290306261493e-05
7.203601800900449916e+02 1.530989953513657925e-05
7.212606303151575275e+02 1.515419538731782370e-05
7.221610805402700635e+02 1.499354834181660627e-05
7.230615307653827131e+02 1.482412328287767145e-05
7.239619809904952490e+02 1.460059943489077360e-05
7.248624312156077849e+02 1.432418999274064150e-05
7.257628814407203208e+02 1.406559041137293728e-05
7.266633316658328567e+02 1.390512349984850073e-05
7.275637818909453927e+02 1.386827592462906529e-05
7.284642321160580423e+02 1.392163815777959310e-05
7.293646823411705782e+02 1.400342896280806379e-05
7.302651325662831141e+02 1.404867889708315138e-05
7.311655827913956500e+02 1.405379326059028596e-05
7.320660330165081859e+02 1.406120581488839639e-05
7.329664832416207219e+02 1.405207208499397162e-05
7.338669334667333715e+02 1.395497499417353581e-05
7.347673836918459074e+02 1.375729810710957514e-05
7.356678339169584433e+02 1.353118917058426007e-05
7.365682841420709792e+02 1.335887793709472711e-05
7.374687343671835151e+02 1.327181797784337972e-05
7.383691845922961647e+02 1.325412920255132413e-05
7.392696348174087007e+02 1.327971704572485182e-05
7.401700850425212366e+02 1.330943502810881282e-05
7.410705352676337725e+02 1.329201359966035605e-05
7.419709854927463084e+02 1.320091569655149158e-05
7.428714357178588443e+02 1.304191492280471618e-05
7.437718859429714939e+02 1.284718880378259125e-05
7.446723361680840299e+02 1.264302743400241077e-05
7.455727863931965658e+02 1.241277008494515016e-05
7.464732366183091017e+02 1.213302928854645575e-05
7.473736868434216376e+02 1.182303247914735737e-05
7.482741370685342872e+02 1.153842533409242668e-05
7.491745872936468231e+02 1.132108329540821650e-05
7.500750375187593590e+02 1.118407515834822211e-05
7.509754877438718950e+02 1.111506284110487950e-05
7.518759379689844309e+02 1.108820952925806906e-05
7.527763881940969668e+02 1.109764334804091123e-05
7.536768384192096164e+02 1.113484922736697157e-05
7.545772886443221523e+02 1.117072811820108581e-05
7.554777388694346882e+02 1.118709795315080373e-05
7.563781890945472242e+02 1.118380493427551343e-05
7.572786393196597601e+02 1.116655689398377727e-05
7.581790895447722960e+02 1.115627388746868711e-05
7.590795397698849456e+02 1.118420963803822831e-05
7.599799899949974815e+02 1.125969223119783920e-05
7.608804402201100174e+02 1.135692198148635326e-05
7.617808904452225534e+02 1.143959244260370667e-05
7.626813406703350893e+02 1.147730085769016608e-05
7.635817908954477389e+02 1.144893756365929548e-05
7.644822411205602748e+02 1.134778761875112657e-05
7.653826913456728107e+02 1.118718862816758298e-05
7.662831415707853466e+02 1.100254404520273533e-05
7.671835917958978825e+02 1.084403464268896045e-05
7.680840420210104185e+02 1.074904426905854383e-05
7.689844922461230681e+02 1.071304158611117608e-05
7.698849424712356040e+02 1.070556525534897874e-05
7.707853926963481399e+02 1.071936962615328158e-05
7.716858429214606758e+02 1.076987493786764299e-05
7.725862931465732117e+02 1.084524764079085091e-05
7.734867433716858613e+02 1.090651435974542604e-05
7.743871935967983973e+02 1.093661026267481907e-05
7.752876438219109332e+02 1.094885649384823229e-05
7.761880940470234691e+02 1.094594822965639805e-05
7.770885442721360050e+02 1.090958222656687026e-05
7.779889944972485409e+02 1.082286627700371056e-05
7.788894447223611905e+02 1.069239493916863395e-05
7.797898949474737265e+02 1.055154770274168506e-05
7.806903451725862624e+02 1.043259619976500389e-05
7.815907953976987983e+02 1.034319055877243155e-05
7.824912456228113342e+02 1.027389436671761913e-05
7.833916958479238701e+02 1.022560514775696551e-05
7.842921460730365197e+02 1.020651087549182141e-05
7.851925962981490557e+02 1.020695157868742924e-05
7.860930465232615916e+02 1.020908655355524708e-05
7.869934967483741275e+02 1.021593053183026317e-05
7.878939469734866634e+02 1.023265421115405190e-05
7.887943971985993130e+02 1.024773494938461372e-05
7.896948474237118489e+02 1.024112856761807830e-05
7.905952976488243849e+02 1.019680908596217708e-05
7.914957478739369208e+02 1.010824898570590389e-05
7.923961980990494567e+02 9.990069106655926883e-06
7.932966483241619926e+02 9.875720737178866570e-06
7.941970985492746422e+02 9.790735087949274093e-06
7.950975487743871781e+02 9.733320876021066102e-06
7.959979989994997140e+02 9.683904960250055917e-06
7.968984492246122500e+02 9.636091468192012967e-06
7.977988994497247859e+02 9.602884135635511605e-06
7.986993496748374355e+02 9.596768901361068033e-06
7.995997998999499714e+02 9.621303886566374102e-06
8.005002501250625073e+02 9.663712530351736189e-06
8.014007003501750432e+02 9.704931321446407159e-06
8.023011505752875792e+02 9.741810616838329708e-06
8.032016008004001151e+02 9.774682801739060346e-06
8.041020510255127647e+02 9.788125586474347552e-06
8.050025012506253006e+02 9.755795650717127677e-06
8.059029514757378365e+02 9.668904503446575893e-06
8.068034017008503724e+02 9.553943312183533096e-06
8.077038519259629084e+02 9.451760468282119606e-06
8.086043021510754443e+02 9.388710929562055213e-06
8.095047523761880939e+02 9.367084243171407471e-06
8.104052026013006298e+02 9.380038768274204895e-06
8.113056528264131657e+02 9.419166343510820106e-06
8.122061030515257016e+02 9.465318671013002273e-06
8.131065532766382375e+02 9.492194215036446367e-06
8.140070035017508872e+02 9.484757484079886803e-06
8.149074537268634231e+02 9.452400830384529411e-06
8.158079039519759590e+02 9.417712205014471314e-06
8.167083541770884949e+02 9.398843900003665236e-06
8.176088044022010308e+02 9.407062311138987388e-06
8.185092546273135667e+02 9.437104163500973183e-06
8.194097048524262163e+02 9.464356799042604972e-06
8.203101550775387523e+02 9.469243063318475860e-06
8.212106053026512882e+02 9.455596741566103965e-06
8.221110555277638241e+02 9.432756082098849867e-06
8.230115057528763600e+02 9.400590760489890594e-06
8.239119559779890096e+02 9.356150866429676684e-06
8.248124062031015455e+02 9.299356321819017028e-06
8.257128564282140815e+02 9.241022921856553328e-06
8.266133066533266174e+02 9.202430558886244083e-06
8.275137568784391533e+02 9.199256111463384504e-06
8.284142071035516892e+02 9.224071356498670510e-06
8.293146573286643388e+02 9.245114754997251440e-06
8.302151075537768747e+02 9.224764644469120976e-06
8.311155577788894107e+02 9.156147081003096217e-06
8.320160080040019466e+02 9.076659224638682489e-06
8.329164582291144825e+02 9.031767281690908548e-06
8.338169084542270184e+02 9.030547191368049325e-06
8.347173586793396680e+02 9.053859651270811787e-06
8.356178089044522039e+02 9.092978638932372180e-06
8.365182591295647399e+02 9.146299671983952614e-06
8.374187093546772758e+02 9.211697667781460256e-06
8.383191595797898117e+02 9.300943569068513252e-06
8.392196098049024613e+02 9.424886035057655436e-06
8.401200600300149972e+02 9.576027810672009858e-06
8.410205102551275331e+02 9.723577379497902652e-06
8.419209604802400690e+02 9.831668380464084585e-06
8.428214107053526050e+02 9.895585947267415626e-06
8.437218609304651409e+02 9.943346640000936756e-06
8.446223111555777905e+02 1.000462790068216210e-05
8.455227613806903264e+02 1.007980460478473686e-05
8.464232116058028623e+02 1.013947177033237144e-05
8.473236618309153982e+02 1.015516358477932179e-05
8.482241120560279342e+02 1.011359269067970539e-05
8.491245622811405838e+02 1.002763961795181978e-05
8.500250125062531197e+02 9.937724099365494735e-06
8.509254627313656556e+02 9.875295019684439000e-06
8.518259129564781915e+02 9.845263073070433099e-06
8.527263631815907274e+02 9.832047250718144320e-06
8.536268134067032634e+02 9.819669562135665557e-06
8.545272636318159130e+02 9.809685036579156027e-06
8.554277138569284489e+02 9.813915189332413110e-06
8.563281640820409848e+02 9.835233258991191627e-06
8.572286143071535207e+02 9.861673459985108135e-06
8.581290645322660566e+02 9.879747415455721708e-06
8.590295147573785925e+02 9.880874391463829824e-06
8.599299649824912422e+02 9.862169385109072862e-06
8.608304152076037781e+02 9.830641095525630580e-06
8.617308654327163140e+02 9.797068021393328763e-06
8.626313156578288499e+02 9.774982684470359811e-06
8.635317658829413858e+02 9.769352131151635952e-06
8.644322161080540354e+02 9.769846859523825377e-06
8.653326663331665713e+02 9.780562257944795578e-06
8.662331165582791073e+02 9.824699063198463021e-06
8.671335667833916432e+02 9.915674300903817338e-06
8.680340170085041791e+02 1.004287153140525125e-05
8.689344672336167150e+02 1.017340831437887208e-05
8.698349174587293646e+02 1.027743172578648857e-05
8.707353676838419005e+02 1.035742028980922600e-05
8.716358179089544365e+02 1.044156137647837263e-05
8.725362681340669724e+02 1.054056286748040534e-05
8.734367183591795083e+02 1.063972561866660258e-05
8.743371685842921579e+02 1.072248238341207939e-05
8.752376188094046938e+02 1.077643581721874930e-05
8.761380690345172297e+02 1.079769047556353890e-05
8.770385192596297657e+02 1.079844766046277509e-05
8.779389694847423016e+02 1.080058402542740642e-05
8.788394197098548375e+02 1.083005965705059535e-05
8.797398699349674871e+02 1.090915403239683980e-05
8.806403201600800230e+02 1.103567635901993362e-05
8.815407703851925589e+02 1.117454851712553455e-05
8.824412206103050949e+02 1.128066666903136431e-05
8.833416708354176308e+02 1.133930684188594452e-05
8.842421210605301667e+02 1.135364151946698321e-05
8.851425712856428163e+02 1.131917545202060267e-05
8.860430215107553522e+02 1.123864755538502061e-05
8.869434717358678881e+02 1.113448241045741326e-05
8.878439219609804240e+02 1.103241597971968332e-05
8.887443721860929600e+02 1.095156932008734094e-05
8.896448224112056096e+02 1.090835803342893679e-05
8.905452726363181455e+02 1.090914296958889944e-05
8.914457228614306814e+02 1.095452202631553159e-05
8.923461730865432173e+02 1.104808854360018107e-05
8.932466233116557532e+02 1.119023785432770806e-05
8.941470735367682892e+02 1.136413880529942807e-05
8.950475237618809388e+02 1.153997655758079866e-05
8.959479739869934747e+02 1.168256898296488413e-05
8.968484242121060106e+02 1.176844445082215214e-05
8.977488744372185465e+02 1.181149873085388434e-05
8.986493246623310824e+02 1.184746060614158166e-05
8.995497748874437320e+02 1.190638487914038125e-05
9.004502251125562680e+02 1.199757530538941473e-05
9.013506753376688039e+02 1.210524087125307002e-05
9.022511255627813398e+02 1.220868799515056123e-05
9.031515757878938757e+02 1.229529711583546465e-05
9.040520260130064116e+02 1.235951940171491906e-05
9.049524762381190612e+02 1.240245324828759656e-05
9.058529264632315972e+02 1.243603960993102815e-05
9.067533766883441331e+02 1.247830958956166032e-05
9.076538269134566690e+02 1.253336420439572902e-05
9.085542771385692049e+02 1.259795954766648388e-05
9.094547273636817408e+02 1.267599453521740417e-05
9.103551775887943904e+02 1.276599257282359215e-05
9.112556278139069263e+02 1.284258648901136473e-05
9.121560780390194623e+02 1.288656825824126574e-05
9.130565282641319982e+02 1.292063657947064648e-05
9.139569784892445341e+02 1.297940538594700330e-05
9.148574287143571837e+02 1.307665903271745822e-05
9.157578789394697196e+02 1.319699552170425896e-05
9.166583291645822555e+02 1.330932159731738249e-05
9.175587793896947915e+02 1.341344961751871289e-05
9.184592296148073274e+02 1.353591712378426509e-05
9.193596798399198633e+02 1.368452384980690097e-05
9.202601300650325129e+02 1.385589680400836406e-05
9.211605802901450488e+02 1.405261268101711142e-05
9.220610305152575847e+02 1.426110545830726780e-05
9.229614807403701207e+02 1.445130250451938854e-05
9.238619309654826566e+02 1.461639939118221241e-05
9.247623811905953062e+02 1.478053007441254636e-05
9.256628314157078421e+02 1.494412468584990636e-05
9.265632816408203780e+02 1.508791177859115377e-05
9.274637318659329139e+02 1.520329691728695223e-05
9.283641820910454499e+02 1.528429017119060481e-05
9.292646323161579858e+02 1.531292274200033381e-05
9.301650825412706354e+02 1.528597385920038427e-05
9.310655327663831713e+02 1.522955436045126727e-05
9.319659829914957072e+02 1.517467901655860792e-05
9.328664332166082431e+02 1.514751189133048035e-05
9.337668834417207790e+02 1.515060973037319994e-05
9.346673336668334287e+02 1.516241399281301422e-05
9.355677838919459646e+02 1.518168334947744992e-05
9.364682341170585005e+02 1.523461435119710697e-05
9.373686843421710364e+02 1.532193335779822986e-05
9.382691345672835723e+02 1.540946403692616107e-05
9.391695847923961082e+02 1.547710844763016313e-05
9.400700350175087578e+02 1.552223202756217708e-05
9.409704852426212938e+02 1.554190209320505914e-05
9.418709354677338297e+02 1.554620728521162565e-05
9.427713856928463656e+02 1.555448291312621560e-05
9.436718359179589015e+02 1.558629508854041140e-05
9.445722861430714374e+02 1.565917877658150423e-05
9.454727363681840870e+02 1.577341122033681088e-05
9.463731865932966230e+02 1.590850222202246081e-05
9.472736368184091589e+02 1.604200841606420502e-05
9.481740870435216948e+02 1.618849454632684503e-05
9.490745372686342307e+02 1.639172848633953263e-05
9.499749874937468803e+02 1.664329104680190672e-05
9.508754377188594162e+02 1.687114262940256308e-05
9.517758879439719522e+02 1.701984177832516982e-05
9.526763381690844881e+02 1.710289085345442718e-05
9.535767883941970240e+02 1.717341331980951310e-05
9.544772386193095599e+02 1.726575330434350992e-05
9.553776888444222095e+02 1.738172808856392848e-05
9.562781390695347454e+02 1.751333992661202184e-05
9.571785892946472813e+02 1.765025799636629083e-05
9.580790395197598173e+02 1.777118745685468210e-05
9.589794897448723532e+02 1.784779920912336402e-05
9.598799399699850028e+02 1.789084206598730192e-05
9.607803901950975387e+02 1.794689642731484545e-05
9.616808404202100746e+02 1.802941483875079344e-05
9.625812906453226105e+02 1.812438197624957519e-05
9.634817408704351465e+02 1.825353154094716524e-05
9.643821910955476824e+02 1.844216968374336166e-05
9.652826413206603320e+02 1.864582781731998772e-05
9.661830915457728679e+02 1.879039400927620250e-05
9.670835417708854038e+02 1.886386420168109494e-05
9.679839919959979397e+02 1.890753141485427386e-05
9.688844422211104757e+02 1.896075896979396922e-05
9.697848924462230116e+02 1.903641056257194498e-05
9.706853426713356612e+02 1.913835998415384671e-05
9.715857928964481971e+02 1.927624959787733937e-05
9.724862431215607330e+02 1.947252813742880557e-05
9.733866933466732689e+02 1.972604206511417932e-05
9.742871435717858049e+02 1.998258698500756614e-05
9.751875937968984545e+02 2.017845365459527932e-05
9.760880440220109904e+02 2.026876529976503701e-05
9.769884942471235263e+02 2.025549132628619333e-05
9.778889444722360622e+02 2.019683129758823202e-05
9.787893946973485981e+02 2.018005666297726495e-05
9.796898449224611340e+02 2.029155126893384840e-05
9.805902951475737837e+02 2.057061689515796404e-05
9.814907453726863196e+02 2.096947277180236736e-05
9.823911955977988555e+02 2.140059994978758167e-05
9.832916458229113914e+02 2.181000276176499160e-05
9.841920960480239273e+02 2.218184643696056104e-05
9.850925462731365769e+02 2.251581494530357233e-05
9.859929964982491128e+02 2.281418548181935550e-05
9.868934467233616488e+02 2.308912950733020577e-05
9.877938969484741847e+02 2.333153528174317963e-05
9.886943471735867206e+02 2.351766540982901861e-05
9.895947973986992565e+02 2.367110233906099013e-05
9.904952476238119061e+02 2.382627035346659866e-05
9.913956978489244420e+02 2.395473491544722840e-05
9.922961480740369780e+02 2.403263723802833226e-05
9.931965982991495139e+02 2.411103143180143657e-05
9.940970485242620498e+02 2.424469346773281591e-05
9.949974987493745857e+02 2.444895071313446592e-05
9.958979489744872353e+02 2.472027847687551500e-05
9.967983991995997712e+02 2.503847076796787534e-05
9.976988494247123072e+02 2.534052589864426472e-05
9.985992996498248431e+02 2.557433636316921682e-05
9.994997498749373790e+02 2.578588105579505762e-05
1.000400200100050029e+03 2.605147849570272475e-05
1.001300650325162565e+03 2.639232136243926442e-05
1.002201100550275100e+03 2.679164698031863518e-05
1.003101550775387636e+03 2.720630402199018656e-05
1.004002001000500172e+03 2.758192527113283342e-05
1.004902451225612708e+03 2.791767385670257189e-05
1.005802901450725358e+03 2.825987221626011901e-05
1.006703351675837894e+03 2.864014139581154644e-05
1.007603801900950430e+03 2.905646725356822875e-05
1.008504252126062966e+03 2.945205652564587723e-05
1.009404702351175501e+03 2.978777158236741674e-05
1.010305152576288151e+03 3.011104872962502079e-05
1.011205602801400687e+03 3.047009481120851727e-05
1.012106053026513223e+03 3.084789873025940737e-05
1.013006503251625759e+03 3.119151176409710996e-05
1.013906953476738295e+03 3.145915622915145351e-05
1.014807403701850831e+03 3.164327769391405548e-05
1.015707853926963480e+03 3.176420203423914733e-05
1.016608304152076016e+03 3.184029555278326308e-05
1.017508754377188552e+03 3.184408679470932056e-05
1.018409204602301088e+03 3.177910094001836958e-05
1.019309654827413624e+03 3.172854097288323465e-05
1.020210105052526160e+03 3.178514684622213426e-05
1.021110555277638809e+03 3.199161611737233658e-05
1.022011005502751345e+03 3.235440953259521602e-05
1.022911455727863881e+03 3.286757679674354193e-05
1.023811905952976417e+03 3.345636706307199444e-05
1.024712356178089067e+03 3.403674636880754873e-05
1.025612806403201603e+03 3.462073569170874928e-05
1.026513256628314139e+03 3.526084699961586191e-05
1.027413706853426675e+03 3.600626367045669141e-05
1.028314157078539210e+03 3.689288557402939627e-05
1.029214607303651746e+03 3.786534033937819145e-05
1.030115057528764282e+03 3.881819943265275163e-05
1.031015507753876818e+03 3.970483858000314453e-05
1.031915957978989354e+03 4.048904857367050165e-05
1.032816408204101890e+03 4.110561318426085429e-05
1.033716858429214653e+03 4.153742712269798787e-05
1.034617308654327189e+03 4.187533990738793641e-05
1.035517758879439725e+03 4.229334239915364307e-05
1.036418209104552261e+03 4.290244864765382834e-05
1.037318659329664797e+03 4.366198597343066160e-05
1.038219109554777333e+03 4.450514890674426362e-05
1.039119559779889869e+03 4.541592911772534104e-05
1.040020010005002405e+03 4.638964476879630950e-05
1.040920460230114941e+03 4.741828821528725407e-05
1.041820910455227477e+03 4.855451185236529831e-05
1.042721360680340013e+03 4.992549552702949152e-05
1.043621810905452776e+03 5.151197504725816607e-05
1.044522261130565312e+03 5.307027945771369582e-05
1.045422711355677848e+03 5.436763730431106605e-05
1.046323161580790384e+03 5.532080321431910423e-05
1.047223611805902920e+03 5.603018720524464367e-05
1.048124062031015455e+03 5.674337208261029625e-05
1.049024512256127991e+03 5.763703764883351763e-05
1.049924962481240527e+03 5.870370214050584954e-05
1.050825412706353063e+03 5.988499139577775274e-05
1.051725862931465599e+03 6.115844000715501931e-05
1.052626313156578135e+03 6.250767534988785974e-05
1.053526763381690898e+03 6.396674434519659437e-05
1.054427213606803434e+03 6.552064501157135832e-05
1.055327663831915970e+03 6.698666845108018544e-05
1.056228114057028506e+03 6.821894560374086114e-05
1.057128564282141042e+03 6.932975238876871917e-05
1.058029014507253578e+03 7.052828269112963277e-05
1.058929464732366114e+03 7.185694417263198939e-05
1.059829914957478650e+03 7.331027515959649785e-05
1.060730365182591186e+03 7.494123041295318885e-05
1.061630815407703722e+03 7.677077752249969759e-05
1.062531265632816257e+03 7.875895188754248287e-05
1.063431715857929021e+03 8.095855665314194958e-05
1.064332166083041557e+03 8.348880234998481650e-05
1.065232616308154093e+03 8.627152444597648863e-05
1.066133066533266629e+03 8.907183052283099720e-05
1.067033516758379164e+03 9.180079284358240790e-05
1.067933966983491700e+03 9.439706402341196294e-05
1.068834417208604236e+03 9.656643081217427497e-05
1.069734867433716772e+03 9.808928748123476975e-05
1.070635317658829308e+03 9.904777726013093420e-05
1.071535767883941844e+03 9.962497625442359478e-05
1.072436218109054380e+03 9.997360273571063917e-05
1.073336668334167143e+03 1.002502980705659888e-04
1.074237118559279679e+03 1.005891196963803390e-04
1.075137568784392215e+03 1.011310731916293434e-04
1.076038019009504751e+03 1.018744691221336844e-04
1.076938469234617287e+03 1.026183498304359130e-04
1.077838919459729823e+03 1.033451954006487126e-04
1.078739369684842359e+03 1.042824703307717541e-04
1.079639819909954895e+03 1.056480337297065842e-04
1.080540270135067431e+03 1.075596301800077503e-04
1.081440720360179967e+03 1.100949839009306928e-04
1.082341170585292502e+03 1.131913520935356771e-04
1.083241620810405038e+03 1.164623806090356729e-04
1.084142071035517802e+03 1.194854362916451443e-04
1.085042521260630338e+03 1.224303282778219234e-04
1.085942971485742873e+03 1.259115616838810819e-04
1.086843421710855409e+03 1.302158896302194394e-04
1.087743871935967945e+03 1.349444329245528293e-04
1.088644322161080481e+03 1.391811366026440941e-04
1.089544772386193017e+03 1.422568387121201554e-04
1.090445222611305553e+03 1.444011139988007984e-04
1.091345672836418089e+03 1.464157849525448037e-04
1.092246123061530625e+03 1.489171641844811800e-04
1.093146573286643161e+03 1.520974160494787948e-04
1.094047023511755924e+03 1.559236228804013419e-04
1.094947473736868460e+03 1.603409903026937165e-04
1.095847923961980996e+03 1.651841350010624355e-04
1.096748374187093532e+03 1.699029385274885141e-04
1.097648824412206068e+03 1.738540978803487162e-04
1.098549274637318604e+03 1.772029611013760581e-04
1.099449724862431140e+03 1.806192046479051486e-04
1.100350175087543676e+03 1.841509896062321690e-04
1.101250625312656211e+03 1.872423213447825508e-04
1.102151075537768747e+03 1.900878723499251771e-04
1.103051525762881283e+03 1.936345419599165433e-04
1.103951975987994047e+03 1.983421397599308481e-04
1.104852426213106583e+03 2.038219134291882162e-04
1.105752876438219118e+03 2.088124119571744066e-04
1.106653326663331654e+03 2.121748598087202392e-04
1.107553776888444190e+03 2.144691932592615222e-04
1.108454227113556726e+03 2.170954004802886554e-04
1.109354677338669262e+03 2.207759700759152801e-04
1.110255127563781798e+03 2.257370517156283046e-04
1.111155577788894334e+03 2.323337935803326728e-04
1.112056028014006870e+03 2.406537731257570598e-04
1.112956478239119406e+03 2.498910440953142293e-04
1.113856928464232169e+03 2.585956780735311619e-04
1.114757378689344705e+03 2.655638522331197596e-04
1.115657828914457241e+03 2.702406213292351742e-04
1.116558279139569777e+03 2.728311669436681085e-04
1.117458729364682313e+03 2.745034558393574147e-04
1.118359179589794849e+03 2.768060672633173040e-04
1.119259629814907385e+03 2.800621973660389068e-04
1.120160080040019920e+03 2.839998713599024209e-04
1.121060530265132456e+03 2.884032571271091653e-04
1.121960980490244992e+03 2.920768149395232532e-04
1.122861430715357528e+03 2.937474840946812976e-04
1.123761880940470292e+03 2.937553599689441742e-04
1.124662331165582827e+03 2.933265912136378910e-04
1.125562781390695363e+03 2.933284219867210462e-04
1.126463231615807899e+03 2.941119155328419791e-04
1.127363681840920435e+03 2.950431012488410583e-04
1.128264132066032971e+03 2.944573084560766292e-04
1.129164582291145507e+03 2.906493974930350979e-04
1.130065032516258043e+03 2.826954500546280218e-04
1.130965482741370579e+03 2.708592341567927272e-04
1.131865932966483115e+03 2.566998132252632154e-04
1.132766383191595651e+03 2.421687271062028188e-04
1.133666833416708187e+03 2.285874015593240263e-04
1.134567283641820950e+03 2.162140126595893874e-04
1.135467733866933486e+03 2.045558668191795135e-04
1.136368184092046022e+03 1.933103190762190367e-04
1.137268634317158558e+03 1.823901997079757631e-04
1.138169084542271094e+03 1.711345827889713565e-04
1.139069534767383630e+03 1.589406582718222438e-04
1.139969984992496165e+03 1.460275907254202023e-04
1.140870435217608701e+03 1.332602620857001557e-04
1.141770885442721237e+03 1.217911891639613910e-04
1.142671335667833773e+03 1.123002316167646866e-04
1.143571785892946309e+03 1.047758819945541727e-04
1.144472236118059072e+03 9.918987555111275997e-05
1.145372686343171608e+03 9.554509943049223548e-05
1.146273136568284144e+03 9.321959206723065420e-05
1.147173586793396680e+03 9.121194099684160940e-05
1.148074037018509216e+03 8.837047480823703499e-05
1.148974487243621752e+03 8.354338496924559171e-05
1.149874937468734288e+03 7.714350869862231859e-05
1.150775387693846824e+03 7.080828202094299306e-05
1.151675837918959360e+03 6.561752504801972915e-05
1.152576288144071896e+03 6.183096894592234017e-05
1.153476738369184432e+03 5.930237040390982375e-05
1.154377188594297195e+03 5.771697022730618498e-05
1.155277638819409731e+03 5.671003578899587590e-05
1.156178089044522267e+03 5.596701787019320090e-05
1.157078539269634803e+03 5.527180402715687159e-05
1.157978989494747339e+03 5.458273211231630037e-05
1.158879439719859874e+03 5.395665358090777472e-05
1.159779889944972410e+03 5.334670582447123777e-05
1.160680340170084946e+03 5.261683834899532610e-05
1.161580790395197482e+03 5.172580392299163667e-05
1.162481240620310018e+03 5.075996651270768317e-05
1.163381690845422554e+03 4.981366962397983339e-05
1.164282141070535317e+03 4.894574364157737309e-05
1.165182591295647853e+03 4.818104192959004055e-05
1.166083041520760389e+03 4.750975544215675563e-05
1.166983491745872925e+03 4.693593487800913053e-05
1.167883941970985461e+03 4.648776987951814567e-05
1.168784392196097997e+03 4.618243471437452971e-05
1.169684842421210533e+03 4.601525202226766447e-05
1.170585292646323069e+03 4.597156548171561584e-05
1.171485742871435605e+03 4.604037716949988261e-05
1.172386193096548141e+03 4.622061220430298019e-05
1.173286643321660677e+03 4.652101920378159467e-05
1.174187093546773440e+03 4.695013781780090937e-05
1.175087543771885976e+03 4.748013435288421828e-05
1.175987993996998512e+03 4.798353797638221714e-05
1.176888444222111048e+03 4.826288928667369136e-05
1.177788894447223583e+03 4.826859894888211515e-05
1.178689344672336119e+03 4.816146116641992713e-05
1.179589794897448655e+03 4.810955718146741705e-05
1.180490245122561191e+03 4.817925693896689567e-05
1.181390695347673727e+03 4.837509089543932472e-05
1.182291145572786263e+03 4.868998150451993290e-05
1.183191595797898799e+03 4.912439686058290200e-05
1.184092046023011562e+03 4.968439407895876991e-05
1.184992496248124098e+03 5.035577706799270381e-05
1.185892946473236634e+03 5.104532537818363524e-05
1.186793396698349170e+03 5.156821834551990574e-05
1.187693846923461706e+03 5.183518855318657422e-05
1.188594297148574242e+03 5.197882421195914297e-05
1.189494747373686778e+03 5.215639664526769680e-05
1.190395197598799314e+03 5.242301768790995700e-05
1.191295647823911850e+03 5.278543653008465296e-05
1.192196098049024386e+03 5.325216728042118854e-05
1.193096548274136921e+03 5.383506913895374666e-05
1.193996998499249457e+03 5.454893534472754024e-05
1.194897448724362221e+03 5.541359159806715808e-05
1.195797898949474757e+03 5.644091270114941461e-05
1.196698349174587293e+03 5.761229085083660286e-05
1.197598799399699828e+03 5.888754176986842233e-05
1.198499249624812364e+03 6.025690149417387340e-05
1.199399699849924900e+03 6.175770554295233433e-05
1.200300150075037436e+03 6.339986752254117000e-05
1.201200600300149972e+03 6.505970164875466983e-05
1.202101050525262508e+03 6.651750971099346500e-05
1.203001500750375044e+03 6.754529173496198475e-05
1.203901950975487580e+03 6.811402790797410069e-05
1.204802401200600343e+03 6.854439427898398665e-05
1.205702851425712879e+03 6.919932116255602154e-05
1.206603301650825415e+03 7.026360970075341394e-05
1.207503751875937951e+03 7.169848711817261154e-05
1.208404202101050487e+03 7.326741523823500639e-05
1.209304652326163023e+03 7.481875232220292177e-05
1.210205102551275559e+03 7.651578456037353142e-05
1.211105552776388095e+03 7.869709634944392163e-05
1.212006003001500630e+03 8.159782445069395157e-05
1.212906453226613166e+03 8.529059585623909685e-05
1.213806903451725702e+03 8.980033965241055436e-05
1.214707353676838466e+03 9.512995452595984997e-05
1.215607803901951002e+03 1.011286130420797853e-04
1.216508254127063537e+03 1.073622895777218069e-04
1.217408704352176073e+03 1.129140306114034099e-04
1.218309154577288609e+03 1.162554509145501689e-04
1.219209604802401145e+03 1.159597772504184106e-04
1.220110055027513681e+03 1.118860403699733748e-04
1.221010505252626217e+03 1.058334340607461555e-04
1.221910955477738753e+03 1.002659837608202182e-04
1.222811405702851289e+03 9.651084594234282318e-05
1.223711855927963825e+03 9.469828162447469714e-05
1.224612306153076588e+03 9.439287931417250058e-05
1.225512756378189124e+03 9.496766812939260523e-05
1.226413206603301660e+03 9.588044170178019673e-05
1.227313656828414196e+03 9.688350476786269461e-05
1.228214107053526732e+03 9.793439187500836934e-05
1.229114557278639268e+03 9.893633350115531061e-05
1.230015007503751804e+03 9.982536493187097739e-05
1.230915457728864340e+03 1.006741040953101495e-04
1.231815907953976875e+03 1.017751868042833394e-04
1.232716358179089411e+03 1.034861848202190435e-04
1.233616808404201947e+03 1.059269602835824579e-04
1.234517258629314711e+03 1.090394916527055513e-04
1.235417708854427246e+03 1.129492044331490580e-04
1.236318159079539782e+03 1.179487897629761975e-04
1.237218609304652318e+03 1.241204639154147615e-04
1.238119059529764854e+03 1.310764544374541554e-04
1.239019509754877390e+03 1.382544401397878785e-04
1.239919959979989926e+03 1.456778909769285287e-04
1.240820410205102462e+03 1.538819652882748217e-04
1.241720860430214998e+03 1.633475098287423674e-04
1.242621310655327534e+03 1.744875259067627709e-04
1.243521760880440070e+03 1.875296952432287101e-04
1.244422211105552606e+03 2.023687128246345489e-04
1.245322661330665369e+03 2.186323921620078538e-04
1.246223111555777905e+03 2.358953973471365209e-04
1.247123561780890441e+03 2.535503741017269830e-04
1.248024012006002977e+03 2.705672578160816751e-04
1.248924462231115513e+03 2.851342308600783798e-04
1.249824912456228049e+03 2.945462240531785932e-04
1.250725362681340584e+03 2.973966452924559274e-04
1.251625812906453120e+03 2.959177936499986184e-04
1.252526263131565656e+03 2.937556562666629565e-04
1.253426713356678192e+03 2.923530126935510419e-04
1.254327163581790728e+03 2.910572403152988040e-04
1.255227613806903491e+03 2.888663921939226649e-04
1.256128064032016027e+03 2.857074321303387354e-04
1.257028514257128563e+03 2.825437432903992905e-04
1.257928964482241099e+03 2.806415835537993974e-04
1.258829414707353635e+03 2.806839729483510590e-04
1.259729864932466171e+03 2.822036273791624235e-04
1.260630315157578707e+03 2.840822758086328855e-04
1.261530765382691243e+03 2.857005337790088462e-04
1.262431215607803779e+03 2.870573507602455147e-04
1.263331665832916315e+03 2.882643693114494672e-04
1.264232116058028851e+03 2.894301272193342683e-04
1.265132566283141614e+03 2.908487620472558822e-04
1.266033016508254150e+03 2.928169296878681358e-04
1.266933466733366686e+03 2.953283986417869818e-04
1.267833916958479222e+03 2.982542589691283353e-04
1.268734367183591758e+03 3.014956077696509442e-04
1.269634817408704293e+03 3.049203121529233296e-04
1.270535267633816829e+03 3.085580500587935455e-04
1.271435717858929365e+03 3.126533203930271891e-04
1.272336168084041901e+03 3.172610751844581571e-04
1.273236618309154437e+03 3.221307539690023650e-04
1.274137068534266973e+03 3.270452656338288812e-04
1.275037518759379736e+03 3.320324367213235554e-04
1.275937968984492272e+03 3.372399142065477863e-04
1.276838419209604808e+03 3.427253619255336468e-04
1.277738869434717344e+03 3.486395324070222577e-04
1.278639319659829880e+03 3.553820267061197444e-04
1.279539769884942416e+03 3.632277446452645956e-04
1.280440220110054952e+03 3.718096366984238732e-04
1.281340670335167488e+03 3.801658602451398958e-04
1.282241120560280024e+03 3.874434937027976212e-04
1.283141570785392560e+03 3.935258306711254014e-04
1.284042021010505096e+03 3.990118415237547652e-04
1.284942471235617859e+03 4.046538936090860773e-04
1.285842921460730395e+03 4.111426656451551810e-04
1.286743371685842931e+03 4.189632951057757604e-04
1.287643821910955467e+03 4.278151637625322986e-04
1.288544272136068003e+03 4.366349616740790003e-04
1.289444722361180538e+03 4.448633204734577613e-04
1.290345172586293074e+03 4.530627903687641498e-04
1.291245622811405610e+03 4.619115704816065780e-04
1.292146073036518146e+03 4.711453738611018154e-04
1.293046523261630682e+03 4.798207912627664058e-04
1.293946973486743218e+03 4.873488627721195049e-04
1.294847423711855754e+03 4.940215755911006937e-04
1.295747873936968517e+03 5.001924234078286525e-04
1.296648324162081053e+03 5.057208929309154905e-04
1.297548774387193589e+03 5.106626699821054365e-04
1.298449224612306125e+03 5.153552354272520220e-04
1.299349674837418661e+03 5.198518491936034505e-04
1.300250125062531197e+03 5.237366118277357336e-04
1.301150575287643733e+03 5.264540207408559573e-04
1.302051025512756269e+03 5.280823378044292079e-04
1.302951475737868805e+03 5.295810528528023184e-04
1.303851925962981340e+03 5.318524613311338602e-04
1.304752376188093876e+03 5.349051394908988823e-04
1.305652826413206640e+03 5.383106291289881237e-04
1.306553276638319176e+03 5.420249770466740351e-04
1.307453726863431712e+03 5.460166784023119451e-04
1.308354177088544247e+03 5.501525649018764027e-04
1.309254627313656783e+03 5.544987326385584928e-04
1.310155077538769319e+03 5.594107292167290867e-04
1.311055527763881855e+03 5.654520782562952493e-04
1.311955977988994391e+03 5.727531545489089994e-04
1.312856428214106927e+03 5.808777318390685555e-04
1.313756878439219463e+03 5.896059273204146741e-04
1.314657328664331999e+03 5.996555816314565841e-04
1.315557778889444762e+03 6.122319804180843643e-04
1.316458229114557298e+03 6.278900180954308415e-04
1.317358679339669834e+03 6.462971229722785146e-04
1.318259129564782370e+03 6.669763689413478556e-04
1.319159579789894906e+03 6.896768639591071247e-04
1.320060030015007442e+03 7.144695661375791108e-04
1.320960480240119978e+03 7.416956356502814405e-04
1.321860930465232514e+03 7.716416897521777849e-04
1.322761380690345050e+03 8.036728470053612064e-04
1.323661830915457585e+03 8.370537370766884585e-04
1.324562281140570121e+03 8.720712366523205488e-04
1.325462731365682885e+03 9.089733616151202122e-04
1.326363181590795421e+03 9.472911917903656604e-04
1.327263631815907956e+03 9.856053524479242191e-04
1.328164082041020492e+03 1.022225412205814274e-03
1.329064532266133028e+03 1.057096189622824161e-03
1.329964982491245564e+03 1.092271849493296147e-03
1.330865432716358100e+03 1.130852277078519966e-03
1.331765882941470636e+03 1.174034408245448746e-03
1.332666333166583172e+03 1.218754695260235730e-03
1.333566783391695708e+03 1.261648444874972561e-03
1.334467233616808244e+03 1.303313185244176073e-03
1.335367683841921007e+03 1.346718699319580763e-03
1.336268134067033543e+03 1.394384025284504773e-03
1.337168584292146079e+03 1.447838289675141416e-03
1.338069034517258615e+03 1.506791838186721799e-03
1.338969484742371151e+03 1.569372351216121375e-03
1.339869934967483687e+03 1.634345510821259579e-03
1.340770385192596223e+03 1.700589139391697584e-03
1.341670835417708759e+03 1.767181746050570327e-03
1.342571285642821294e+03 1.834559481897673388e-03
1.343471735867933830e+03 1.903519800323812431e-03
1.344372186093046366e+03 1.974381639268737217e-03
1.345272636318158902e+03 2.047131415476644619e-03
1.346173086543271666e+03 2.123691240815237143e-03
1.347073536768384201e+03 2.207485232689341669e-03
1.347973986993496737e+03 2.300969877038273100e-03
1.348874437218609273e+03 2.403588136207077206e-03
1.349774887443721809e+03 2.513409575511338107e-03
1.350675337668834345e+03 2.630873599495421340e-03
1.351575787893946881e+03 2.756730547874067499e-03
1.352476238119059417e+03 2.890021522906488071e-03
1.353376688344171953e+03 3.028041581777102600e-03
1.354277138569284489e+03 3.164667490268960760e-03
1.355177588794397025e+03 3.294547356169767391e-03
1.356078039019509788e+03 3.422211668556304157e-03
1.356978489244622324e+03 3.564993983278432876e-03
1.357878939469734860e+03 3.741665150111884650e-03
1.358779389694847396e+03 3.958303937196028938e-03
1.359679839919959932e+03 4.204446348855438165e-03
1.360580290145072468e+03 4.459521510379267639e-03
1.361480740370185003e+03 4.704720280190405508e-03
1.362381190595297539e+03 4.932004514423111996e-03
1.363281640820410075e+03 5.155893397638539218e-03
1.364182091045522611e+03 5.403264066653971909e-03
1.365082541270635147e+03 5.688192756956632692e-03
1.365982991495747910e+03 6.006877658614236809e-03
1.366883441720860446e+03 6.349227351445383034e-03
1.367783891945972982e+03 6.716720403662909331e-03
1.368684342171085518e+03 7.127724230090493746e-03
1.369584792396198054e+03 7.595197389626997045e-03
1.370485242621310590e+03 8.106012222823292049e-03
1.371385692846423126e+03 8.641213603184160624e-03
1.372286143071535662e+03 9.212771446555141630e-03
1.373186593296648198e+03 9.863958731509235925e-03
1.374087043521760734e+03 1.062293971880433514e-02
1.374987493746873270e+03 1.146843307146859677e-02
1.375887943971986033e+03 1.235913674363060821e-02
1.376788394197098569e+03 1.330097609124312845e-02
1.377688844422211105e+03 1.436359608465068334e-02
1.378589294647323641e+03 1.564293521410825560e-02
1.379489744872436177e+03 1.720463359113939134e-02
1.380390195097548713e+03 1.904775391880880742e-02
1.381290645322661248e+03 2.117121858272432225e-02
1.382191095547773784e+03 2.362136850138117986e-02
1.383091545772886320e+03 2.641637193870227315e-02
1.383991995997998856e+03 2.954211496444656207e-02
1.384892446223111392e+03 3.300674597589302317e-02
1.385792896448224155e+03 3.683493307573890846e-02
1.386693346673336691e+03 4.109517172374722860e-02
1.387593796898449227e+03 4.592605260160589897e-02
1.388494247123561763e+03 5.141729060977199423e-02
1.389394697348674299e+03 5.735339815836929672e-02
1.390295147573786835e+03 6.317222464370056412e-02
1.391195597798899371e+03 6.850479087856573002e-02
1.392096048024011907e+03 7.360283996275829299e-02
1.392996498249124443e+03 7.886175922586298459e-02
1.393896948474236979e+03 8.424464963120169292e-02
1.394797398699349515e+03 8.911928270192923107e-02
1.395697848924462278e+03 9.227225338923956965e-02
1.396598299149574814e+03 9.246968865640438351e-02
1.397498749374687350e+03 8.904672135065636041e-02
1.398399199599799886e+03 8.198385407263808489e-02
1.399299649824912422e+03 7.212027962858837127e-02
1.400200100050024957e+03 6.121270511613866039e-02
1.401100550275137493e+03 5.092451096903493485e-02
1.402001000500250029e+03 4.205075530758355107e-02
1.402901450725362565e+03 3.473787357145647486e-02
1.403801900950475101e+03 2.886662938394601169e-02
1.404702351175587637e+03 2.420140531406983833e-02
1.405602801400700173e+03 2.049672276508120866e-02
1.406503251625812936e+03 1.754670618108996466e-02
1.407403701850925472e+03 1.517756299152032799e-02
1.408304152076038008e+03 1.324903896312760315e-02
1.409204602301150544e+03 1.165899456843137207e-02
1.410105052526263080e+03 1.034299489038088479e-02
1.411005502751375616e+03 9.248890884612807547e-03
1.411905952976488152e+03 8.317032220913558524e-03
1.412806403201600688e+03 7.499623161297508736e-03
1.413706853426713224e+03 6.777141476702549377e-03
1.414607303651825760e+03 6.147996815281891667e-03
1.415507753876938295e+03 5.612489718886144209e-03
1.416408204102051059e+03 5.163122934008078369e-03
1.417308654327163595e+03 4.782308115298544889e-03
1.418209104552276131e+03 4.449329884472245575e-03
1.419109554777388666e+03 4.149900817622464294e-03
1.420010005002501202e+03 3.876236819656850557e-03
1.420910455227613738e+03 3.624290509271248500e-03
1.421810905452726274e+03 3.393960815119695384e-03
1.422711355677838810e+03 3.184462551073252452e-03
1.423611805902951346e+03 2.993064077366739024e-03
1.424512256128063882e+03 2.817214706879313940e-03
1.425412706353176418e+03 2.655636281660715865e-03
1.426313156578289181e+03 2.508664581257082256e-03
1.427213606803401717e+03 2.377623307372780156e-03
1.428114057028514253e+03 2.261075597186454345e-03
1.429014507253626789e+03 2.153383112622440920e-03
1.429914957478739325e+03 2.049665601882163894e-03
1.430815407703851861e+03 1.948973220907760078e-03
1.431715857928964397e+03 1.852498920334628768e-03
1.432616308154076933e+03 1.761968376408324689e-03
1.433516758379189469e+03 1.678162420855515121e-03
1.434417208604302004e+03 1.601336491619145862e-03
1.435317658829414540e+03 1.532252023998538406e-03
1.436218109054527304e+03 1.470238646667293729e-03
1.437118559279639840e+03 1.413400848813447684e-03
1.438019009504752376e+03 1.361281659333499683e-03
1.438919459729864911e+03 1.314750154582650663e-03
1.439819909954977447e+03 1.274117292657714427e-03
1.440720360180089983e+03 1.239859191477704192e-03
1.441620810405202519e+03 1.211977687690624647e-03
1.442521260630315055e+03 1.186414203460819375e-03
1.443421710855427591e+03 1.157849875662868245e-03
1.444322161080540127e+03 1.125129727828343053e-03
1.445222611305652663e+03 1.090262788572118023e-03
1.446123061530765426e+03 1.055382054946050639e-03
1.447023511755877962e+03 1.022174360513706604e-03
1.447923961980990498e+03 9.913847874524791930e-04
1.448824412206103034e+03 9.625163923213631793e-04
1.449724862431215570e+03 9.356838211863774488e-04
1.450625312656328106e+03 9.123330256515486828e-04
1.451525762881440642e+03 8.936368442055330147e-04
1.452426213106553178e+03 8.789551268099767478e-04
1.453326663331665713e+03 8.668275880441128883e-04
1.454227113556778249e+03 8.566291833595924025e-04
1.455127563781890785e+03 8.477421508407355887e-04
1.456028014007003321e+03 8.380503908115400453e-04
1.456928464232116085e+03 8.246631439041190916e-04
1.457828914457228620e+03 8.066869218106172395e-04
1.458729364682341156e+03 7.858535715568943552e-04
1.459629814907453692e+03 7.643167029194284116e-04
1.460530265132566228e+03 7.431728661163510084e-04
1.461430715357678764e+03 7.221912023464053219e-04
1.462331165582791300e+03 7.008096988588963629e-04
1.463231615807903836e+03 6.797067674588366890e-04
1.464132066033016372e+03 6.610840028064645215e-04
1.465032516258128908e+03 6.463812604234599407e-04
1.465932966483241444e+03 6.353427336751014693e-04
1.466833416708354207e+03 6.265741378846068034e-04
1.467733866933466743e+03 6.178412319218052695e-04
1.468634317158579279e+03 6.072366103212019275e-04
1.469534767383691815e+03 5.950169033724098328e-04
1.470435217608804351e+03 5.831650624481155443e-04
1.471335667833916887e+03 5.721935293611968331e-04
1.472236118059029423e+03 5.612903044737060010e-04
1.473136568284141958e+03 5.499688093797524191e-04
1.474037018509254494e+03 5.377465214864990276e-04
1.474937468734367030e+03 5.246780384814827506e-04
1.475837918959479566e+03 5.112302687739407082e-04
1.476738369184592329e+03 4.978506961054358654e-04
1.477638819409704865e+03 4.853394757559593097e-04
1.478539269634817401e+03 4.746384491741376544e-04
1.479439719859929937e+03 4.660962441940323902e-04
1.480340170085042473e+03 4.589625690674752046e-04
1.481240620310155009e+03 4.518542114132363240e-04
1.482141070535267545e+03 4.439892725535213584e-04
1.483041520760380081e+03 4.362494105848629738e-04
1.483941970985492617e+03 4.303569844783464572e-04
1.484842421210605153e+03 4.269652978222461558e-04
1.485742871435717689e+03 4.245544483279488769e-04
1.486643321660830452e+03 4.204187639056650009e-04
1.487543771885942988e+03 4.130418644211645359e-04
1.488444222111055524e+03 4.036084518817605960e-04
1.489344672336168060e+03 3.943871471771371261e-04
1.490245122561280596e+03 3.864126027153851821e-04
1.491145572786393132e+03 3.792740721130381711e-04
1.492046023011505667e+03 3.714761555229153796e-04
1.492946473236618203e+03 3.617593878287447763e-04
1.493846923461730739e+03 3.508000600804770134e-04
1.494747373686843275e+03 3.405273321329603769e-04
1.495647823911955811e+03 3.320532914788979981e-04
1.496548274137068574e+03 3.251443325378445127e-04
1.497448724362181110e+03 3.193938657066945457e-04
1.498349174587293646e+03 3.144909353288914385e-04
1.499249624812406182e+03 3.096281570973421311e-04
1.500150075037518718e+03 3.037288634679948213e-04
1.501050525262631254e+03 2.966871321032720204e-04
1.501950975487743790e+03 2.897352012843000492e-04
1.502851425712856326e+03 2.840733860125250879e-04
1.503751875937968862e+03 2.797464845382954335e-04
1.504652326163081398e+03 2.759733571938499056e-04
1.505552776388193934e+03 2.722586360825039373e-04
1.506453226613306470e+03 2.689557291500729776e-04
1.507353676838419233e+03 2.664334856591184459e-04
1.508254127063531769e+03 2.646025430785949647e-04
1.509154577288644305e+03 2.630604657968897394e-04
1.510055027513756841e+03 2.610584744845259901e-04
1.510955477738869376e+03 2.581292846258142993e-04
1.511855927963981912e+03 2.546059724252382932e-04
1.512756378189094448e+03 2.512682451189595474e-04
1.513656828414206984e+03 2.484844910805697514e-04
1.514557278639319520e+03 2.460699657530098622e-04
1.515457728864432056e+03 2.437474477601021578e-04
1.516358179089544592e+03 2.412570913217688159e-04
1.517258629314657355e+03 2.384729435939298423e-04
1.518159079539769891e+03 2.356510250202416268e-04
1.519059529764882427e+03 2.334081724620476255e-04
1.519959979989994963e+03 2.321967726893381021e-04
1.520860430215107499e+03 2.318634132339840177e-04
1.521760880440220035e+03 2.320196169318379205e-04
1.522661330665332571e+03 2.321501395878163541e-04
1.523561780890445107e+03 2.316579332972717087e-04
1.524462231115557643e+03 2.303767144904952967e-04
1.525362681340670179e+03 2.284589414130052906e-04
1.526263131565782714e+03 2.258180777382936654e-04
1.527163581790895478e+03 2.222446157743624307e-04
1.528064032016008014e+03 2.179601330562417857e-04
1.528964482241120550e+03 2.138702233833136206e-04
1.529864932466233086e+03 2.108044067499501104e-04
1.530765382691345621e+03 2.090143788884430147e-04
1.531665832916458157e+03 2.083188199712915833e-04
1.532566283141570693e+03 2.082429376168620837e-04
1.533466733366683229e+03 2.081779618651491165e-04
1.534367183591795765e+03 2.075261570418261627e-04
1.535267633816908301e+03 2.060046772167046722e-04
1.536168084042020837e+03 2.037796544544318792e-04
1.537068534267133600e+03 2.011547467418719158e-04
1.537968984492246136e+03 1.983795321414232851e-04
1.538869434717358672e+03 1.957775759671960623e-04
1.539769884942471208e+03 1.937240488446206671e-04
1.540670335167583744e+03 1.924483559534548196e-04
1.541570785392696280e+03 1.918841090444288629e-04
1.542471235617808816e+03 1.915417209809172898e-04
1.543371685842921352e+03 1.906293205890349405e-04
1.544272136068033888e+03 1.885952122462732701e-04
1.545172586293146423e+03 1.857125901254807218e-04
1.546073036518258959e+03 1.828739833353423610e-04
1.546973486743371723e+03 1.807630239418745691e-04
1.547873936968484259e+03 1.793845669538376801e-04
1.548774387193596795e+03 1.783138149403728188e-04
1.549674837418709330e+03 1.771251384660656625e-04
1.550575287643821866e+03 1.757664559564300801e-04
1.551475737868934402e+03 1.745206502402025053e-04
1.552376188094046938e+03 1.736676972199495156e-04
1.553276638319159474e+03 1.733134116076324440e-04
1.554177088544272010e+03 1.733413015817210552e-04
1.555077538769384546e+03 1.735755780891543227e-04
1.555977988994497082e+03 1.741512166845559794e-04
1.556878439219609618e+03 1.756308800038727206e-04
1.557778889444722381e+03 1.786974298063947802e-04
1.558679339669834917e+03 1.839624089970841639e-04
1.559579789894947453e+03 1.918862504828934047e-04
1.560480240120059989e+03 2.028705223419450209e-04
1.561380690345172525e+03 2.177508480915177835e-04
1.562281140570285061e+03 2.377240513426253309e-04
1.563181590795397597e+03 2.633036206239480087e-04
1.564082041020510133e+03 2.944344514118759715e-04
1.564982491245622668e+03 3.313422060873447671e-04
1.565882941470735204e+03 3.733396120318864184e-04
1.566783391695847740e+03 4.155894302770148725e-04
1.567683841920960504e+03 4.464213575888076454e-04
1.568584292146073039e+03 4.508802170225016063e-04
1.569484742371185575e+03 4.239352102484438304e-04
1.570385192596298111e+03 3.745496025196098423e-04
1.571285642821410647e+03 3.166171196673013446e-04
1.572186093046523183e+03 2.622155535406901685e-04
1.573086543271635719e+03 2.173190503245075794e-04
1.573986993496748255e+03 1.826111386482797642e-04
1.574887443721860791e+03 1.564611848688510134e-04
1.575787893946973327e+03 1.367032207767452019e-04
1.576688344172085863e+03 1.215756039885641061e-04
1.577588794397198626e+03 1.098119858003922678e-04
1.578489244622311162e+03 1.005061836399124430e-04
1.579389694847423698e+03 9.303061899503239094e-05
1.580290145072536234e+03 8.697019288124026542e-05
1.581190595297648770e+03 8.201165517533969245e-05
1.582091045522761306e+03 7.790050763955884362e-05
1.582991495747873842e+03 7.443981124648381799e-05
1.583891945972986377e+03 7.148322970086006456e-05
1.584792396198098913e+03 6.892298743016053405e-05
1.585692846423211449e+03 6.667905548592809755e-05
1.586593296648323985e+03 6.469115487541110131e-05
1.587493746873436749e+03 6.291317781070059696e-05
1.588394197098549284e+03 6.130933250140639136e-05
1.589294647323661820e+03 5.985145632898031303e-05
1.590195097548774356e+03 5.851711580494864065e-05
1.591095547773886892e+03 5.728824122863391508e-05
1.591995997998999428e+03 5.615013010295672434e-05
1.592896448224111964e+03 5.509070898575921000e-05
1.593796898449224500e+03 5.409997934269348727e-05
1.594697348674337036e+03 5.316959637107506706e-05
1.595597798899449572e+03 5.229254525200377837e-05
1.596498249124562108e+03 5.146288970157609388e-05
1.597398699349674871e+03 5.067557480445452072e-05
1.598299149574787407e+03 4.992627104414611448e-05
1.599199599799899943e+03 4.921124991138800482e-05
1.600100050025012479e+03 4.852728394182338002e-05
1.601000500250125015e+03 4.787156581496472893e-05
1.601900950475237551e+03 4.724164244507235086e-05
1.602801400700350086e+03 4.663536095153564525e-05
1.603701850925462622e+03 4.605082410844660599e-05
1.604602301150575158e+03 4.548635340782494790e-05
1.605502751375687694e+03 4.494045827595495151e-05
1.606403201600800230e+03 4.441181029154075928e-05
1.607303651825912766e+03 4.389922149223302999e-05
1.608204102051025529e+03 4.340162604037673153e-05
1.609104552276138065e+03 4.291806466256300150e-05
1.610005002501250601e+03 4.244767139037343391e-05
1.610905452726363137e+03 4.198966221879351447e-05
1.611805902951475673e+03 4.154332536952019768e-05
1.612706353176588209e+03 4.110801290287296371e-05
1.613606803401700745e+03 4.068313346736007172e-05
1.614507253626813281e+03 4.026814601252280012e-05
1.615407703851925817e+03 3.986255432032192889e-05
1.616308154077038353e+03 3.946590223444012218e-05
1.617208604302150889e+03 3.907776948662557376e-05
1.618109054527263652e+03 3.869776803536793510e-05
1.619009504752376188e+03 3.832553884556866601e-05
1.619909954977488724e+03 3.796074904888774456e-05
1.620810405202601260e+03 3.760308943363917033e-05
1.621710855427713796e+03 3.725227222073267201e-05
1.622611305652826331e+03 3.690802908855864210e-05
1.623511755877938867e+03 3.657010941506552633e-05
1.624412206103051403e+03 3.623827870979495622e-05
1.625312656328163939e+03 3.591231721243989323e-05
1.626213106553276475e+03 3.559201863772030121e-05
1.627113556778389011e+03 3.527718904910454457e-05
1.628014007003501774e+03 3.496764584622685329e-05
1.628914457228614310e+03 3.466321685285134619e-05
1.629814907453726846e+03 3.436373949392308990e-05
1.630715357678839382e+03 3.406906005170856221e-05
1.631615807903951918e+03 3.377903299228638258e-05
1.632516258129064454e+03 3.349352035472733739e-05
1.633416708354176990e+03 3.321239119623217310e-05
1.634317158579289526e+03 3.293552108731677842e-05
1.635217608804402062e+03 3.266279165181982239e-05
1.636118059029514598e+03 3.239409014713214512e-05
1.637018509254627133e+03 3.212930908057159892e-05
1.637918959479739897e+03 3.186834585828662451e-05
1.638819409704852433e+03 3.161110246349098580e-05
1.639719859929964969e+03 3.135748516116967330e-05
1.640620310155077505e+03 3.110740422672427625e-05
1.641520760380190040e+03 3.086077369628753770e-05
1.642421210605302576e+03 3.061751113668895213e-05
1.643321660830415112e+03 3.037753743325423509e-05
1.644222111055527648e+03 3.014077659382380690e-05
1.645122561280640184e+03 2.990715556752785738e-05
1.646023011505752720e+03 2.967660407701622411e-05
1.646923461730865256e+03 2.944905446296099870e-05
1.647823911955978019e+03 2.922444153977427970e-05
1.648724362181090555e+03 2.900270246158637432e-05
1.649624812406203091e+03 2.878377659761244224e-05
1.650525262631315627e+03 2.856760541613796730e-05
1.651425712856428163e+03 2.835413237640438015e-05
1.652326163081540699e+03 2.814330282776124773e-05
1.653226613306653235e+03 2.793506391549569476e-05
1.654127063531765771e+03 2.772936449281815203e-05
1.655027513756878307e+03 2.752615503851463323e-05
1.655927963981990843e+03 2.732538757983301464e-05
1.656828414207103378e+03 2.712701562020169207e-05
1.657728864432216142e+03 2.693099407141489658e-05
1.658629314657328678e+03 2.673727918995312002e-05
1.659529764882441214e+03 2.654582851713338314e-05
1.660430215107553749e+03 2.635660082280818210e-05
1.661330665332666285e+03 2.616955605236295738e-05
1.662231115557778821e+03 2.598465527676928843e-05
1.663131565782891357e+03 2.580186064548700890e-05
1.664032016008003893e+03 2.562113534201209721e-05
1.664932466233116429e+03 2.544244354189001563e-05
1.665832916458228965e+03 2.526575037302530497e-05
1.666733366683341501e+03 2.509102187813791300e-05
1.667633816908454037e+03 2.491822497921704013e-05
1.668534267133566800e+03 2.474732744384634507e-05
1.669434717358679336e+03 2.457829785327754173e-05
1.670335167583791872e+03 2.441110557213856637e-05
1.671235617808904408e+03 2.424572071967524375e-05
1.672136068034016944e+03 2.408211414242795583e-05
1.673036518259129480e+03 2.392025738825558068e-05
1.673936968484242016e+03 2.376012268162345199e-05
1.674837418709354552e+03 2.360168290007738485e-05
1.675737868934467087e+03 2.344491155183750622e-05
1.676638319159579623e+03 2.328978275443618226e-05
1.677538769384692159e+03 2.313627121434911889e-05
1.678439219609804923e+03 2.298435220755535934e-05
1.679339669834917459e+03 2.283400156097292066e-05
1.680240120060029994e+03 2.268519563472430224e-05
1.681140570285142530e+03 2.253791130518234212e-05
1.682041020510255066e+03 2.239212594875181626e-05
1.682941470735367602e+03 2.224781742635023981e-05
1.683841920960480138e+03 2.210496406854598961e-05
1.684742371185592674e+03 2.196354466132062567e-05
1.685642821410705210e+03 2.182353843242090338e-05
1.686543271635817746e+03 2.168492503827135217e-05
1.687443721860930282e+03 2.154768455141521294e-05
1.688344172086043045e+03 2.141179744845800149e-05
1.689244622311155581e+03 2.127724459849076704e-05
1.690145072536268117e+03 2.114400725196117028e-05
1.691045522761380653e+03 2.101206702998158297e-05
1.691945972986493189e+03 2.088140591403924362e-05
1.692846423211605725e+03 2.075200623610075782e-05
1.693746873436718261e+03 2.062385066908325201e-05
1.694647323661830796e+03 2.049692221768025790e-05
1.695547773886943332e+03 2.037120420952103305e-05
1.696448224112055868e+03 2.024668028665251300e-05
1.697348674337168404e+03 2.012333439732252923e-05
1.698249124562281168e+03 2.000115078805887199e-05
1.699149574787393703e+03 1.988011399602088104e-05
1.700050025012506239e+03 1.976020884162014873e-05
1.700950475237618775e+03 1.964142042139260227e-05
1.701850925462731311e+03 1.952373410111322023e-05
1.702751375687843847e+03 1.940713550914295802e-05
1.703651825912956383e+03 1.929161052999580714e-05
1.704552276138068919e+03 1.917714529811893396e-05
1.705452726363181455e+03 1.906372619187561855e-05
1.706353176588293991e+03 1.895133982772231993e-05
1.707253626813406527e+03 1.883997305457249169e-05
1.708154077038519290e+03 1.872961294833907424e-05
1.709054527263631826e+03 1.862024680664780296e-05
1.709954977488744362e+03 1.851186214371558630e-05
1.710855427713856898e+03 1.840444668538628278e-05
1.711755877938969434e+03 1.829798836431769719e-05
1.712656328164081970e+03 1.819247531531585204e-05
1.713556778389194506e+03 1.808789587080709166e-05
1.714457228614307041e+03 1.798423855644544722e-05
1.715357678839419577e+03 1.788149208684985199e-05
1.716258129064532113e+03 1.777964536146568739e-05
1.717158579289644649e+03 1.767868746054518478e-05
1.718059029514757185e+03 1.757860764124428410e-05
1.718959479739869948e+03 1.747939533382986423e-05
1.719859929964982484e+03 1.738104013799417731e-05
1.720760380190095020e+03 1.728353181927275997e-05
1.721660830415207556e+03 1.718686030556081717e-05
1.722561280640320092e+03 1.709101568372639826e-05
1.723461730865432628e+03 1.699598819631541850e-05
1.724362181090545164e+03 1.690176823834666251e-05
1.725262631315657700e+03 1.680834635419175882e-05
1.726163081540770236e+03 1.671571323453959666e-05
1.727063531765882772e+03 1.662385971344007603e-05
1.727963981990995308e+03 1.653277676542661811e-05
1.728864432216108071e+03 1.644245550271167312e-05
1.729764882441220607e+03 1.635288717245747509e-05
1.730665332666333143e+03 1.626406315411390880e-05
1.731565782891445679e+03 1.617597495682721577e-05
1.732466233116558215e+03 1.608861421691195327e-05
1.733366683341670750e+03 1.600197269538755485e-05
1.734267133566783286e+03 1.591604227557600601e-05
1.735167583791895822e+03 1.583081496075940841e-05
1.736068034017008358e+03 1.574628287189455290e-05
1.736968484242120894e+03 1.566243824538406749e-05
1.737868934467233430e+03 1.557927343090099279e-05
1.738769384692346193e+03 1.549678088926634785e-05
1.739669834917458729e+03 1.541495319037743326e-05
1.740570285142571265e+03 1.533378301118467260e-05
1.741470735367683801e+03 1.525326313371763948e-05
1.742371185592796337e+03 1.517338644315620083e-05
1.743271635817908873e+03 1.509414592594743057e-05
1.744172086043021409e+03 1.501553466796591501e-05
1.745072536268133945e+03 1.493754585271646241e-05
1.745972986493246481e+03 1.486017275957831218e-05
1.746873436718359017e+03 1.478340876208864455e-05
1.747773886943471553e+03 1.470724732626556720e-05
1.748674337168584316e+03 1.463168200896863213e-05
1.749574787393696852e+03 1.455670645629622057e-05
1.750475237618809388e+03 1.448231440201789332e-05
1.751375687843921924e+03 1.440849966604231485e-05
1.752276138069034459e+03 1.433525615291827939e-05
1.753176588294146995e+03 1.426257785036873753e-05
1.754077038519259531e+03 1.419045882785621029e-05
1.754977488744372067e+03 1.411889323518054651e-05
1.755877938969484603e+03 1.404787530110472194e-05
1.756778389194597139e+03 1.397739933201218532e-05
1.757678839419709675e+03 1.390745971059140942e-05
1.758579289644822438e+03 1.383805089454852633e-05
1.759479739869934974e+03 1.376916741534775900e-05
1.760380190095047510e+03 1.370080387697676901e-05
1.761280640320160046e+03 1.363295495473958897e-05
1.762181090545272582e+03 1.356561539407307345e-05
1.763081540770385118e+03 1.349878000938817831e-05
1.763981990995497654e+03 1.343244368293566836e-05
1.764882441220610190e+03 1.336660136369388518e-05
1.765782891445722726e+03 1.330124806628011665e-05
1.766683341670835262e+03 1.323637886988331171e-05
1.767583791895947797e+03 1.317198891721850631e-05
1.768484242121060333e+03 1.310807341350222185e-05
1.769384692346173097e+03 1.304462762544819748e-05
1.770285142571285633e+03 1.298164688028330558e-05
1.771185592796398169e+03 1.291912656478234919e-05
1.772086043021510704e+03 1.285706212432257507e-05
1.772986493246623240e+03 1.279544906195569321e-05
1.773886943471735776e+03 1.273428293749942548e-05
1.774787393696848312e+03 1.267355936664500063e-05
1.775687843921960848e+03 1.261327402008305518e-05
1.776588294147073384e+03 1.255342262264609054e-05
1.777488744372185920e+03 1.249400095246701013e-05
1.778389194597298456e+03 1.243500484015396702e-05
1.779289644822411219e+03 1.237643016798092900e-05
1.780190095047523755e+03 1.231827286909310080e-05
1.781090545272636291e+03 1.226052892672825508e-05
1.781990995497748827e+03 1.220319437345124000e-05
1.782891445722861363e+03 1.214626529040410094e-05
1.783791895947973899e+03 1.208973780656960062e-05
1.784692346173086435e+03 1.203360809804762084e-05
1.785592796398198971e+03 1.197787238734682443e-05
1.786493246623311506e+03 1.192252694268711005e-05
1.787393696848424042e+03 1.186756807731652078e-05
1.788294147073536578e+03 1.181299214883945890e-05
1.789194597298649342e+03 1.175879555855792467e-05
1.790095047523761878e+03 1.170497475082416628e-05
1.790995497748874413e+03 1.165152621240480209e-05
1.791895947973986949e+03 1.159844647185747888e-05
1.792796398199099485e+03 1.154573209891692886e-05
1.793696848424212021e+03 1.149337970389354575e-05
1.794597298649324557e+03 1.144138593708178481e-05
1.795497748874437093e+03 1.138974748817905078e-05
1.796398199099549629e+03 1.133846108571478752e-05
1.797298649324662165e+03 1.128752349649070782e-05
1.798199099549774701e+03 1.123693152502880912e-05
1.799099549774887464e+03 1.118668201303053623e-05
1.800000000000000000e+03 1.113677183884476327e-05
