0.000000000000000000e+00 1.159757584670726522e-03
9.004502251125562351e-01 1.555574074741794674e-03
1.800900450225112470e+00 2.078773348277993590e-03
2.701350675337668594e+00 2.656096209104115684e-03
3.601800900450224940e+00 3.057770086396649403e-03
4.502251125562780842e+00 3.038508126291398440e-03
5.402701350675337189e+00 2.620277891966258949e-03
6.303151575787893535e+00 2.050005667987437642e-03
7.203601800900449881e+00 1.536501532967348435e-03
8.104052026013006227e+00 1.147199382907853650e-03
9.004502251125561685e+00 8.694866435286050139e-04
9.904952476238118919e+00 6.731666238925326871e-04
1.080540270135067438e+01 5.326636396347285982e-04
1.170585292646323161e+01 4.300934961695963930e-04
1.260630315157578707e+01 3.535904900194807563e-04
1.350675337668834430e+01 2.953317416676625828e-04
1.440720360180089976e+01 2.501053490954849735e-04
1.530765382691345522e+01 2.143848686759145113e-04
1.620810405202601245e+01 1.857520512388702901e-04
1.710855427713856969e+01 1.625160579888940420e-04
1.800900450225112337e+01 1.434431456276951669e-04
1.890945472736368060e+01 1.275705453068924687e-04
1.980990495247623784e+01 1.141204654903074309e-04
2.071035517758879507e+01 1.025573864473491246e-04
2.161080540270134875e+01 9.258355049402364754e-05
2.251125562781390599e+01 8.398111679957833136e-05
2.341170585292646322e+01 7.653856477396300719e-05
2.431215607803901690e+01 7.006430044779775660e-05
2.521260630315157414e+01 6.439878310013553465e-05
2.611305652826413137e+01 5.941352427365495455e-05
2.701350675337668861e+01 5.500585595853123977e-05
2.791395697848924229e+01 5.109367531489843016e-05
2.881440720360179952e+01 4.761118600604535291e-05
2.971485742871435676e+01 4.450509038310332670e-05
3.061530765382691044e+01 4.172856628937792297e-05
3.151575787893946767e+01 3.923046709071201053e-05
3.241620810405202491e+01 3.694912814086196361e-05
3.331665832916458214e+01 3.483195670732965607e-05
3.421710855427713938e+01 3.286124631387444411e-05
3.511755877938969661e+01 3.104736044807694016e-05
3.601800900450224674e+01 2.939913460069243294e-05
3.691845922961480397e+01 2.790546377329095802e-05
3.781890945472736121e+01 2.653318141428256770e-05
3.871935967983991844e+01 2.523999072947506213e-05
3.961980990495247568e+01 2.401012633576953898e-05
4.052026013006503291e+01 2.285809138726760983e-05
4.142071035517759015e+01 2.179468484906570041e-05
4.232116058029014027e+01 2.081711893508282193e-05
4.322161080540269751e+01 1.991721035163318554e-05
4.412206103051525474e+01 1.908695392465372531e-05
4.502251125562781198e+01 1.832009387663107551e-05
4.592296148074036921e+01 1.761225866831414452e-05
4.682341170585292645e+01 1.696073539803629701e-05
4.772386193096548368e+01 1.636366583506229628e-05
4.862431215607803381e+01 1.581757426865155406e-05
4.952476238119059104e+01 1.531309630228317191e-05
5.042521260630314828e+01 1.483311283135376244e-05
5.132566283141570551e+01 1.436215894565532392e-05
5.222611305652826275e+01 1.390641578228265937e-05
5.312656328164081998e+01 1.348928204194307985e-05
5.402701350675337721e+01 1.312552940103629470e-05
5.492746373186592734e+01 1.281047267113754213e-05
5.582791395697848458e+01 1.252339089096589032e-05
5.672836418209104181e+01 1.223370928320934607e-05
5.762881440720359905e+01 1.190298774025356037e-05
5.852926463231615628e+01 1.152057380599166215e-05
5.942971485742871351e+01 1.113103703515276028e-05
6.033016508254127075e+01 1.077916332046124670e-05
6.123061530765382088e+01 1.047741399712052909e-05
6.213106553276637811e+01 1.022371441452724501e-05
6.303151575787893535e+01 1.000822539521610866e-05
6.393196598299149258e+01 9.804991341728931111e-06
6.483241620810404982e+01 9.592878995942553087e-06
6.573286643321659994e+01 9.378306262975428438e-06
6.663331665832916428e+01 9.163989055983675936e-06
6.753376688344171441e+01 8.939024021037614282e-06
6.843421710855427875e+01 8.701443811820412424e-06
6.933466733366682888e+01 8.449733419928015188e-06
7.023511755877939322e+01 8.187831828468129306e-06
7.113556778389194335e+01 7.933459829293430224e-06
7.203601800900449348e+01 7.699929366956644700e-06
7.293646823411705782e+01 7.491764764593421623e-06
7.383691845922960795e+01 7.309032949763871901e-06
7.473736868434217229e+01 7.148838602556682030e-06
7.563781890945472242e+01 7.005305267831289381e-06
7.653826913456728676e+01 6.869393111832091214e-06
7.743871935967983688e+01 6.734842272249335487e-06
7.833916958479238701e+01 6.605154240320229181e-06
7.923961980990495135e+01 6.488593907620957353e-06
8.014007003501750148e+01 6.391199227155315089e-06
8.104052026013006582e+01 6.316566669812504405e-06
8.194097048524261595e+01 6.265815018842259341e-06
8.284142071035518029e+01 6.232351344737113837e-06
8.374187093546773042e+01 6.196872341214607077e-06
8.464232116058028055e+01 6.141078560942363647e-06
8.554277138569284489e+01 6.068580933617424324e-06
8.644322161080539502e+01 5.994090105188329225e-06
8.734367183591795936e+01 5.914631060892639422e-06
8.824412206103050949e+01 5.811386130168935048e-06
8.914457228614307382e+01 5.689906285555818121e-06
9.004502251125562395e+01 5.581016785755907257e-06
9.094547273636817408e+01 5.508428838920633612e-06
9.184592296148073842e+01 5.483128967741576296e-06
9.274637318659328855e+01 5.510715788136698957e-06
9.364682341170585289e+01 5.586661600634121746e-06
9.454727363681840302e+01 5.672120705333545813e-06
9.544772386193096736e+01 5.682250659833081949e-06
9.634817408704351749e+01 5.564496176171232306e-06
9.724862431215606762e+01 5.375408242292279160e-06
9.814907453726863196e+01 5.200868890541121976e-06
9.904952476238118209e+01 5.077902188781638626e-06
9.994997498749374643e+01 5.000564621267056272e-06
1.008504252126062966e+02 4.941244027822280901e-06
1.017508754377188609e+02 4.869058029109700722e-06
1.026513256628314110e+02 4.774604227548066077e-06
1.035517758879439612e+02 4.680497734061968880e-06
1.044522261130565255e+02 4.610898186154944520e-06
1.053526763381690756e+02 4.566439401710360062e-06
1.062531265632816400e+02 4.527827564023320211e-06
1.071535767883941901e+02 4.482294688118202233e-06
1.080540270135067544e+02 4.442654684161806360e-06
1.089544772386193046e+02 4.423103313484834567e-06
1.098549274637318547e+02 4.414502498269898789e-06
1.107553776888444190e+02 4.397429267828283024e-06
1.116558279139569692e+02 4.375787832011729295e-06
1.125562781390695335e+02 4.370078811816656011e-06
1.134567283641820836e+02 4.381867090765569740e-06
1.143571785892946480e+02 4.394291807523539246e-06
1.152576288144071981e+02 4.401278028889820845e-06
1.161580790395197482e+02 4.410921955041101114e-06
1.170585292646323126e+02 4.416707549817761776e-06
1.179589794897448627e+02 4.395206474837190691e-06
1.188594297148574270e+02 4.342338431099343502e-06
1.197598799399699772e+02 4.259894485068737439e-06
1.206603301650825415e+02 4.143736889757248418e-06
1.215607803901950916e+02 4.018526492343632484e-06
1.224612306153076418e+02 3.919329782725360622e-06
1.233616808404202061e+02 3.857950890481901289e-06
1.242621310655327562e+02 3.821894390447745821e-06
1.251625812906453206e+02 3.786818747128926704e-06
1.260630315157578707e+02 3.741549301607996962e-06
1.269634817408704350e+02 3.697337605572995012e-06
1.278639319659829852e+02 3.667445172516523435e-06
1.287643821910955353e+02 3.660699922842525764e-06
1.296648324162080996e+02 3.686997319619107958e-06
1.305652826413206640e+02 3.755588918354746630e-06
1.314657328664331999e+02 3.869235897611369994e-06
1.323661830915457642e+02 4.014473429481798612e-06
1.332666333166583286e+02 4.158440939224626603e-06
1.341670835417708929e+02 4.262113249180549646e-06
1.350675337668834288e+02 4.294688126513949162e-06
1.359679839919959932e+02 4.266052279495697991e-06
1.368684342171085575e+02 4.223876945881827397e-06
1.377688844422210934e+02 4.177595721364405931e-06
1.386693346673336578e+02 4.091714379031298608e-06
1.395697848924462221e+02 3.966643657797050942e-06
1.404702351175587864e+02 3.854026107728720882e-06
1.413706853426713224e+02 3.796781393187441151e-06
1.422711355677838867e+02 3.799099756241176260e-06
1.431715857928964510e+02 3.827747527222795853e-06
1.440720360180089870e+02 3.835407026875131170e-06
1.449724862431215513e+02 3.804137287920759517e-06
1.458729364682341156e+02 3.744871173650239522e-06
1.467733866933466800e+02 3.674116692096368730e-06
1.476738369184592159e+02 3.619009804113802671e-06
1.485742871435717802e+02 3.608812790750966801e-06
1.494747373686843446e+02 3.650072617850662573e-06
1.503751875937968805e+02 3.714867840995827008e-06
1.512756378189094448e+02 3.754341060820830056e-06
1.521760880440220092e+02 3.742034346455504878e-06
1.530765382691345735e+02 3.690419646259981696e-06
1.539769884942471094e+02 3.627774938722074999e-06
1.548774387193596738e+02 3.586822502655418216e-06
1.557778889444722381e+02 3.584692985638152533e-06
1.566783391695847740e+02 3.612633955272360450e-06
1.575787893946973384e+02 3.654103002083062984e-06
1.584792396198099027e+02 3.690818722771313106e-06
1.593796898449224670e+02 3.706716912379491893e-06
1.602801400700350030e+02 3.710680649822706059e-06
1.611805902951475673e+02 3.718221703916789381e-06
1.620810405202601316e+02 3.719160089492570693e-06
1.629814907453726676e+02 3.712326878191092222e-06
1.638819409704852319e+02 3.733912634195912614e-06
1.647823911955977962e+02 3.816697114491863281e-06
1.656828414207103606e+02 3.960781674006672567e-06
1.665832916458228965e+02 4.138094405991292144e-06
1.674837418709354608e+02 4.304927618725965771e-06
1.683841920960480252e+02 4.404110809003848532e-06
1.692846423211605611e+02 4.398813556831456616e-06
1.701850925462731254e+02 4.309943825403668021e-06
1.710855427713856898e+02 4.176892119876677068e-06
1.719859929964982541e+02 4.040776619359861439e-06
1.728864432216107900e+02 3.951461541213090963e-06
1.737868934467233544e+02 3.920823539712363767e-06
1.746873436718359187e+02 3.906417951326349077e-06
1.755877938969484546e+02 3.868104977389052420e-06
1.764882441220610190e+02 3.810291924405173233e-06
1.773886943471735833e+02 3.759577318593190790e-06
1.782891445722861476e+02 3.739988075770045090e-06
1.791895947973986836e+02 3.751468283725411967e-06
1.800900450225112479e+02 3.771355123106390257e-06
1.809904952476238122e+02 3.800799136274607588e-06
1.818909454727363482e+02 3.877636501126684893e-06
1.827913956978489125e+02 4.029201784493263721e-06
1.836918459229614768e+02 4.240662064544989825e-06
1.845922961480740412e+02 4.466627943545551869e-06
1.854927463731865771e+02 4.645914693573194501e-06
1.863931965982991414e+02 4.731987484341635163e-06
1.872936468234117058e+02 4.730848554596767146e-06
1.881940970485242417e+02 4.667880868579771472e-06
1.890945472736368060e+02 4.557553756332474577e-06
1.899949974987493704e+02 4.427820858970938881e-06
1.908954477238619347e+02 4.311108782759637773e-06
1.917958979489744706e+02 4.211643498212650661e-06
1.926963481740870350e+02 4.110769841468676738e-06
1.935967983991995993e+02 4.009973242133654032e-06
1.944972486243121352e+02 3.946722291564111574e-06
1.953976988494246996e+02 3.938476631055819579e-06
1.962981490745372639e+02 3.953975081848551138e-06
1.971985992996498283e+02 3.954319445111414168e-06
1.980990495247623642e+02 3.929377803347364899e-06
1.989994997498749285e+02 3.896949493437336430e-06
1.998999499749874929e+02 3.889821863801205727e-06
2.008004002001000288e+02 3.929476258273186215e-06
2.017008504252125931e+02 4.009954201414889367e-06
2.026013006503251574e+02 4.105277840808330719e-06
2.035017508754377218e+02 4.183802390284300742e-06
2.044022011005502577e+02 4.230723320061906139e-06
2.053026513256628220e+02 4.247550089642636591e-06
2.062031015507753864e+02 4.230435467102626713e-06
2.071035517758879223e+02 4.167307720625632881e-06
2.080040020010004866e+02 4.077733728124402349e-06
2.089044522261130510e+02 4.008406548942519034e-06
2.098049024512256153e+02 3.981819042201631086e-06
2.107053526763381512e+02 3.979885866013476272e-06
2.116058029014507156e+02 3.972522907090097898e-06
2.125062531265632799e+02 3.953528382964960440e-06
2.134067033516758158e+02 3.952361376244921401e-06
2.143071535767883802e+02 4.010264258734265021e-06
2.152076038019009445e+02 4.135573326764901100e-06
2.161080540270135089e+02 4.294689438141189120e-06
2.170085042521260448e+02 4.453580484894398979e-06
2.179089544772386091e+02 4.610213253524855530e-06
2.188094047023511735e+02 4.762483543332434863e-06
2.197098549274637094e+02 4.870965870161251040e-06
2.206103051525762737e+02 4.888359189952561125e-06
2.215107553776888381e+02 4.804588599998909725e-06
2.224112056028014024e+02 4.655877111531304223e-06
2.233116558279139383e+02 4.494081903597502110e-06
2.242121060530265027e+02 4.348842032930446829e-06
2.251125562781390670e+02 4.230567414679069225e-06
2.260130065032516029e+02 4.151117900182428956e-06
2.269134567283641672e+02 4.107137964690331954e-06
2.278139069534767316e+02 4.070448711453850642e-06
2.287143571785892959e+02 4.016465965391156949e-06
2.296148074037018318e+02 3.956513855966368995e-06
2.305152576288143962e+02 3.930844951051062348e-06
2.314157078539269605e+02 3.976101367509765939e-06
2.323161580790394964e+02 4.101949579647118794e-06
2.332166083041520608e+02 4.279485800430762429e-06
2.341170585292646251e+02 4.457432514264350386e-06
2.350175087543771895e+02 4.605103956077565050e-06
2.359179589794897254e+02 4.728616423627065156e-06
2.368184092046022897e+02 4.838576454636087929e-06
2.377188594297148541e+02 4.922469980132457992e-06
2.386193096548273900e+02 4.960260579854227656e-06
2.395197598799399543e+02 4.949874817736861333e-06
2.404202101050525187e+02 4.897942831983682426e-06
2.413206603301650830e+02 4.801142363057313755e-06
2.422211105552776189e+02 4.667657932669513137e-06
2.431215607803901833e+02 4.538824492931594758e-06
2.440220110055027476e+02 4.460202592103257725e-06
2.449224612306152835e+02 4.440059379676079027e-06
2.458229114557278479e+02 4.450855066871969890e-06
2.467233616808404122e+02 4.474686367443932408e-06
2.476238119059529765e+02 4.527114729164419041e-06
2.485242621310655124e+02 4.627898416143608884e-06
2.494247123561780768e+02 4.762383439238836279e-06
2.503251625812906411e+02 4.889186415440912922e-06
2.512256128064031770e+02 4.977715844505324701e-06
2.521260630315157414e+02 5.030203578632936675e-06
2.530265132566283057e+02 5.077286502103821703e-06
2.539269634817408701e+02 5.138495924491446874e-06
2.548274137068534060e+02 5.201716400774207475e-06
2.557278639319659703e+02 5.251922008880754876e-06
2.566283141570785347e+02 5.299398208406699366e-06
2.575287643821910706e+02 5.362684300109391482e-06
2.584292146073036633e+02 5.432505763744822244e-06
2.593296648324161993e+02 5.467337503291564339e-06
2.602301150575287352e+02 5.425928940792404783e-06
2.611305652826413279e+02 5.311015452810864845e-06
2.620310155077538639e+02 5.184409858606987881e-06
2.629314657328663998e+02 5.111690811006682592e-06
2.638319159579789925e+02 5.134597479813846832e-06
2.647323661830915285e+02 5.280190190390968448e-06
2.656328164082040644e+02 5.531944004894027489e-06
2.665332666333166571e+02 5.826082455927858942e-06
2.674337168584291931e+02 6.094397423494965516e-06
2.683341670835417858e+02 6.293697974343515104e-06
2.692346173086543217e+02 6.401453266508315609e-06
2.701350675337668577e+02 6.396079448836621681e-06
2.710355177588794504e+02 6.278236598312602032e-06
2.719359679839919863e+02 6.086757957050440558e-06
2.728364182091045222e+02 5.876378072682099800e-06
2.737368684342171150e+02 5.700525495245234397e-06
2.746373186593296509e+02 5.586255472064677353e-06
2.755377688844421868e+02 5.508933743499717254e-06
2.764382191095547796e+02 5.412687335283706252e-06
2.773386693346673155e+02 5.291566318122592223e-06
2.782391195597798514e+02 5.197168804281493506e-06
2.791395697848924442e+02 5.169018947942662323e-06
2.800400200100049801e+02 5.220250513637182411e-06
2.809404702351175729e+02 5.349299095911357869e-06
2.818409204602301088e+02 5.545933052801643586e-06
2.827413706853426447e+02 5.799176385939930109e-06
2.836418209104552375e+02 6.106837936227719824e-06
2.845422711355677734e+02 6.452250236873093973e-06
2.854427213606803093e+02 6.767318045036178167e-06
2.863431715857929021e+02 6.959395015453036462e-06
2.872436218109054380e+02 7.019047851654427915e-06
2.881440720360179739e+02 7.028570984235910237e-06
2.890445222611305667e+02 7.065468448048371774e-06
2.899449724862431026e+02 7.162956694201240308e-06
2.908454227113556385e+02 7.318180445847465551e-06
2.917458729364682313e+02 7.478650606446985894e-06
2.926463231615807672e+02 7.564711717798622276e-06
2.935467733866933600e+02 7.550713433955112127e-06
2.944472236118058959e+02 7.488637107248272770e-06
2.953476738369184318e+02 7.439119358924930099e-06
2.962481240620310246e+02 7.425213407099699701e-06
2.971485742871435605e+02 7.459750925277841092e-06
2.980490245122560964e+02 7.575745465380581451e-06
2.989494747373686891e+02 7.798244202658486990e-06
2.998499249624812251e+02 8.077440769372039664e-06
3.007503751875937610e+02 8.304567479040474148e-06
3.016508254127063537e+02 8.418958880338489728e-06
3.025512756378188897e+02 8.453908878145396469e-06
3.034517258629314256e+02 8.451588865560816547e-06
3.043521760880440183e+02 8.402395886288766149e-06
3.052526263131565543e+02 8.297862698415788777e-06
3.061530765382691470e+02 8.155264563970575210e-06
3.070535267633816829e+02 8.000128535601781893e-06
3.079539769884942189e+02 7.849234615210928199e-06
3.088544272136068116e+02 7.718804763116294366e-06
3.097548774387193475e+02 7.652541340287872230e-06
3.106553276638318835e+02 7.699563032816884173e-06
3.115557778889444762e+02 7.869286646015878726e-06
3.124562281140570121e+02 8.134683086264996870e-06
3.133566783391695481e+02 8.456475313445208956e-06
3.142571285642821408e+02 8.760792717651047089e-06
3.151575787893946767e+02 8.971610276533497144e-06
3.160580290145072127e+02 9.084484088684038287e-06
3.169584792396198054e+02 9.119992589881608874e-06
3.178589294647323413e+02 9.087505332448489643e-06
3.187593796898449341e+02 9.029485613374925494e-06
3.196598299149574700e+02 9.009813082989020583e-06
3.205602801400700059e+02 9.038262059442800920e-06
3.214607303651825987e+02 9.072518766410742850e-06
3.223611805902951346e+02 9.061976325324341835e-06
3.232616308154076705e+02 8.994885048460287896e-06
3.241620810405202633e+02 8.906192328634999927e-06
3.250625312656327992e+02 8.824416163510417004e-06
3.259629814907453351e+02 8.740379509102138929e-06
3.268634317158579279e+02 8.630850670704040886e-06
3.277638819409704638e+02 8.517280817441088111e-06
3.286643321660829997e+02 8.478644003873504501e-06
3.295647823911955925e+02 8.586732925037594914e-06
3.304652326163081284e+02 8.848509806458740615e-06
3.313656828414207212e+02 9.222450163072109565e-06
3.322661330665332571e+02 9.656828473587659463e-06
3.331665832916457930e+02 1.011785037849989632e-05
3.340670335167583858e+02 1.057184642956585095e-05
3.349674837418709217e+02 1.092736593315428087e-05
3.358679339669834576e+02 1.107435234015249444e-05
3.367683841920960504e+02 1.102662419785012633e-05
3.376688344172085863e+02 1.091555088305040859e-05
3.385692846423211222e+02 1.083721833901123156e-05
3.394697348674337150e+02 1.082660273744101353e-05
3.403701850925462509e+02 1.090184325925983992e-05
3.412706353176587868e+02 1.107565006465087348e-05
3.421710855427713796e+02 1.133528675724470342e-05
3.430715357678839155e+02 1.162806439061445749e-05
3.439719859929965082e+02 1.190930976928571334e-05
3.448724362181090441e+02 1.216103850273383231e-05
3.457728864432215801e+02 1.235564098906845323e-05
3.466733366683341728e+02 1.244694113647063134e-05
3.475737868934467087e+02 1.242397883416453282e-05
3.484742371185592447e+02 1.231258704048045410e-05
3.493746873436718374e+02 1.214039326282855594e-05
3.502751375687843733e+02 1.195655987863033688e-05
3.511755877938969093e+02 1.179706271552434690e-05
3.520760380190095020e+02 1.163402968573411998e-05
3.529764882441220379e+02 1.140956192234845044e-05
3.538769384692345739e+02 1.114253182434090098e-05
3.547773886943471666e+02 1.091945184455453429e-05
3.556778389194597025e+02 1.075996844847653671e-05
3.565782891445722953e+02 1.062834944842893597e-05
3.574787393696848312e+02 1.053399019309180626e-05
3.583791895947973671e+02 1.050078982879184987e-05
3.592796398199099599e+02 1.050139801725411736e-05
3.601800900450224958e+02 1.049996845248757563e-05
3.610805402701350317e+02 1.051426033571958167e-05
3.619809904952476245e+02 1.059159440367752268e-05
3.628814407203601604e+02 1.074571983581627924e-05
3.637818909454726963e+02 1.094234720189419982e-05
3.646823411705852891e+02 1.115180768460014066e-05
3.655827913956978250e+02 1.136102140764283658e-05
3.664832416208103609e+02 1.153451110753492842e-05
3.673836918459229537e+02 1.161018085700167939e-05
3.682841420710354896e+02 1.154966350008235604e-05
3.691845922961480824e+02 1.138338205862656643e-05
3.700850425212606183e+02 1.115923760233375433e-05
3.709854927463731542e+02 1.090358012240449612e-05
3.718859429714857470e+02 1.065233506970884683e-05
3.727863931965982829e+02 1.044765258863167599e-05
3.736868434217108188e+02 1.032529286585183807e-05
3.745872936468234116e+02 1.028295148918917480e-05
3.754877438719359475e+02 1.029368362928877558e-05
3.763881940970484834e+02 1.035371308803411564e-05
3.772886443221610762e+02 1.045621689650971079e-05
3.781890945472736121e+02 1.056043821350728396e-05
3.790895447723861480e+02 1.063431189047897904e-05
3.799899949974987408e+02 1.069093091826261592e-05
3.808904452226112767e+02 1.076596164050150841e-05
3.817908954477238694e+02 1.089532201126203558e-05
3.826913456728364054e+02 1.109294609653215147e-05
3.835917958979489413e+02 1.129253452422135276e-05
3.844922461230615340e+02 1.137621463855819934e-05
3.853926963481740700e+02 1.131810703291682358e-05
3.862931465732866059e+02 1.117687283625267736e-05
3.871935967983991986e+02 1.098747144637125392e-05
3.880940470235117346e+02 1.078496860268756746e-05
3.889944972486242705e+02 1.062612313655696383e-05
3.898949474737368632e+02 1.051617736176408358e-05
3.907953976988493991e+02 1.041157453141366084e-05
3.916958479239619351e+02 1.028603635318386662e-05
3.925962981490745278e+02 1.014467966817424482e-05
3.934967483741870637e+02 9.988818247502155641e-06
3.943971985992996565e+02 9.830595453865391406e-06
3.952976488244121924e+02 9.718036536775497984e-06
3.961980990495247283e+02 9.667619219721780419e-06
3.970985492746373211e+02 9.628224182023766304e-06
3.979989994997498570e+02 9.546115915105472745e-06
3.988994497248623929e+02 9.427861132925469906e-06
3.997998999499749857e+02 9.308197791190465751e-06
4.007003501750875216e+02 9.184994012933447277e-06
4.016008004002000575e+02 9.040220915763811139e-06
4.025012506253126503e+02 8.897455799816424783e-06
4.034017008504251862e+02 8.789300922483083667e-06
4.043021510755377221e+02 8.711576658511381298e-06
4.052026013006503149e+02 8.649138114261152008e-06
4.061030515257628508e+02 8.599912676901880294e-06
4.070035017508754436e+02 8.575101874716089368e-06
4.079039519759879795e+02 8.590443798966510128e-06
4.088044022011005154e+02 8.631696431564826296e-06
4.097048524262131082e+02 8.667248217158263549e-06
4.106053026513256441e+02 8.706261257934739333e-06
4.115057528764381800e+02 8.781639003147504059e-06
4.124062031015507728e+02 8.892872463875107613e-06
4.133066533266633087e+02 9.007397310544839675e-06
4.142071035517758446e+02 9.110873412356425527e-06
4.151075537768884374e+02 9.222696701390461452e-06
4.160080040020009733e+02 9.355195616250121205e-06
4.169084542271135092e+02 9.482256328437943790e-06
4.178089044522261020e+02 9.567147602888612887e-06
4.187093546773386379e+02 9.598430955774367717e-06
4.196098049024512306e+02 9.564672851679056965e-06
4.205102551275637666e+02 9.447524289810240467e-06
4.214107053526763025e+02 9.254895584708893068e-06
4.223111555777888952e+02 9.032070105716700592e-06
4.232116058029014312e+02 8.833440205005951295e-06
4.241120560280139671e+02 8.697099029241043443e-06
4.250125062531265598e+02 8.653450612555212544e-06
4.259129564782390958e+02 8.711498242144546724e-06
4.268134067033516317e+02 8.826777981750942551e-06
4.277138569284642244e+02 8.922649257156125305e-06
4.286143071535767604e+02 8.944505907721418824e-06
4.295147573786892963e+02 8.895240898117929749e-06
4.304152076038018890e+02 8.824156503939533622e-06
4.313156578289144250e+02 8.786357859900114788e-06
4.322161080540270177e+02 8.808351325589477922e-06
4.331165582791395536e+02 8.869107512527935798e-06
4.340170085042520896e+02 8.931512001966851444e-06
4.349174587293646823e+02 8.989653996970787078e-06
4.358179089544772182e+02 9.070189718647267183e-06
4.367183591795897541e+02 9.186671074868542884e-06
4.376188094047023469e+02 9.305250145155440257e-06
4.385192596298148828e+02 9.385265638951935255e-06
4.394197098549274187e+02 9.432826364056536115e-06
4.403201600800400115e+02 9.468121683245255021e-06
4.412206103051525474e+02 9.495887544334228749e-06
4.421210605302650833e+02 9.513654475016179382e-06
4.430215107553776761e+02 9.515369823129893242e-06
4.439219609804902120e+02 9.502609826832916448e-06
4.448224112056028048e+02 9.492730221507006833e-06
4.457228614307153407e+02 9.489785584349328648e-06
4.466233116558278766e+02 9.463351351750703407e-06
4.475237618809404694e+02 9.386770773697860522e-06
4.484242121060530053e+02 9.283333209475396600e-06
4.493246623311655412e+02 9.200243625628556663e-06
4.502251125562781340e+02 9.157608611575096620e-06
4.511255627813906699e+02 9.155121958441602375e-06
4.520260130065032058e+02 9.179588179789334503e-06
4.529264632316157986e+02 9.203668023836923835e-06
4.538269134567283345e+02 9.221988715589008717e-06
4.547273636818408704e+02 9.270337981751741339e-06
4.556278139069534632e+02 9.373247939248664139e-06
4.565282641320659991e+02 9.500348222789125675e-06
4.574287143571785919e+02 9.597624433653938476e-06
4.583291645822911278e+02 9.646187042324610419e-06
4.592296148074036637e+02 9.660195674612200305e-06
4.601300650325162565e+02 9.658848886045556237e-06
4.610305152576287924e+02 9.665454375803214475e-06
4.619309654827413283e+02 9.697540351418720841e-06
4.628314157078539210e+02 9.760070274524917653e-06
4.637318659329664570e+02 9.833936181498885301e-06
4.646323161580789929e+02 9.869010538429546269e-06
4.655327663831915856e+02 9.835738639797570240e-06
4.664332166083041216e+02 9.765032899052567407e-06
4.673336668334167143e+02 9.719428987838934331e-06
4.682341170585292502e+02 9.763382264914244609e-06
4.691345672836417862e+02 9.926805432911759593e-06
4.700350175087543789e+02 1.016833003454881299e-05
4.709354677338669148e+02 1.040260468616521419e-05
4.718359179589794508e+02 1.057027803178891195e-05
4.727363681840920435e+02 1.065905653950502406e-05
4.736368184092045794e+02 1.067888505024944795e-05
4.745372686343171154e+02 1.065950818286943316e-05
4.754377188594297081e+02 1.063468375453105424e-05
4.763381690845422440e+02 1.060575557969960439e-05
4.772386193096547800e+02 1.055245174529956077e-05
4.781390695347673727e+02 1.044814394662331707e-05
4.790395197598799086e+02 1.029270989942469147e-05
4.799399699849925014e+02 1.012108291669267881e-05
4.808404202101050373e+02 9.974047238307610358e-06
4.817408704352175732e+02 9.892662769599379257e-06
4.826413206603301660e+02 9.901885838710504462e-06
4.835417708854427019e+02 9.979152916092068229e-06
4.844422211105552378e+02 1.006816396308482299e-05
4.853426713356678306e+02 1.013733972202676815e-05
4.862431215607803665e+02 1.019273027140471156e-05
4.871435717858929024e+02 1.025802065947549757e-05
4.880440220110054952e+02 1.033086685919532560e-05
4.889444722361180311e+02 1.036026200569401884e-05
4.898449224612305670e+02 1.031789035041458522e-05
4.907453726863431598e+02 1.023726837708371837e-05
4.916458229114556957e+02 1.014998495347986297e-05
4.925462731365682885e+02 1.006780317726409933e-05
4.934467233616808244e+02 1.002060948398329432e-05
4.943471735867933603e+02 1.003831093811350979e-05
4.952476238119059531e+02 1.011170648672820452e-05
4.961480740370184890e+02 1.021117984325181315e-05
4.970485242621310249e+02 1.032101827533591406e-05
4.979489744872436177e+02 1.043633269625938812e-05
4.988494247123561536e+02 1.054481706908267826e-05
4.997498749374686895e+02 1.063348827501526846e-05
5.006503251625812823e+02 1.070986346085268409e-05
5.015507753876938182e+02 1.079395916507420719e-05
5.024512256128063541e+02 1.089280110185994659e-05
5.033516758379189469e+02 1.100397511911838394e-05
5.042521260630314828e+02 1.112725880598244188e-05
5.051525762881440755e+02 1.125322591243046137e-05
5.060530265132566115e+02 1.135679265539919772e-05
5.069534767383691474e+02 1.142580728771084848e-05
5.078539269634817401e+02 1.148468616647071942e-05
5.087543771885942760e+02 1.156251200852812354e-05
5.096548274137068120e+02 1.165727354538673262e-05
5.105552776388194047e+02 1.175861694232841945e-05
5.114557278639319406e+02 1.188527946438440599e-05
5.123561780890445334e+02 1.204357177359492479e-05
5.132566283141570693e+02 1.219986439360381821e-05
5.141570785392696052e+02 1.232850326556235966e-05
5.150575287643821412e+02 1.243642749300297112e-05
5.159579789894946771e+02 1.253566805716029734e-05
5.168584292146073267e+02 1.262641689606567239e-05
5.177588794397198626e+02 1.271580395334927628e-05
5.186593296648323985e+02 1.281903567203399844e-05
5.195597798899449344e+02 1.297429231924082100e-05
5.204602301150574704e+02 1.321856513394675286e-05
5.213606803401700063e+02 1.352792343738267329e-05
5.222611305652826559e+02 1.380918097573699149e-05
5.231615807903951918e+02 1.396644979814492419e-05
5.240620310155077277e+02 1.398059765290899423e-05
5.249624812406202636e+02 1.390781966104098127e-05
5.258629314657327996e+02 1.380012369530792305e-05
5.267633816908454492e+02 1.366640013392735760e-05
5.276638319159579851e+02 1.352984146223343581e-05
5.285642821410705210e+02 1.345344597260644776e-05
5.294647323661830569e+02 1.348752584745679332e-05
5.303651825912955928e+02 1.363947073001267240e-05
5.312656328164081287e+02 1.386742320700869607e-05
5.321660830415207784e+02 1.411158519259834597e-05
5.330665332666333143e+02 1.432121840320056485e-05
5.339669834917458502e+02 1.443645766624611488e-05
5.348674337168583861e+02 1.445975241978666270e-05
5.357678839419709220e+02 1.447906660721208063e-05
5.366683341670835716e+02 1.456645303979348756e-05
5.375687843921961075e+02 1.474248556132078442e-05
5.384692346173086435e+02 1.500614779397373662e-05
5.393696848424211794e+02 1.531536656397768003e-05
5.402701350675337153e+02 1.558785068631944018e-05
5.411705852926462512e+02 1.576981954955334784e-05
5.420710355177589008e+02 1.587285658606898571e-05
5.429714857428714367e+02 1.591815988705931706e-05
5.438719359679839727e+02 1.592681174750296570e-05
5.447723861930965086e+02 1.594981365474337637e-05
5.456728364182090445e+02 1.602247413571640966e-05
5.465732866433215804e+02 1.614085358013109833e-05
5.474737368684342300e+02 1.630821593964599338e-05
5.483741870935467659e+02 1.652202099114231167e-05
5.492746373186593019e+02 1.672754352088933784e-05
5.501750875437718378e+02 1.686461351636870304e-05
5.510755377688843737e+02 1.695383654561440138e-05
5.519759879939970233e+02 1.706369029005200266e-05
5.528764382191095592e+02 1.723544750520703437e-05
5.537768884442220951e+02 1.747486312158802861e-05
5.546773386693346310e+02 1.775657058516031102e-05
5.555777888944471670e+02 1.801890940971194994e-05
5.564782391195597029e+02 1.817205703702428523e-05
5.573786893446723525e+02 1.817616836523995940e-05
5.582791395697848884e+02 1.810105036515592230e-05
5.591795897948974243e+02 1.805063359040156784e-05
5.600800400200099602e+02 1.805374462684024772e-05
5.609804902451224962e+02 1.807220494769699271e-05
5.618809404702351458e+02 1.808780222830194426e-05
5.627813906953476817e+02 1.810293272132508228e-05
5.636818409204602176e+02 1.811056628879255897e-05
5.645822911455727535e+02 1.809328849653231853e-05
5.654827413706852894e+02 1.801647133667820869e-05
5.663831915957978254e+02 1.786449925945663946e-05
5.672836418209104750e+02 1.765591888769758354e-05
5.681840920460230109e+02 1.742280787203625306e-05
5.690845422711355468e+02 1.721789581224394844e-05
5.699849924962480827e+02 1.705520171263313686e-05
5.708854427213606186e+02 1.690562940573430665e-05
5.717858929464731546e+02 1.676232047163045747e-05
5.726863431715858042e+02 1.663837072740739661e-05
5.735867933966983401e+02 1.654143611497874155e-05
5.744872436218108760e+02 1.645481226069596504e-05
5.753876938469234119e+02 1.633689572808507513e-05
5.762881440720359478e+02 1.615289312462219229e-05
5.771885942971485974e+02 1.592907707494872448e-05
5.780890445222611334e+02 1.574139730064569800e-05
5.789894947473736693e+02 1.564425965424271205e-05
5.798899449724862052e+02 1.564969048262765676e-05
5.807903951975987411e+02 1.573106484498063121e-05
5.816908454227112770e+02 1.582145515363292282e-05
5.825912956478239266e+02 1.583974606896297564e-05
5.834917458729364625e+02 1.574211133901384069e-05
5.843921960980489985e+02 1.554983158316921058e-05
5.852926463231615344e+02 1.534087254914246522e-05
5.861930965482740703e+02 1.517880257425491082e-05
5.870935467733867199e+02 1.507276854449420154e-05
5.879939969984992558e+02 1.498816666235446074e-05
5.888944472236117917e+02 1.487994349336653969e-05
5.897948974487243277e+02 1.474738055633477772e-05
5.906953476738368636e+02 1.460172574869351088e-05
5.915957978989493995e+02 1.442745197567572339e-05
5.924962481240620491e+02 1.421671291715197458e-05
5.933966983491745850e+02 1.400130981026954272e-05
5.942971485742871209e+02 1.382466250917412479e-05
5.951975987993996569e+02 1.370943904805386935e-05
5.960980490245121928e+02 1.365659547110329823e-05
5.969984992496247287e+02 1.364608899191680482e-05
5.978989494747373783e+02 1.363974616130953558e-05
5.987993996998499142e+02 1.362024849131146787e-05
5.996998499249624501e+02 1.360036705155505250e-05
6.006003001500749860e+02 1.357418145959720160e-05
6.015007503751875220e+02 1.353895434337874185e-05
6.024012006003001716e+02 1.350394867274242941e-05
6.033016508254127075e+02 1.347306165532847444e-05
6.042021010505252434e+02 1.345527543461845283e-05
6.051025512756377793e+02 1.346633372198458767e-05
6.060030015007503152e+02 1.350888954274411498e-05
6.069034517258628512e+02 1.355641943396282236e-05
6.078039019509755008e+02 1.357353620281099378e-05
6.087043521760880367e+02 1.354218193419076921e-05
6.096048024012005726e+02 1.344241430423099906e-05
6.105052526263131085e+02 1.326289417454004104e-05
6.114057028514256444e+02 1.304874446621040663e-05
6.123061530765382940e+02 1.286821048582092624e-05
6.132066033016508300e+02 1.277003786671245260e-05
6.141070535267633659e+02 1.276894889730067348e-05
6.150075037518759018e+02 1.281181102715010289e-05
6.159079539769884377e+02 1.279378609668606088e-05
6.168084042021009736e+02 1.265546695877277102e-05
6.177088544272136232e+02 1.244064674594454889e-05
6.186093046523261592e+02 1.222112320024383374e-05
6.195097548774386951e+02 1.203221393322369823e-05
6.204102051025512310e+02 1.189569389543949053e-05
6.213106553276637669e+02 1.181260750148915664e-05
6.222111055527763028e+02 1.175430223376617286e-05
6.231115557778889524e+02 1.171670881916952676e-05
6.240120060030014884e+02 1.173575546839465485e-05
6.249124562281140243e+02 1.183682992222649896e-05
6.258129064532265602e+02 1.200632200916180049e-05
6.267133566783390961e+02 1.218044522728454138e-05
6.276138069034517457e+02 1.227530563038759752e-05
6.285142571285642816e+02 1.226805048785208886e-05
6.294147073536768175e+02 1.220221979613376689e-05
6.303151575787893535e+02 1.213489679383576844e-05
6.312156078039018894e+02 1.208419716460894103e-05
6.321160580290144253e+02 1.203547328158596740e-05
6.330165082541270749e+02 1.197733159821007786e-05
6.339169584792396108e+02 1.190052801947425197e-05
6.348174087043521467e+02 1.182662365571509182e-05
6.357178589294646827e+02 1.177946887396177340e-05
6.366183091545772186e+02 1.173186944216783637e-05
6.375187593796898682e+02 1.166093955212268418e-05
6.384192096048024041e+02 1.158112589579707789e-05
6.393196598299149400e+02 1.151427870523667812e-05
6.402201100550274759e+02 1.146681712828539455e-05
6.411205602801400119e+02 1.142614150420793850e-05
6.420210105052525478e+02 1.138296031083218904e-05
6.429214607303651974e+02 1.132336360464054535e-05
6.438219109554777333e+02 1.123182685404957936e-05
6.447223611805902692e+02 1.113104243013463397e-05
6.456228114057028051e+02 1.107065257907716023e-05
6.465232616308153411e+02 1.108079490201992835e-05
6.474237118559278770e+02 1.114875177439169986e-05
6.483241620810405266e+02 1.123418233548717262e-05
6.492246123061530625e+02 1.129116797624657412e-05
6.501250625312655984e+02 1.129562386206427059e-05
6.510255127563781343e+02 1.126410177239678702e-05
6.519259629814906702e+02 1.123087741814990148e-05
6.528264132066033198e+02 1.120743805556485591e-05
6.537268634317158558e+02 1.119481228659431881e-05
6.546273136568283917e+02 1.119088663988231039e-05
6.555277638819409276e+02 1.117937843836508135e-05
6.564282141070534635e+02 1.115185512017555154e-05
6.573286643321659994e+02 1.111299775446526361e-05
6.582291145572786490e+02 1.105404196917776982e-05
6.591295647823911850e+02 1.095768868415251692e-05
6.600300150075037209e+02 1.082719335629414268e-05
6.609304652326162568e+02 1.069691993253618616e-05
6.618309154577287927e+02 1.060772104681133771e-05
6.627313656828414423e+02 1.057546861802337651e-05
6.636318159079539782e+02 1.058621506368488847e-05
6.645322661330665142e+02 1.060648436324003065e-05
6.654327163581790501e+02 1.059180647059709293e-05
6.663331665832915860e+02 1.052358164900062697e-05
6.672336168084041219e+02 1.043563720107834910e-05
6.681340670335167715e+02 1.037649362896948073e-05
6.690345172586293074e+02 1.036660893514438089e-05
6.699349674837418434e+02 1.040436604022865773e-05
6.708354177088543793e+02 1.047817717483928037e-05
6.717358679339669152e+02 1.056274148220433232e-05
6.726363181590794511e+02 1.063767160118043202e-05
6.735367683841921007e+02 1.069836041309746660e-05
6.744372186093046366e+02 1.073886348610058231e-05
6.753376688344171725e+02 1.074585767794064491e-05
6.762381190595297085e+02 1.072574553737570229e-05
6.771385692846422444e+02 1.071019328277940536e-05
6.780390195097548940e+02 1.071877289191935918e-05
6.789394697348674299e+02 1.075478304050050862e-05
6.798399199599799658e+02 1.080206252008851143e-05
6.807403701850925017e+02 1.085113125966382497e-05
6.816408204102050377e+02 1.091952783458787832e-05
6.825412706353175736e+02 1.101772645415207377e-05
6.834417208604302232e+02 1.112642991254492846e-05
6.843421710855427591e+02 1.119563971020386501e-05
6.852426213106552950e+02 1.119038782775212421e-05
6.861430715357678309e+02 1.111934523721544800e-05
6.870435217608803669e+02 1.100791889168204714e-05
6.879439719859930165e+02 1.087398744090610138e-05
6.888444222111055524e+02 1.074718197843693840e-05
6.897448724362180883e+02 1.066673625948993847e-05
6.906453226613306242e+02 1.064182001857328280e-05
6.915457728864431601e+02 1.064873205222389708e-05
6.924462231115556961e+02 1.065558682438908347e-05
6.933466733366683457e+02 1.063564262015327854e-05
6.942471235617808816e+02 1.059258271434752131e-05
6.951475737868934175e+02 1.056824004166225501e-05
6.960480240120059534e+02 1.059975760167674075e-05
6.969484742371184893e+02 1.067474170311966101e-05
6.978489244622311389e+02 1.074705396620410537e-05
6.987493746873436749e+02 1.079429022996248455e-05
6.996498249124562108e+02 1.081883907125865467e-05
7.005502751375687467e+02 1.082795510198008573e-05
7.014507253626812826e+02 1.082350573584388024e-05
7.023511755877938185e+02 1.079515091057374159e-05
7.032516258129064681e+02 1.074701471990554377e-05
7.041520760380190040e+02 1.069189414825355976e-05
7.050525262631315400e+02 1.063868218772866535e-05
7.059529764882440759e+02 1.060494778203366257e-05
7.068534267133566118e+02 1.060861097630057595e-05
7.077538769384691477e+02 1.065999841551072219e-05
7.086543271635817973e+02 1.075843208104250919e-05
7.095547773886943332e+02 1.088366351705964402e-05
7.104552276138068692e+02 1.100524282161548835e-05
7.113556778389194051e+02 1.109810883412968769e-05
7.122561280640319410e+02 1.115828412065594608e-05
7.131565782891445906e+02 1.119109600103814326e-05
7.140570285142571265e+02 1.118264692375278650e-05
7.149574787393696624e+02 1.112034160732569255e-05
7.158579289644821984e+02 1.102800085039799752e-05
7.167583791895947343e+02 1.093698342193811986e-05
7.176588294147072702e+02 1.085142239008780269e-05
7.185592796398199198e+02 1.076899838552306583e-05
7.194597298649324557e+02 1.069825547594637221e-05
7.203601800900449916e+02 1.065460592790000938e-05
7.212606303151575275e+02 1.064478523531955339e-05
7.221610805402700635e+02 1.065760262829735265e-05
7.230615307653827131e+02 1.066551560854440636e-05
7.239619809904952490e+02 1.062881178140958538e-05
7.248624312156077849e+02 1.054319443676244215e-05
7.257628814407203208e+02 1.045912124229368170e-05
7.266633316658328567e+02 1.041512332625988722e-05
7.275637818909453927e+02 1.041447406803939078e-05
7.284642321160580423e+02 1.044741897989169153e-05
7.293646823411705782e+02 1.048567140164609064e-05
7.302651325662831141e+02 1.050646290831841645e-05
7.311655827913956500e+02 1.053245887989570767e-05
7.320660330165081859e+02 1.059537081824003393e-05
7.329664832416207219e+02 1.069374716400966569e-05
7.338669334667333715e+02 1.081242701717656156e-05
7.347673836918459074e+02 1.094346822833604070e-05
7.356678339169584433e+02 1.107208659385089141e-05
7.365682841420709792e+02 1.115975911050299228e-05
7.374687343671835151e+02 1.117283616520594060e-05
7.383691845922961647e+02 1.111120719108764161e-05
7.392696348174087007e+02 1.099929601456371570e-05
7.401700850425212366e+02 1.086859499421553839e-05
7.410705352676337725e+02 1.075106094112769101e-05
7.419709854927463084e+02 1.066709164906219297e-05
7.428714357178588443e+02 1.059687026368021272e-05
7.437718859429714939e+02 1.050329540725168043e-05
7.446723361680840299e+02 1.038487045401212873e-05
7.455727863931965658e+02 1.026854226417981157e-05
7.464732366183091017e+02 1.018643594789111895e-05
7.473736868434216376e+02 1.016934034215400435e-05
7.482741370685342872e+02 1.021043074727548343e-05
7.491745872936468231e+02 1.026912498584887944e-05
7.500750375187593590e+02 1.032770537295967375e-05
7.509754877438718950e+02 1.040032248214126837e-05
7.518759379689844309e+02 1.050773920792127012e-05
7.527763881940969668e+02 1.065672775690397078e-05
7.536768384192096164e+02 1.081617867913854170e-05
7.545772886443221523e+02 1.092645822928496762e-05
7.554777388694346882e+02 1.095559974116904786e-05
7.563781890945472242e+02 1.093150046474355459e-05
7.572786393196597601e+02 1.088811946534508861e-05
7.581790895447722960e+02 1.083426801951946403e-05
7.590795397698849456e+02 1.079213293970710705e-05
7.599799899949974815e+02 1.078945277139549459e-05
7.608804402201100174e+02 1.081882518025318232e-05
7.617808904452225534e+02 1.086145304334371340e-05
7.626813406703350893e+02 1.092906160818387112e-05
7.635817908954477389e+02 1.105302916253064370e-05
7.644822411205602748e+02 1.123376370416816692e-05
7.653826913456728107e+02 1.141921216129690478e-05
7.662831415707853466e+02 1.155054929199987831e-05
7.671835917958978825e+02 1.161168868216404356e-05
7.680840420210104185e+02 1.160586880521383553e-05
7.689844922461230681e+02 1.152247909673262229e-05
7.698849424712356040e+02 1.137657082444033738e-05
7.707853926963481399e+02 1.122207044758352580e-05
7.716858429214606758e+02 1.111443859581293667e-05
7.725862931465732117e+02 1.107937686833937022e-05
7.734867433716858613e+02 1.111361995026961434e-05
7.743871935967983973e+02 1.118187533597695386e-05
7.752876438219109332e+02 1.123107251938930892e-05
7.761880940470234691e+02 1.123300229018866760e-05
7.770885442721360050e+02 1.119701693143612818e-05
7.779889944972485409e+02 1.115656524185229435e-05
7.788894447223611905e+02 1.114413620988223575e-05
7.797898949474737265e+02 1.116314020299633927e-05
7.806903451725862624e+02 1.118623019924751119e-05
7.815907953976987983e+02 1.118845408179361850e-05
7.824912456228113342e+02 1.117746802822252465e-05
7.833916958479238701e+02 1.118160576982965001e-05
7.842921460730365197e+02 1.121043954670482919e-05
7.851925962981490557e+02 1.125037488781307789e-05
7.860930465232615916e+02 1.128184218995955849e-05
7.869934967483741275e+02 1.129112961253195918e-05
7.878939469734866634e+02 1.129190558722467240e-05
7.887943971985993130e+02 1.132325455286068962e-05
7.896948474237118489e+02 1.139166181022596031e-05
7.905952976488243849e+02 1.146678658145951239e-05
7.914957478739369208e+02 1.151877515205238244e-05
7.923961980990494567e+02 1.152289738120668447e-05
7.932966483241619926e+02 1.146760197574800736e-05
7.941970985492746422e+02 1.136134452878052363e-05
7.950975487743871781e+02 1.122397518099417251e-05
7.959979989994997140e+02 1.109332552493160749e-05
7.968984492246122500e+02 1.100872842862379270e-05
7.977988994497247859e+02 1.097544799078681716e-05
7.986993496748374355e+02 1.097586193375421434e-05
7.995997998999499714e+02 1.098167340366486539e-05
8.005002501250625073e+02 1.097940953535910537e-05
8.014007003501750432e+02 1.098857030840202766e-05
8.023011505752875792e+02 1.103270232847890504e-05
8.032016008004001151e+02 1.111132546012233554e-05
8.041020510255127647e+02 1.117997624876079052e-05
8.050025012506253006e+02 1.117325663640065766e-05
8.059029514757378365e+02 1.109836072572483156e-05
8.068034017008503724e+02 1.103335784766236810e-05
8.077038519259629084e+02 1.102433241312531196e-05
8.086043021510754443e+02 1.105498483605850846e-05
8.095047523761880939e+02 1.110468864751154751e-05
8.104052026013006298e+02 1.118228733151027844e-05
8.113056528264131657e+02 1.129229512411840077e-05
8.122061030515257016e+02 1.142504372796011756e-05
8.131065532766382375e+02 1.157041983494613322e-05
8.140070035017508872e+02 1.169553114658041513e-05
8.149074537268634231e+02 1.175127697423564219e-05
8.158079039519759590e+02 1.173518405419189941e-05
8.167083541770884949e+02 1.170026809187717546e-05
8.176088044022010308e+02 1.168352932359097890e-05
8.185092546273135667e+02 1.166938774782353387e-05
8.194097048524262163e+02 1.162715384007928703e-05
8.203101550775387523e+02 1.155256840992916656e-05
8.212106053026512882e+02 1.148298602140970307e-05
8.221110555277638241e+02 1.145583957128798797e-05
8.230115057528763600e+02 1.146408018868524519e-05
8.239119559779890096e+02 1.147189737336305771e-05
8.248124062031015455e+02 1.146895424262386056e-05
8.257128564282140815e+02 1.147887782135008488e-05
8.266133066533266174e+02 1.151824399801081729e-05
8.275137568784391533e+02 1.158307479940104709e-05
8.284142071035516892e+02 1.165801009841462857e-05
8.293146573286643388e+02 1.173366059623756203e-05
8.302151075537768747e+02 1.180647410056780856e-05
8.311155577788894107e+02 1.184719011293792167e-05
8.320160080040019466e+02 1.181905389512887542e-05
8.329164582291144825e+02 1.173526863174443813e-05
8.338169084542270184e+02 1.163839183257215407e-05
8.347173586793396680e+02 1.154942547642853133e-05
8.356178089044522039e+02 1.147592284946993714e-05
8.365182591295647399e+02 1.142892830826847614e-05
8.374187093546772758e+02 1.141169066189287209e-05
8.383191595797898117e+02 1.140524703519346754e-05
8.392196098049024613e+02 1.137861407504235855e-05
8.401200600300149972e+02 1.132272007821775715e-05
8.410205102551275331e+02 1.126053450031316271e-05
8.419209604802400690e+02 1.121617094236803594e-05
8.428214107053526050e+02 1.119019852489280340e-05
8.437218609304651409e+02 1.116688770205343533e-05
8.446223111555777905e+02 1.113889339155328070e-05
8.455227613806903264e+02 1.111251368712531186e-05
8.464232116058028623e+02 1.109774522608923324e-05
8.473236618309153982e+02 1.110714354888774974e-05
8.482241120560279342e+02 1.115218277543141634e-05
8.491245622811405838e+02 1.123830464008206768e-05
8.500250125062531197e+02 1.136384897798592734e-05
8.509254627313656556e+02 1.151373021280453083e-05
8.518259129564781915e+02 1.166209239517637529e-05
8.527263631815907274e+02 1.178071473873839295e-05
8.536268134067032634e+02 1.184119325440635443e-05
8.545272636318159130e+02 1.185034412565317648e-05
8.554277138569284489e+02 1.183705594356874417e-05
8.563281640820409848e+02 1.179417193059258522e-05
8.572286143071535207e+02 1.171127398478332386e-05
8.581290645322660566e+02 1.162581495545596109e-05
8.590295147573785925e+02 1.158816302279629163e-05
8.599299649824912422e+02 1.162740499480134225e-05
8.608304152076037781e+02 1.174744780596011020e-05
8.617308654327163140e+02 1.191453897975817164e-05
8.626313156578288499e+02 1.206413024247282273e-05
8.635317658829413858e+02 1.214136463819678965e-05
8.644322161080540354e+02 1.214792253545689665e-05
8.653326663331665713e+02 1.213494911475371165e-05
8.662331165582791073e+02 1.213010091311338843e-05
8.671335667833916432e+02 1.212309412688538416e-05
8.680340170085041791e+02 1.210825038072416803e-05
8.689344672336167150e+02 1.209184844930743727e-05
8.698349174587293646e+02 1.207508479982539066e-05
8.707353676838419005e+02 1.204449052812743017e-05
8.716358179089544365e+02 1.198631228055383798e-05
8.725362681340669724e+02 1.189652680714700753e-05
8.734367183591795083e+02 1.177753794165357463e-05
8.743371685842921579e+02 1.162978337511090071e-05
8.752376188094046938e+02 1.145677176370958354e-05
8.761380690345172297e+02 1.129040537699612129e-05
8.770385192596297657e+02 1.117109878187436352e-05
8.779389694847423016e+02 1.110326946644211229e-05
8.788394197098548375e+02 1.106579029715362791e-05
8.797398699349674871e+02 1.104050248841104828e-05
8.806403201600800230e+02 1.102972547713886557e-05
8.815407703851925589e+02 1.105762705403659511e-05
8.824412206103050949e+02 1.113004725862705199e-05
8.833416708354176308e+02 1.122191044651759141e-05
8.842421210605301667e+02 1.130595707603070111e-05
8.851425712856428163e+02 1.137143920452656015e-05
8.860430215107553522e+02 1.142320145323114199e-05
8.869434717358678881e+02 1.147980099087637858e-05
8.878439219609804240e+02 1.156179654217997623e-05
8.887443721860929600e+02 1.167424212130077693e-05
8.896448224112056096e+02 1.179930665637284977e-05
8.905452726363181455e+02 1.190538883022391899e-05
8.914457228614306814e+02 1.197791901755385787e-05
8.923461730865432173e+02 1.203814532982218396e-05
8.932466233116557532e+02 1.210441307068737388e-05
8.941470735367682892e+02 1.215819868347396777e-05
8.950475237618809388e+02 1.218710791222650473e-05
8.959479739869934747e+02 1.221980315246651598e-05
8.968484242121060106e+02 1.227570477958913569e-05
8.977488744372185465e+02 1.233452701047258738e-05
8.986493246623310824e+02 1.238248024568212394e-05
8.995497748874437320e+02 1.244437718628463680e-05
9.004502251125562680e+02 1.255898259136216631e-05
9.013506753376688039e+02 1.273161850109817396e-05
9.022511255627813398e+02 1.291400597288013457e-05
9.031515757878938757e+02 1.303783722039720408e-05
9.040520260130064116e+02 1.307581101847537032e-05
9.049524762381190612e+02 1.306758318890319085e-05
9.058529264632315972e+02 1.308691969216735410e-05
9.067533766883441331e+02 1.317553119167705849e-05
9.076538269134566690e+02 1.331425085455241495e-05
9.085542771385692049e+02 1.346091656085076083e-05
9.094547273636817408e+02 1.360018743962412998e-05
9.103551775887943904e+02 1.373372753561127143e-05
9.112556278139069263e+02 1.384872436068974859e-05
9.121560780390194623e+02 1.392871130171119381e-05
9.130565282641319982e+02 1.397173823231016756e-05
9.139569784892445341e+02 1.400196307007787115e-05
9.148574287143571837e+02 1.405322474285244183e-05
9.157578789394697196e+02 1.414138591985096751e-05
9.166583291645822555e+02 1.426199825103386321e-05
9.175587793896947915e+02 1.440669359522887954e-05
9.184592296148073274e+02 1.456053481538998196e-05
9.193596798399198633e+02 1.470506837739009678e-05
9.202601300650325129e+02 1.483129515326332505e-05
9.211605802901450488e+02 1.493397100654782421e-05
9.220610305152575847e+02 1.501960080827535825e-05
9.229614807403701207e+02 1.511109011721049243e-05
9.238619309654826566e+02 1.521951828084899802e-05
9.247623811905953062e+02 1.532359414778727664e-05
9.256628314157078421e+02 1.540238274225270930e-05
9.265632816408203780e+02 1.548362223106754086e-05
9.274637318659329139e+02 1.559486316076437752e-05
9.283641820910454499e+02 1.572333544790493551e-05
9.292646323161579858e+02 1.586189679112384344e-05
9.301650825412706354e+02 1.601706181460824091e-05
9.310655327663831713e+02 1.615955590093214107e-05
9.319659829914957072e+02 1.624077154295318386e-05
9.328664332166082431e+02 1.626548534274752938e-05
9.337668834417207790e+02 1.627881178406648729e-05
9.346673336668334287e+02 1.630616964890305894e-05
9.355677838919459646e+02 1.634357574556064528e-05
9.364682341170585005e+02 1.641115615979599370e-05
9.373686843421710364e+02 1.657309203818412368e-05
9.382691345672835723e+02 1.683821497177931371e-05
9.391695847923961082e+02 1.711382412420323391e-05
9.400700350175087578e+02 1.730559809267666352e-05
9.409704852426212938e+02 1.740981739519965101e-05
9.418709354677338297e+02 1.745865436777832119e-05
9.427713856928463656e+02 1.746351279468536167e-05
9.436718359179589015e+02 1.745676446147024138e-05
9.445722861430714374e+02 1.748251499987535921e-05
9.454727363681840870e+02 1.755850796942305580e-05
9.463731865932966230e+02 1.768498873477495731e-05
9.472736368184091589e+02 1.785267256739707750e-05
9.481740870435216948e+02 1.804637361584760324e-05
9.490745372686342307e+02 1.827307287435870752e-05
9.499749874937468803e+02 1.857064270361509343e-05
9.508754377188594162e+02 1.894147103261123823e-05
9.517758879439719522e+02 1.931494330894390504e-05
9.526763381690844881e+02 1.959205661703694384e-05
9.535767883941970240e+02 1.971847558297913950e-05
9.544772386193095599e+02 1.971222244245294643e-05
9.553776888444222095e+02 1.962724111189959096e-05
9.562781390695347454e+02 1.954046166430324139e-05
9.571785892946472813e+02 1.954372584995615856e-05
9.580790395197598173e+02 1.968266329764311801e-05
9.589794897448723532e+02 1.993483726291013858e-05
9.598799399699850028e+02 2.026362387824239103e-05
9.607803901950975387e+02 2.063763069496239391e-05
9.616808404202100746e+02 2.103388805092877329e-05
9.625812906453226105e+02 2.144680679439122767e-05
9.634817408704351465e+02 2.186993323057619086e-05
9.643821910955476824e+02 2.227342221309085282e-05
9.652826413206603320e+02 2.263807614149110790e-05
9.661830915457728679e+02 2.299061924029311159e-05
9.670835417708854038e+02 2.333811619871944173e-05
9.679839919959979397e+02 2.362701822886117560e-05
9.688844422211104757e+02 2.382219022195079740e-05
9.697848924462230116e+02 2.393411053646519917e-05
9.706853426713356612e+02 2.397210482923317466e-05
9.715857928964481971e+02 2.397880012274172652e-05
9.724862431215607330e+02 2.402620408726371072e-05
9.733866933466732689e+02 2.414689095042370662e-05
9.742871435717858049e+02 2.429956944520525922e-05
9.751875937968984545e+02 2.444499567542174134e-05
9.760880440220109904e+02 2.462913908214748232e-05
9.769884942471235263e+02 2.493396800945912314e-05
9.778889444722360622e+02 2.537046527656548116e-05
9.787893946973485981e+02 2.582863577795679825e-05
9.796898449224611340e+02 2.619820750627251259e-05
9.805902951475737837e+02 2.650767060063100015e-05
9.814907453726863196e+02 2.684448463728389609e-05
9.823911955977988555e+02 2.722098917385003857e-05
9.832916458229113914e+02 2.756884191792894582e-05
9.841920960480239273e+02 2.784353005410309520e-05
9.850925462731365769e+02 2.807227348562814099e-05
9.859929964982491128e+02 2.828171426351522850e-05
9.868934467233616488e+02 2.846145278663164495e-05
9.877938969484741847e+02 2.867428363832380650e-05
9.886943471735867206e+02 2.906120591415889805e-05
9.895947973986992565e+02 2.970027239074967928e-05
9.904952476238119061e+02 3.051275191890177475e-05
9.913956978489244420e+02 3.132907261372851789e-05
9.922961480740369780e+02 3.200577724169347368e-05
9.931965982991495139e+02 3.244660627672354806e-05
9.940970485242620498e+02 3.264227211302594966e-05
9.949974987493745857e+02 3.271753508246805149e-05
9.958979489744872353e+02 3.284506519218907802e-05
9.967983991995997712e+02 3.313531330233423112e-05
9.976988494247123072e+02 3.359703101429171773e-05
9.985992996498248431e+02 3.416838299094829067e-05
9.994997498749373790e+02 3.478223036804275705e-05
1.000400200100050029e+03 3.535493282114763068e-05
1.001300650325162565e+03 3.576542367721928501e-05
1.002201100550275100e+03 3.599935468162518724e-05
1.003101550775387636e+03 3.615305758567302370e-05
1.004002001000500172e+03 3.639696255653243384e-05
1.004902451225612708e+03 3.688591401860655283e-05
1.005802901450725358e+03 3.754865486324785752e-05
1.006703351675837894e+03 3.815795926165300132e-05
1.007603801900950430e+03 3.859955890170866039e-05
1.008504252126062966e+03 3.899686444437134718e-05
1.009404702351175501e+03 3.949943653030809905e-05
1.010305152576288151e+03 4.009141948008106859e-05
1.011205602801400687e+03 4.069456177083879132e-05
1.012106053026513223e+03 4.125480170271487014e-05
1.013006503251625759e+03 4.173414069588621316e-05
1.013906953476738295e+03 4.216780722512826447e-05
1.014807403701850831e+03 4.261094297666079983e-05
1.015707853926963480e+03 4.300272163186491314e-05
1.016608304152076016e+03 4.324956517900068533e-05
1.017508754377188552e+03 4.343174739307649625e-05
1.018409204602301088e+03 4.374847088140273305e-05
1.019309654827413624e+03 4.429046096417231445e-05
1.020210105052526160e+03 4.492523596990375377e-05
1.021110555277638809e+03 4.539296763916284949e-05
1.022011005502751345e+03 4.561967059995109626e-05
1.022911455727863881e+03 4.577714395255624760e-05
1.023811905952976417e+03 4.602823003507841560e-05
1.024712356178089067e+03 4.639901920359978428e-05
1.025612806403201603e+03 4.689185840935192369e-05
1.026513256628314139e+03 4.750763606847113897e-05
1.027413706853426675e+03 4.815166648722446648e-05
1.028314157078539210e+03 4.868553189302867075e-05
1.029214607303651746e+03 4.908469441068455950e-05
1.030115057528764282e+03 4.939228978948143728e-05
1.031015507753876818e+03 4.958972404369504456e-05
1.031915957978989354e+03 4.962799159673754576e-05
1.032816408204101890e+03 4.954745402863101504e-05
1.033716858429214653e+03 4.952994114642386871e-05
1.034617308654327189e+03 4.975176867136187769e-05
1.035517758879439725e+03 5.013751929205354933e-05
1.036418209104552261e+03 5.054438816114727683e-05
1.037318659329664797e+03 5.106594337314281377e-05
1.038219109554777333e+03 5.188305866308803654e-05
1.039119559779889869e+03 5.298898249258297887e-05
1.040020010005002405e+03 5.412086558395069015e-05
1.040920460230114941e+03 5.499474365898136840e-05
1.041820910455227477e+03 5.551502860893112130e-05
1.042721360680340013e+03 5.574863162856931470e-05
1.043621810905452776e+03 5.585474334455981296e-05
1.044522261130565312e+03 5.584215927899111102e-05
1.045422711355677848e+03 5.561220113577907515e-05
1.046323161580790384e+03 5.532237225967556233e-05
1.047223611805902920e+03 5.526941160743022331e-05
1.048124062031015455e+03 5.554342376297254080e-05
1.049024512256127991e+03 5.603244179106005589e-05
1.049924962481240527e+03 5.660593790785945466e-05
1.050825412706353063e+03 5.723002573376347415e-05
1.051725862931465599e+03 5.796332057935740610e-05
1.052626313156578135e+03 5.880972371825529937e-05
1.053526763381690898e+03 5.961226623640835802e-05
1.054427213606803434e+03 6.018909576952200826e-05
1.055327663831915970e+03 6.049515486049380911e-05
1.056228114057028506e+03 6.058124295931377484e-05
1.057128564282141042e+03 6.046805128577221691e-05
1.058029014507253578e+03 6.009008807486636538e-05
1.058929464732366114e+03 5.947164391782759429e-05
1.059829914957478650e+03 5.883467551180504123e-05
1.060730365182591186e+03 5.843040214342564369e-05
1.061630815407703722e+03 5.835684191806562033e-05
1.062531265632816257e+03 5.849144226018896032e-05
1.063431715857929021e+03 5.869780230195553408e-05
1.064332166083041557e+03 5.894229916447493023e-05
1.065232616308154093e+03 5.912721039268263053e-05
1.066133066533266629e+03 5.914807815779717982e-05
1.067033516758379164e+03 5.910300766392379630e-05
1.067933966983491700e+03 5.913770361634755206e-05
1.068834417208604236e+03 5.926861723701571934e-05
1.069734867433716772e+03 5.944384462388302057e-05
1.070635317658829308e+03 5.965322809683579821e-05
1.071535767883941844e+03 5.993506958262299677e-05
1.072436218109054380e+03 6.022717791737008415e-05
1.073336668334167143e+03 6.044884298105747080e-05
1.074237118559279679e+03 6.058077291854688647e-05
1.075137568784392215e+03 6.065295192346822748e-05
1.076038019009504751e+03 6.068737546703936698e-05
1.076938469234617287e+03 6.064308612608687544e-05
1.077838919459729823e+03 6.052159711567730265e-05
1.078739369684842359e+03 6.047739033883824160e-05
1.079639819909954895e+03 6.071876845578502512e-05
1.080540270135067431e+03 6.120674148410134218e-05
1.081440720360179967e+03 6.165523614454004398e-05
1.082341170585292502e+03 6.182249964471354790e-05
1.083241620810405038e+03 6.162996285272920370e-05
1.084142071035517802e+03 6.113399227728480651e-05
1.085042521260630338e+03 6.054380725173107050e-05
1.085942971485742873e+03 6.004965321035299575e-05
1.086843421710855409e+03 5.964073273201464211e-05
1.087743871935967945e+03 5.924239714587362787e-05
1.088644322161080481e+03 5.894828007284136199e-05
1.089544772386193017e+03 5.896848825454314844e-05
1.090445222611305553e+03 5.941535344744756518e-05
1.091345672836418089e+03 6.024491134919816865e-05
1.092246123061530625e+03 6.127774364260202191e-05
1.093146573286643161e+03 6.224860296686689730e-05
1.094047023511755924e+03 6.302013865153936311e-05
1.094947473736868460e+03 6.367864394711368614e-05
1.095847923961980996e+03 6.432822509236199744e-05
1.096748374187093532e+03 6.485820135242954310e-05
1.097648824412206068e+03 6.516036187417517656e-05
1.098549274637318604e+03 6.530958567976501562e-05
1.099449724862431140e+03 6.548930845809901129e-05
1.100350175087543676e+03 6.585968309302620233e-05
1.101250625312656211e+03 6.640927926717627252e-05
1.102151075537768747e+03 6.702429928025100000e-05
1.103051525762881283e+03 6.768412846464629418e-05
1.103951975987994047e+03 6.836238786580588656e-05
1.104852426213106583e+03 6.895586712348636990e-05
1.105752876438219118e+03 6.942178302050810437e-05
1.106653326663331654e+03 6.989450257837090679e-05
1.107553776888444190e+03 7.062000415063274359e-05
1.108454227113556726e+03 7.174247065627472827e-05
1.109354677338669262e+03 7.314288069831996150e-05
1.110255127563781798e+03 7.439253839481358343e-05
1.111155577788894334e+03 7.519869812191035878e-05
1.112056028014006870e+03 7.576865100175351857e-05
1.112956478239119406e+03 7.639220963149781236e-05
1.113856928464232169e+03 7.708005879283874855e-05
1.114757378689344705e+03 7.773831480625050536e-05
1.115657828914457241e+03 7.838035616308852889e-05
1.116558279139569777e+03 7.900884774340172223e-05
1.117458729364682313e+03 7.960365277520538025e-05
1.118359179589794849e+03 8.026776901277973429e-05
1.119259629814907385e+03 8.117365245838643526e-05
1.120160080040019920e+03 8.239953961212670549e-05
1.121060530265132456e+03 8.376708923435845439e-05
1.121960980490244992e+03 8.501831340737529288e-05
1.122861430715357528e+03 8.611848989756728742e-05
1.123761880940470292e+03 8.712569862139980207e-05
1.124662331165582827e+03 8.801080080463788544e-05
1.125562781390695363e+03 8.865509613018865908e-05
1.126463231615807899e+03 8.900363437192494612e-05
1.127363681840920435e+03 8.915174259679372291e-05
1.128264132066032971e+03 8.918034601586126431e-05
1.129164582291145507e+03 8.925680265154817283e-05
1.130065032516258043e+03 8.973034655883192117e-05
1.130965482741370579e+03 9.090801532155651438e-05
1.131865932966483115e+03 9.270428972410694113e-05
1.132766383191595651e+03 9.462233887272735388e-05
1.133666833416708187e+03 9.620570593620312086e-05
1.134567283641820950e+03 9.744170560509968974e-05
1.135467733866933486e+03 9.870625097541694886e-05
1.136368184092046022e+03 1.004201566155747476e-04
1.137268634317158558e+03 1.026755666822011119e-04
1.138169084542271094e+03 1.052866447321755739e-04
1.139069534767383630e+03 1.083327268849607430e-04
1.139969984992496165e+03 1.121105905261733800e-04
1.140870435217608701e+03 1.165519370468073922e-04
1.141770885442721237e+03 1.213746476835276129e-04
1.142671335667833773e+03 1.266663538434195408e-04
1.143571785892946309e+03 1.327557648554023733e-04
1.144472236118059072e+03 1.397094826084102799e-04
1.145372686343171608e+03 1.474691805139270284e-04
1.146273136568284144e+03 1.557844819284436965e-04
1.147173586793396680e+03 1.641509926958307347e-04
1.148074037018509216e+03 1.724788842698016667e-04
1.148974487243621752e+03 1.815699561620443393e-04
1.149874937468734288e+03 1.927052676047384097e-04
1.150775387693846824e+03 2.069589686917113240e-04
1.151675837918959360e+03 2.251204391009497597e-04
1.152576288144071896e+03 2.482159612370670289e-04
1.153476738369184432e+03 2.777769651094377117e-04
1.154377188594297195e+03 3.152663298840405214e-04
1.155277638819409731e+03 3.614569753016096186e-04
1.156178089044522267e+03 4.165555440909842204e-04
1.157078539269634803e+03 4.808733248804429030e-04
1.157978989494747339e+03 5.550026579956096823e-04
1.158879439719859874e+03 6.413108675707155423e-04
1.159779889944972410e+03 7.446564261010928934e-04
1.160680340170084946e+03 8.696131989887246781e-04
1.161580790395197482e+03 1.020113831766698712e-03
1.162481240620310018e+03 1.203456515767242383e-03
1.163381690845422554e+03 1.425707015366594515e-03
1.164282141070535317e+03 1.660769347609737743e-03
1.165182591295647853e+03 1.827519634533436533e-03
1.166083041520760389e+03 1.842741958698018061e-03
1.166983491745872925e+03 1.706689847176546529e-03
1.167883941970985461e+03 1.486513021817682497e-03
1.168784392196097997e+03 1.243803283046435604e-03
1.169684842421210533e+03 1.018474843216455976e-03
1.170585292646323069e+03 8.335120111547499868e-04
1.171485742871435605e+03 6.934461432821845258e-04
1.172386193096548141e+03 5.906540522831619849e-04
1.173286643321660677e+03 5.134677385681147427e-04
1.174187093546773440e+03 4.520186143822115497e-04
1.175087543771885976e+03 4.012790620246401894e-04
1.175987993996998512e+03 3.604862024815076119e-04
1.176888444222111048e+03 3.299380495681137173e-04
1.177788894447223583e+03 3.101773035690498026e-04
1.178689344672336119e+03 3.008518690367446759e-04
1.179589794897448655e+03 2.990879121576943390e-04
1.180490245122561191e+03 3.018415265905660325e-04
1.181390695347673727e+03 3.091768799412259860e-04
1.182291145572786263e+03 3.219062216740565022e-04
1.183191595797898799e+03 3.382174994609349903e-04
1.184092046023011562e+03 3.545562892008265470e-04
1.184992496248124098e+03 3.697356076508426172e-04
1.185892946473236634e+03 3.884248015093489151e-04
1.186793396698349170e+03 4.172362878972304435e-04
1.187693846923461706e+03 4.576716137758547829e-04
1.188594297148574242e+03 5.055924871162897081e-04
1.189494747373686778e+03 5.521892838834500808e-04
1.190395197598799314e+03 5.850431507449895593e-04
1.191295647823911850e+03 5.939415116005260058e-04
1.192196098049024386e+03 5.754350823934201121e-04
1.193096548274136921e+03 5.332275736771115073e-04
1.193996998499249457e+03 4.775820478764976297e-04
1.194897448724362221e+03 4.220505314004947741e-04
1.195797898949474757e+03 3.748745246787517013e-04
1.196698349174587293e+03 3.355304758614624928e-04
1.197598799399699828e+03 3.012373407182531880e-04
1.198499249624812364e+03 2.720858774868800678e-04
1.199399699849924900e+03 2.495874016137868850e-04
1.200300150075037436e+03 2.331688561571153512e-04
1.201200600300149972e+03 2.204384964182786550e-04
1.202101050525262508e+03 2.097909226985306271e-04
1.203001500750375044e+03 2.007832992585231323e-04
1.203901950975487580e+03 1.925504255832240620e-04
1.204802401200600343e+03 1.842207935488511636e-04
1.205702851425712879e+03 1.763812551295740197e-04
1.206603301650825415e+03 1.703918928420409303e-04
1.207503751875937951e+03 1.666798904221202947e-04
1.208404202101050487e+03 1.644852029741704249e-04
1.209304652326163023e+03 1.626725614018480952e-04
1.210205102551275559e+03 1.606826883092864569e-04
1.211105552776388095e+03 1.588465878661010980e-04
1.212006003001500630e+03 1.582125486574299225e-04
1.212906453226613166e+03 1.600061004432524830e-04
1.213806903451725702e+03 1.651612637092465916e-04
1.214707353676838466e+03 1.731760691075200640e-04
1.215607803901951002e+03 1.809624311848588205e-04
1.216508254127063537e+03 1.835992385202672055e-04
1.217408704352176073e+03 1.787531128736553291e-04
1.218309154577288609e+03 1.694854482698250489e-04
1.219209604802401145e+03 1.594368746809970885e-04
1.220110055027513681e+03 1.504283934325700281e-04
1.221010505252626217e+03 1.434646668543127033e-04
1.221910955477738753e+03 1.383761662477751267e-04
1.222811405702851289e+03 1.341850347948368694e-04
1.223711855927963825e+03 1.302258819188770189e-04
1.224612306153076588e+03 1.266812644162150405e-04
1.225512756378189124e+03 1.243481741952751302e-04
1.226413206603301660e+03 1.236572073274902982e-04
1.227313656828414196e+03 1.239490791298442128e-04
1.228214107053526732e+03 1.243275864347385289e-04
1.229114557278639268e+03 1.251697487487211534e-04
1.230015007503751804e+03 1.276545679952773525e-04
1.230915457728864340e+03 1.322967936909585592e-04
1.231815907953976875e+03 1.384378859937542092e-04
1.232716358179089411e+03 1.447206143595149315e-04
1.233616808404201947e+03 1.505041580692016701e-04
1.234517258629314711e+03 1.563004697055909954e-04
1.235417708854427246e+03 1.620998534566295540e-04
1.236318159079539782e+03 1.671631776980066848e-04
1.237218609304652318e+03 1.714868956269877120e-04
1.238119059529764854e+03 1.756480882317480621e-04
1.239019509754877390e+03 1.798320164532443612e-04
1.239919959979989926e+03 1.839868472605674739e-04
1.240820410205102462e+03 1.879985577374580362e-04
1.241720860430214998e+03 1.916961310056223547e-04
1.242621310655327534e+03 1.951434651709979106e-04
1.243521760880440070e+03 1.985505224851663261e-04
1.244422211105552606e+03 2.020976755347076131e-04
1.245322661330665369e+03 2.060497161235769203e-04
1.246223111555777905e+03 2.108603283013572340e-04
1.247123561780890441e+03 2.167995795803346216e-04
1.248024012006002977e+03 2.234365129568060529e-04
1.248924462231115513e+03 2.298642596483121622e-04
1.249824912456228049e+03 2.350105830221244085e-04
1.250725362681340584e+03 2.382841468150954922e-04
1.251625812906453120e+03 2.397276684890156792e-04
1.252526263131565656e+03 2.400550740257818198e-04
1.253426713356678192e+03 2.407537977530265242e-04
1.254327163581790728e+03 2.429406359913228401e-04
1.255227613806903491e+03 2.462946191780801563e-04
1.256128064032016027e+03 2.496194729263964728e-04
1.257028514257128563e+03 2.520779096218279665e-04
1.257928964482241099e+03 2.536875562755913443e-04
1.258829414707353635e+03 2.551481612210472179e-04
1.259729864932466171e+03 2.575949883157495389e-04
1.260630315157578707e+03 2.621448097166642318e-04
1.261530765382691243e+03 2.695794058849869585e-04
1.262431215607803779e+03 2.803472799713177402e-04
1.263331665832916315e+03 2.948328571863097517e-04
1.264232116058028851e+03 3.135191179383057733e-04
1.265132566283141614e+03 3.364888930757011952e-04
1.266033016508254150e+03 3.624963075906929540e-04
1.266933466733366686e+03 3.882468006930264444e-04
1.267833916958479222e+03 4.092955855531653126e-04
1.268734367183591758e+03 4.228136964613835925e-04
1.269634817408704293e+03 4.290509597800220534e-04
1.270535267633816829e+03 4.306615193934639906e-04
1.271435717858929365e+03 4.312549104614534640e-04
1.272336168084041901e+03 4.330348837477035993e-04
1.273236618309154437e+03 4.362747824014480500e-04
1.274137068534266973e+03 4.414645232976036277e-04
1.275037518759379736e+03 4.500858609632644655e-04
1.275937968984492272e+03 4.626280830145475232e-04
1.276838419209604808e+03 4.776751181831557494e-04
1.277738869434717344e+03 4.935524375171064949e-04
1.278639319659829880e+03 5.093338716566534830e-04
1.279539769884942416e+03 5.241605537331975014e-04
1.280440220110054952e+03 5.370512270025073727e-04
1.281340670335167488e+03 5.475067717023694453e-04
1.282241120560280024e+03 5.558736636403465835e-04
1.283141570785392560e+03 5.629552835623283149e-04
1.284042021010505096e+03 5.694969486825119526e-04
1.284942471235617859e+03 5.759943312413987049e-04
1.285842921460730395e+03 5.828372614270323692e-04
1.286743371685842931e+03 5.897094662572254301e-04
1.287643821910955467e+03 5.954874225246398547e-04
1.288544272136068003e+03 5.991061253938861041e-04
1.289444722361180538e+03 6.008819225327134651e-04
1.290345172586293074e+03 6.024926244283129208e-04
1.291245622811405610e+03 6.053802372134530711e-04
1.292146073036518146e+03 6.102360362702001712e-04
1.293046523261630682e+03 6.170106907575637544e-04
1.293946973486743218e+03 6.247328734697966219e-04
1.294847423711855754e+03 6.317831763056888173e-04
1.295747873936968517e+03 6.369842287106071465e-04
1.296648324162081053e+03 6.400703218423120944e-04
1.297548774387193589e+03 6.413833226271792396e-04
1.298449224612306125e+03 6.415629130318519814e-04
1.299349674837418661e+03 6.412158483038333124e-04
1.300250125062531197e+03 6.403811113926032375e-04
1.301150575287643733e+03 6.390583971600915635e-04
1.302051025512756269e+03 6.380734833476857295e-04
1.302951475737868805e+03 6.383415059253075676e-04
1.303851925962981340e+03 6.402531536629574912e-04
1.304752376188093876e+03 6.437360985632980441e-04
1.305652826413206640e+03 6.487773546613956419e-04
1.306553276638319176e+03 6.556755493833977015e-04
1.307453726863431712e+03 6.642626346260208873e-04
1.308354177088544247e+03 6.735631729457306144e-04
1.309254627313656783e+03 6.825298677920631132e-04
1.310155077538769319e+03 6.910531708261463723e-04
1.311055527763881855e+03 6.997412780571141524e-04
1.311955977988994391e+03 7.090689153716980180e-04
1.312856428214106927e+03 7.192044569714464491e-04
1.313756878439219463e+03 7.301087751730052497e-04
1.314657328664331999e+03 7.417136563139684145e-04
1.315557778889444762e+03 7.542797558912284683e-04
1.316458229114557298e+03 7.688996212864707006e-04
1.317358679339669834e+03 7.866857230684386410e-04
1.318259129564782370e+03 8.070648815223055873e-04
1.319159579789894906e+03 8.283574439941696066e-04
1.320060030015007442e+03 8.494998713850310593e-04
1.320960480240119978e+03 8.699915058496386243e-04
1.321860930465232514e+03 8.894350642464888233e-04
1.322761380690345050e+03 9.077619438219190415e-04
1.323661830915457585e+03 9.255477140595775058e-04
1.324562281140570121e+03 9.442941768679526116e-04
1.325462731365682885e+03 9.653619744955208200e-04
1.326363181590795421e+03 9.882085314448433959e-04
1.327263631815907956e+03 1.011974831136676096e-03
1.328164082041020492e+03 1.038167733947333461e-03
1.329064532266133028e+03 1.068831311611128081e-03
1.329964982491245564e+03 1.102983866497027213e-03
1.330865432716358100e+03 1.137240265031744680e-03
1.331765882941470636e+03 1.168755011464502796e-03
1.332666333166583172e+03 1.197874686278565040e-03
1.333566783391695708e+03 1.227678039756984005e-03
1.334467233616808244e+03 1.260705479496627285e-03
1.335367683841921007e+03 1.298445766163801524e-03
1.336268134067033543e+03 1.341664769118832215e-03
1.337168584292146079e+03 1.389907757089299577e-03
1.338069034517258615e+03 1.442188807578490689e-03
1.338969484742371151e+03 1.496961623964932018e-03
1.339869934967483687e+03 1.551322663719783721e-03
1.340770385192596223e+03 1.604577840046820126e-03
1.341670835417708759e+03 1.660505283072860562e-03
1.342571285642821294e+03 1.720903467522421140e-03
1.343471735867933830e+03 1.782840980716613984e-03
1.344372186093046366e+03 1.844080062207358083e-03
1.345272636318158902e+03 1.907182712103564805e-03
1.346173086543271666e+03 1.979044485213575597e-03
1.347073536768384201e+03 2.065042958857956582e-03
1.347973986993496737e+03 2.162510748050925323e-03
1.348874437218609273e+03 2.261727461849909280e-03
1.349774887443721809e+03 2.355649367782091698e-03
1.350675337668834345e+03 2.445810012998075357e-03
1.351575787893946881e+03 2.538138874715246095e-03
1.352476238119059417e+03 2.634761279244703536e-03
1.353376688344171953e+03 2.732007372655439331e-03
1.354277138569284489e+03 2.827517828551848970e-03
1.355177588794397025e+03 2.924585961347825509e-03
1.356078039019509788e+03 3.028713112956176682e-03
1.356978489244622324e+03 3.141528095848213683e-03
1.357878939469734860e+03 3.263838107438586916e-03
1.358779389694847396e+03 3.396078287766894372e-03
1.359679839919959932e+03 3.533702958016932821e-03
1.360580290145072468e+03 3.671139442110066351e-03
1.361480740370185003e+03 3.808709946250673703e-03
1.362381190595297539e+03 3.954248710197926127e-03
1.363281640820410075e+03 4.113254403754989727e-03
1.364182091045522611e+03 4.284086202552088267e-03
1.365082541270635147e+03 4.466853249416648589e-03
1.365982991495747910e+03 4.668561400372307248e-03
1.366883441720860446e+03 4.896005478605425405e-03
1.367783891945972982e+03 5.148129567452952235e-03
1.368684342171085518e+03 5.420435259873707980e-03
1.369584792396198054e+03 5.715447463747016718e-03
1.370485242621310590e+03 6.037011715252311485e-03
1.371385692846423126e+03 6.371975162328367102e-03
1.372286143071535662e+03 6.689903729703634838e-03
1.373186593296648198e+03 6.974697763141049674e-03
1.374087043521760734e+03 7.240504918291439454e-03
1.374987493746873270e+03 7.509386130244914519e-03
1.375887943971986033e+03 7.797466328541282146e-03
1.376788394197098569e+03 8.121041878053932364e-03
1.377688844422211105e+03 8.486483438128635329e-03
1.378589294647323641e+03 8.883768901290315170e-03
1.379489744872436177e+03 9.303889118021539673e-03
1.380390195097548713e+03 9.750822561994474530e-03
1.381290645322661248e+03 1.024492863459108317e-02
1.382191095547773784e+03 1.080479826395720419e-02
1.383091545772886320e+03 1.143579928486821058e-02
1.383991995997998856e+03 1.214117262644177735e-02
1.384892446223111392e+03 1.293014967494835431e-02
1.385792896448224155e+03 1.382105846710771774e-02
1.386693346673336691e+03 1.482474206782641649e-02
1.387593796898449227e+03 1.594162835499672234e-02
1.388494247123561763e+03 1.719258570313592430e-02
1.389394697348674299e+03 1.864326626443638460e-02
1.390295147573786835e+03 2.034802583253177144e-02
1.391195597798899371e+03 2.228091422151473600e-02
1.392096048024011907e+03 2.440249586727035944e-02
1.392996498249124443e+03 2.675243110018423257e-02
1.393896948474236979e+03 2.941283753793157846e-02
1.394797398699349515e+03 3.245335594831359749e-02
1.395697848924462278e+03 3.593785609762950584e-02
1.396598299149574814e+03 3.991403027246216012e-02
1.397498749374687350e+03 4.437766427165282940e-02
1.398399199599799886e+03 4.926008149770424310e-02
1.399299649824912422e+03 5.438973443556752163e-02
1.400200100050024957e+03 5.933742471090107384e-02
1.401100550275137493e+03 6.337130914613407773e-02
1.402001000500250029e+03 6.569835682556487977e-02
1.402901450725362565e+03 6.585667354698956921e-02
1.403801900950475101e+03 6.390165763826639866e-02
1.404702351175587637e+03 6.037603147538181392e-02
1.405602801400700173e+03 5.611450056079740623e-02
1.406503251625812936e+03 5.186509515696666878e-02
1.407403701850925472e+03 4.796904170224604996e-02
1.408304152076038008e+03 4.440700480705525588e-02
1.409204602301150544e+03 4.104063823632475572e-02
1.410105052526263080e+03 3.787790571309505167e-02
1.411005502751375616e+03 3.510980594215170475e-02
1.411905952976488152e+03 3.281504888059684488e-02
1.412806403201600688e+03 3.083072839089139039e-02
1.413706853426713224e+03 2.896664981075176143e-02
1.414607303651825760e+03 2.719485349162732712e-02
1.415507753876938295e+03 2.554948426802035322e-02
1.416408204102051059e+03 2.398546210221278244e-02
1.417308654327163595e+03 2.242058971338434931e-02
1.418209104552276131e+03 2.084362552878410782e-02
1.419109554777388666e+03 1.931250871850701337e-02
1.420010005002501202e+03 1.785919040912349598e-02
1.420910455227613738e+03 1.646645945652093143e-02
1.421810905452726274e+03 1.515847844593636723e-02
1.422711355677838810e+03 1.400039164112959651e-02
1.423611805902951346e+03 1.301556810040701770e-02
1.424512256128063882e+03 1.214988075367428276e-02
1.425412706353176418e+03 1.132890823069380125e-02
1.426313156578289181e+03 1.053064921623221226e-02
1.427213606803401717e+03 9.785013546264783799e-03
1.428114057028514253e+03 9.130900764051248439e-03
1.429014507253626789e+03 8.581631983523839782e-03
1.429914957478739325e+03 8.112978278537059593e-03
1.430815407703851861e+03 7.677675272799876563e-03
1.431715857928964397e+03 7.251055911451063235e-03
1.432616308154076933e+03 6.844449633096871648e-03
1.433516758379189469e+03 6.463627016699849404e-03
1.434417208604302004e+03 6.107094041424050365e-03
1.435317658829414540e+03 5.780252319557265678e-03
1.436218109054527304e+03 5.485079174966702061e-03
1.437118559279639840e+03 5.219799991202313597e-03
1.438019009504752376e+03 4.986195558531123818e-03
1.438919459729864911e+03 4.781876328636292667e-03
1.439819909954977447e+03 4.600604256768910279e-03
1.440720360180089983e+03 4.431193535365102014e-03
1.441620810405202519e+03 4.252913063285866657e-03
1.442521260630315055e+03 4.057144539842309251e-03
1.443421710855427591e+03 3.857001899986237537e-03
1.444322161080540127e+03 3.673932922336266803e-03
1.445222611305652663e+03 3.518127151996953451e-03
1.446123061530765426e+03 3.381964137624320250e-03
1.447023511755877962e+03 3.256232868764221983e-03
1.447923961980990498e+03 3.137278197093129866e-03
1.448824412206103034e+03 3.021501048501545449e-03
1.449724862431215570e+03 2.909315552196515067e-03
1.450625312656328106e+03 2.801745736250081317e-03
1.451525762881440642e+03 2.695540460549696211e-03
1.452426213106553178e+03 2.589956197169884615e-03
1.453326663331665713e+03 2.486449311383338336e-03
1.454227113556778249e+03 2.385590881110203829e-03
1.455127563781890785e+03 2.292584528555235892e-03
1.456028014007003321e+03 2.219968436971885006e-03
1.456928464232116085e+03 2.176052286768032432e-03
1.457828914457228620e+03 2.154352937955685346e-03
1.458729364682341156e+03 2.135539378848486970e-03
1.459629814907453692e+03 2.104222642919752369e-03
1.460530265132566228e+03 2.061952820897029314e-03
1.461430715357678764e+03 2.018627439842669933e-03
1.462331165582791300e+03 1.978397451735751465e-03
1.463231615807903836e+03 1.936303832673453521e-03
1.464132066033016372e+03 1.885768458674345806e-03
1.465032516258128908e+03 1.824583545209193395e-03
1.465932966483241444e+03 1.752243774575359915e-03
1.466833416708354207e+03 1.672473132724986876e-03
1.467733866933466743e+03 1.592347078071092376e-03
1.468634317158579279e+03 1.517589126827855904e-03
1.469534767383691815e+03 1.453717063491357341e-03
1.470435217608804351e+03 1.402163821949699166e-03
1.471335667833916887e+03 1.359352309193532842e-03
1.472236118059029423e+03 1.321684754438584141e-03
1.473136568284141958e+03 1.287743130659458127e-03
1.474037018509254494e+03 1.256463670442179836e-03
1.474937468734367030e+03 1.226233784075263884e-03
1.475837918959479566e+03 1.195896426101610704e-03
1.476738369184592329e+03 1.164949987085102867e-03
1.477638819409704865e+03 1.133431667052945931e-03
1.478539269634817401e+03 1.101654025823588364e-03
1.479439719859929937e+03 1.069083484962111670e-03
1.480340170085042473e+03 1.035004287399891821e-03
1.481240620310155009e+03 1.001438475089513197e-03
1.482141070535267545e+03 9.709395830887492494e-04
1.483041520760380081e+03 9.445607405081057851e-04
1.483941970985492617e+03 9.215066153784580395e-04
1.484842421210605153e+03 8.985977179409556032e-04
1.485742871435717689e+03 8.737760792048176626e-04
1.486643321660830452e+03 8.482198622671672725e-04
1.487543771885942988e+03 8.233675055110437025e-04
1.488444222111055524e+03 7.994055319091655787e-04
1.489344672336168060e+03 7.760687829668577817e-04
1.490245122561280596e+03 7.535152338100539575e-04
1.491145572786393132e+03 7.323968424749377525e-04
1.492046023011505667e+03 7.139775013615217141e-04
1.492946473236618203e+03 6.989495975299684629e-04
1.493846923461730739e+03 6.867218033641063046e-04
1.494747373686843275e+03 6.761924217700937241e-04
1.495647823911955811e+03 6.659025605215183148e-04
1.496548274137068574e+03 6.550338059100091525e-04
1.497448724362181110e+03 6.439699815651378587e-04
1.498349174587293646e+03 6.329366571780828529e-04
1.499249624812406182e+03 6.212005054246309962e-04
1.500150075037518718e+03 6.081515437250927534e-04
1.501050525262631254e+03 5.940142707755426349e-04
1.501950975487743790e+03 5.798823957796812607e-04
1.502851425712856326e+03 5.679511507340428934e-04
1.503751875937968862e+03 5.601030144549225568e-04
1.504652326163081398e+03 5.558219593318447201e-04
1.505552776388193934e+03 5.525574800656972256e-04
1.506453226613306470e+03 5.477111497821890267e-04
1.507353676838419233e+03 5.402279505783954064e-04
1.508254127063531769e+03 5.313562601357109047e-04
1.509154577288644305e+03 5.234198025323776949e-04
1.510055027513756841e+03 5.173344267980405304e-04
1.510955477738869376e+03 5.122857851678834203e-04
1.511855927963981912e+03 5.070457786937026395e-04
1.512756378189094448e+03 5.008827009086986139e-04
1.513656828414206984e+03 4.943670503898715341e-04
1.514557278639319520e+03 4.892180186159680649e-04
1.515457728864432056e+03 4.868628414505234234e-04
1.516358179089544592e+03 4.875880189217391835e-04
1.517258629314657355e+03 4.907223242344580438e-04
1.518159079539769891e+03 4.945796394933210183e-04
1.519059529764882427e+03 4.968265114098199993e-04
1.519959979989994963e+03 4.962112444949312281e-04
1.520860430215107499e+03 4.933446679209647912e-04
1.521760880440220035e+03 4.894168103449724437e-04
1.522661330665332571e+03 4.855745540001386884e-04
1.523561780890445107e+03 4.826824945309817145e-04
1.524462231115557643e+03 4.805822394915042249e-04
1.525362681340670179e+03 4.786607151359492662e-04
1.526263131565782714e+03 4.764214009270307084e-04
1.527163581790895478e+03 4.737189387331806867e-04
1.528064032016008014e+03 4.714561067992765423e-04
1.528964482241120550e+03 4.706175476643039324e-04
1.529864932466233086e+03 4.708133843483886124e-04
1.530765382691345621e+03 4.702801652992655984e-04
1.531665832916458157e+03 4.675858892726233833e-04
1.532566283141570693e+03 4.632828036521939195e-04
1.533466733366683229e+03 4.588056173082326978e-04
1.534367183591795765e+03 4.548561949196211441e-04
1.535267633816908301e+03 4.521831392169424349e-04
1.536168084042020837e+03 4.517060802106995340e-04
1.537068534267133600e+03 4.530618933329347980e-04
1.537968984492246136e+03 4.544789902014920039e-04
1.538869434717358672e+03 4.543106483129116346e-04
1.539769884942471208e+03 4.525118377676609670e-04
1.540670335167583744e+03 4.504735177215445714e-04
1.541570785392696280e+03 4.489965934675010624e-04
1.542471235617808816e+03 4.479230813938134834e-04
1.543371685842921352e+03 4.472939928884133343e-04
1.544272136068033888e+03 4.481048762115943875e-04
1.545172586293146423e+03 4.507873082463340216e-04
1.546073036518258959e+03 4.538785845716163808e-04
1.546973486743371723e+03 4.557273900575041546e-04
1.547873936968484259e+03 4.558368247230919473e-04
1.548774387193596795e+03 4.547304800606368912e-04
1.549674837418709330e+03 4.532897275343410973e-04
1.550575287643821866e+03 4.519761370629395408e-04
1.551475737868934402e+03 4.504644176564509572e-04
1.552376188094046938e+03 4.489284234697269718e-04
1.553276638319159474e+03 4.484476644376729970e-04
1.554177088544272010e+03 4.492485025180598980e-04
1.555077538769384546e+03 4.496950589445165413e-04
1.555977988994497082e+03 4.474878070741131002e-04
1.556878439219609618e+03 4.424569134606776838e-04
1.557778889444722381e+03 4.361192590554069577e-04
1.558679339669834917e+03 4.302943043382235241e-04
1.559579789894947453e+03 4.269175890793936281e-04
1.560480240120059989e+03 4.267837844314828467e-04
1.561380690345172525e+03 4.296293174941802004e-04
1.562281140570285061e+03 4.349858280160161955e-04
1.563181590795397597e+03 4.417064386632302405e-04
1.564082041020510133e+03 4.476718036858194638e-04
1.564982491245622668e+03 4.518931960345091872e-04
1.565882941470735204e+03 4.557984589137714475e-04
1.566783391695847740e+03 4.611531606180965760e-04
1.567683841920960504e+03 4.689710971557623778e-04
1.568584292146073039e+03 4.807903611501935549e-04
1.569484742371185575e+03 4.987927389465789119e-04
1.570385192596298111e+03 5.246093003850398583e-04
1.571285642821410647e+03 5.584386505661448688e-04
1.572186093046523183e+03 6.002519752597443780e-04
1.573086543271635719e+03 6.513968192911404054e-04
1.573986993496748255e+03 7.140327530854620160e-04
1.574887443721860791e+03 7.875366315102202324e-04
1.575787893946973327e+03 8.634559375646686484e-04
1.576688344172085863e+03 9.262488250277891005e-04
1.577588794397198626e+03 9.541749769922969757e-04
1.578489244622311162e+03 9.220433206426296296e-04
1.579389694847423698e+03 8.207989217973774400e-04
1.580290145072536234e+03 6.789285730467875144e-04
1.581190595297648770e+03 5.403825052420424893e-04
1.582091045522761306e+03 4.282530720413591733e-04
1.582991495747873842e+03 3.445794818696180147e-04
1.583891945972986377e+03 2.837434830523315166e-04
1.584792396198098913e+03 2.393906343180332629e-04
1.585692846423211449e+03 2.065092368316387569e-04
1.586593296648323985e+03 1.815972655513470552e-04
1.587493746873436749e+03 1.622996389874472093e-04
1.588394197098549284e+03 1.470360539800108295e-04
1.589294647323661820e+03 1.347322788357411280e-04
1.590195097548774356e+03 1.246443974410542507e-04
1.591095547773886892e+03 1.162468295855385137e-04
1.591995997998999428e+03 1.091608916593927563e-04
1.592896448224111964e+03 1.031086445568941891e-04
1.593796898449224500e+03 9.788256676087947515e-05
1.594697348674337036e+03 9.332525674226606989e-05
1.595597798899449572e+03 8.931559659242336603e-05
1.596498249124562108e+03 8.575915230251115518e-05
1.597398699349674871e+03 8.258140154194333268e-05
1.598299149574787407e+03 7.972288103955842749e-05
1.599199599799899943e+03 7.713565857296653236e-05
1.600100050025012479e+03 7.478073312031960449e-05
1.601000500250125015e+03 7.262609480290195747e-05
1.601900950475237551e+03 7.064526019688557488e-05
1.602801400700350086e+03 6.881615447425531355e-05
1.603701850925462622e+03 6.712024958068526885e-05
1.604602301150575158e+03 6.554189351338425454e-05
1.605502751375687694e+03 6.406778370555473855e-05
1.606403201600800230e+03 6.268655013224020713e-05
1.607303651825912766e+03 6.138842271553740797e-05
1.608204102051025529e+03 6.016496404974304554e-05
1.609104552276138065e+03 5.900885314611990025e-05
1.610005002501250601e+03 5.791370932884860076e-05
1.610905452726363137e+03 5.687394795421648247e-05
1.611805902951475673e+03 5.588466152229280446e-05
1.612706353176588209e+03 5.494152117888763235e-05
1.613606803401700745e+03 5.404069468980706028e-05
1.614507253626813281e+03 5.317877779838727951e-05
1.615407703851925817e+03 5.235273651565642915e-05
1.616308154077038353e+03 5.155985838734563167e-05
1.617208604302150889e+03 5.079771116809634463e-05
1.618109054527263652e+03 5.006410763629872562e-05
1.619009504752376188e+03 4.935707552232622159e-05
1.619909954977488724e+03 4.867483171293922410e-05
1.620810405202601260e+03 4.801576004630299426e-05
1.621710855427713796e+03 4.737839213373090853e-05
1.622611305652826331e+03 4.676139074236962119e-05
1.623511755877938867e+03 4.616353535247060447e-05
1.624412206103051403e+03 4.558370956753686893e-05
1.625312656328163939e+03 4.502089010843166289e-05
1.626213106553276475e+03 4.447413716586160360e-05
1.627113556778389011e+03 4.394258592132416132e-05
1.628014007003501774e+03 4.342543907611010414e-05
1.628914457228614310e+03 4.292196025243481616e-05
1.629814907453726846e+03 4.243146815115146517e-05
1.630715357678839382e+03 4.195333136753198863e-05
1.631615807903951918e+03 4.148696378088561330e-05
1.632516258129064454e+03 4.103182044578493977e-05
1.633416708354176990e+03 4.058739392280487373e-05
1.634317158579289526e+03 4.015321099523709017e-05
1.635217608804402062e+03 3.972882972553034425e-05
1.636118059029514598e+03 3.931383681137361376e-05
1.637018509254627133e+03 3.890784520662566795e-05
1.637918959479739897e+03 3.851049197680340112e-05
1.638819409704852433e+03 3.812143636271151124e-05
1.639719859929964969e+03 3.774035802912013940e-05
1.640620310155077505e+03 3.736695547825495472e-05
1.641520760380190040e+03 3.700094461035516422e-05
1.642421210605302576e+03 3.664205741567077516e-05
1.643321660830415112e+03 3.629004078414671666e-05
1.644222111055527648e+03 3.594465542064632468e-05
1.645122561280640184e+03 3.560567485496572167e-05
1.646023011505752720e+03 3.527288453712842882e-05
1.646923461730865256e+03 3.494608100951048803e-05
1.647823911955978019e+03 3.462507114828781740e-05
1.648724362181090555e+03 3.430967146752486509e-05
1.649624812406203091e+03 3.399970747993768882e-05
1.650525262631315627e+03 3.369501310901355773e-05
1.651425712856428163e+03 3.339543014772009048e-05
1.652326163081540699e+03 3.310080775954050763e-05
1.653226613306653235e+03 3.281100201800908622e-05
1.654127063531765771e+03 3.252587548130673101e-05
1.655027513756878307e+03 3.224529679882737741e-05
1.655927963981990843e+03 3.196914034692873168e-05
1.656828414207103378e+03 3.169728589135660713e-05
1.657728864432216142e+03 3.142961827407305889e-05
1.658629314657328678e+03 3.116602712244187864e-05
1.659529764882441214e+03 3.090640657890997615e-05
1.660430215107553749e+03 3.065065504950513676e-05
1.661330665332666285e+03 3.039867496962553992e-05
1.662231115557778821e+03 3.015037258573087780e-05
1.663131565782891357e+03 2.990565775167726084e-05
1.664032016008003893e+03 2.966444373854567319e-05
1.664932466233116429e+03 2.942664705692075197e-05
1.665832916458228965e+03 2.919218729066469476e-05
1.666733366683341501e+03 2.896098694131221481e-05
1.667633816908454037e+03 2.873297128229622841e-05
1.668534267133566800e+03 2.850806822226870086e-05
1.669434717358679336e+03 2.828620817685347836e-05
1.670335167583791872e+03 2.806732394821911453e-05
1.671235617808904408e+03 2.785135061190702188e-05
1.672136068034016944e+03 2.763822541040484489e-05
1.673036518259129480e+03 2.742788765298383820e-05
1.673936968484242016e+03 2.722027862137219340e-05
1.674837418709354552e+03 2.701534148085571932e-05
1.675737868934467087e+03 2.681302119644126520e-05
1.676638319159579623e+03 2.661326445373783973e-05
1.677538769384692159e+03 2.641601958424265366e-05
1.678439219609804923e+03 2.622123649473993772e-05
1.679339669834917459e+03 2.602886660054366377e-05
1.680240120060029994e+03 2.583886276233620885e-05
1.681140570285142530e+03 2.565117922637050573e-05
1.682041020510255066e+03 2.546577156782362018e-05
1.682941470735367602e+03 2.528259663710341379e-05
1.683841920960480138e+03 2.510161250892371018e-05
1.684742371185592674e+03 2.492277843397847008e-05
1.685642821410705210e+03 2.474605479305495034e-05
1.686543271635817746e+03 2.457140305343948969e-05
1.687443721860930282e+03 2.439878572747820396e-05
1.688344172086043045e+03 2.422816633316451595e-05
1.689244622311155581e+03 2.405950935663477946e-05
1.690145072536268117e+03 2.389278021646091085e-05
1.691045522761380653e+03 2.372794522963647996e-05
1.691945972986493189e+03 2.356497157915783870e-05
1.692846423211605725e+03 2.340382728311495703e-05
1.693746873436718261e+03 2.324448116519975508e-05
1.694647323661830796e+03 2.308690282656044514e-05
1.695547773886943332e+03 2.293106261892370918e-05
1.696448224112055868e+03 2.277693161891551610e-05
1.697348674337168404e+03 2.262448160351823704e-05
1.698249124562281168e+03 2.247368502660113438e-05
1.699149574787393703e+03 2.232451499646792055e-05
1.700050025012506239e+03 2.217694525436764730e-05
1.700950475237618775e+03 2.203095015391924545e-05
1.701850925462731311e+03 2.188650464140163741e-05
1.702751375687843847e+03 2.174358423686590533e-05
1.703651825912956383e+03 2.160216501602734283e-05
1.704552276138068919e+03 2.146222359289829467e-05
1.705452726363181455e+03 2.132373710312464692e-05
1.706353176588293991e+03 2.118668318799097862e-05
1.707253626813406527e+03 2.105103997906231282e-05
1.708154077038519290e+03 2.091678608343177739e-05
1.709054527263631826e+03 2.078390056954174789e-05
1.709954977488744362e+03 2.065236295355707961e-05
1.710855427713856898e+03 2.052215318625775044e-05
1.711755877938969434e+03 2.039325164043072808e-05
1.712656328164081970e+03 2.026563909873784251e-05
1.713556778389194506e+03 2.013929674203373125e-05
1.714457228614307041e+03 2.001420613811850222e-05
1.715357678839419577e+03 1.989034923090116346e-05
1.716258129064532113e+03 1.976770832995721128e-05
1.717158579289644649e+03 1.964626610046438465e-05
1.718059029514757185e+03 1.952600555349374655e-05
1.718959479739869948e+03 1.940691003664923132e-05
1.719859929964982484e+03 1.928896322503348935e-05
1.720760380190095020e+03 1.917214911252808953e-05
1.721660830415207556e+03 1.905645200337545504e-05
1.722561280640320092e+03 1.894185650404967472e-05
1.723461730865432628e+03 1.882834751540176329e-05
1.724362181090545164e+03 1.871591022507014784e-05
1.725262631315657700e+03 1.860453010014654501e-05
1.726163081540770236e+03 1.849419288008096905e-05
1.727063531765882772e+03 1.838488456982296723e-05
1.727963981990995308e+03 1.827659143318569271e-05
1.728864432216108071e+03 1.816929998642393109e-05
1.729764882441220607e+03 1.806299699201900636e-05
1.730665332666333143e+03 1.795766945266100817e-05
1.731565782891445679e+03 1.785330460542134076e-05
1.732466233116558215e+03 1.774988991610791574e-05
1.733366683341670750e+03 1.764741307379575198e-05
1.734267133566783286e+03 1.754586198552677198e-05
1.735167583791895822e+03 1.744522477117092747e-05
1.736068034017008358e+03 1.734548975844490035e-05
1.736968484242120894e+03 1.724664547808103329e-05
1.737868934467233430e+03 1.714868065913879912e-05
1.738769384692346193e+03 1.705158422445844968e-05
1.739669834917458729e+03 1.695534528624777096e-05
1.740570285142571265e+03 1.685995314179730586e-05
1.741470735367683801e+03 1.676539726932119550e-05
1.742371185592796337e+03 1.667166732391799411e-05
1.743271635817908873e+03 1.657875313364688384e-05
1.744172086043021409e+03 1.648664469571648047e-05
1.745072536268133945e+03 1.639533217277995195e-05
1.745972986493246481e+03 1.630480588933573826e-05
1.746873436718359017e+03 1.621505632822783488e-05
1.747773886943471553e+03 1.612607412724194683e-05
1.748674337168584316e+03 1.603785007579836716e-05
1.749574787393696852e+03 1.595037511173158132e-05
1.750475237618809388e+03 1.586364031815977240e-05
1.751375687843921924e+03 1.577763692043738963e-05
1.752276138069034459e+03 1.569235628318969622e-05
1.753176588294146995e+03 1.560778990742713479e-05
1.754077038519259531e+03 1.552392942773377093e-05
1.754977488744372067e+03 1.544076660953248127e-05
1.755877938969484603e+03 1.535829334641863945e-05
1.756778389194597139e+03 1.527650165756467510e-05
1.757678839419709675e+03 1.519538368519146187e-05
1.758579289644822438e+03 1.511493169210345331e-05
1.759479739869934974e+03 1.503513805928750367e-05
1.760380190095047510e+03 1.495599528357190603e-05
1.761280640320160046e+03 1.487749597534441437e-05
1.762181090545272582e+03 1.479963285632718628e-05
1.763081540770385118e+03 1.472239875740710807e-05
1.763981990995497654e+03 1.464578661651953207e-05
1.764882441220610190e+03 1.456978947658433349e-05
1.765782891445722726e+03 1.449440048349141192e-05
1.766683341670835262e+03 1.441961288413599338e-05
1.767583791895947797e+03 1.434542002450082741e-05
1.768484242121060333e+03 1.427181534778451362e-05
1.769384692346173097e+03 1.419879239257427208e-05
1.770285142571285633e+03 1.412634479106205122e-05
1.771185592796398169e+03 1.405446626730276049e-05
1.772086043021510704e+03 1.398315063551370937e-05
1.772986493246623240e+03 1.391239179841234759e-05
1.773886943471735776e+03 1.384218374559410215e-05
1.774787393696848312e+03 1.377252055194681467e-05
1.775687843921960848e+03 1.370339637610152319e-05
1.776588294147073384e+03 1.363480545891862966e-05
1.777488744372185920e+03 1.356674212200885676e-05
1.778389194597298456e+03 1.349920076628635631e-05
1.779289644822411219e+03 1.343217587055587198e-05
1.780190095047523755e+03 1.336566199013005785e-05
1.781090545272636291e+03 1.329965375547874723e-05
1.781990995497748827e+03 1.323414587090666641e-05
1.782891445722861363e+03 1.316913311326144518e-05
1.783791895947973899e+03 1.310461033066919315e-05
1.784692346173086435e+03 1.304057244129796545e-05
1.785592796398198971e+03 1.297701443214735436e-05
1.786493246623311506e+03 1.291393135786522157e-05
1.787393696848424042e+03 1.285131833958880121e-05
1.788294147073536578e+03 1.278917056381085313e-05
1.789194597298649342e+03 1.272748328127026993e-05
1.790095047523761878e+03 1.266625180586535400e-05
1.790995497748874413e+03 1.260547151359063370e-05
1.791895947973986949e+03 1.254513784149593939e-05
1.792796398199099485e+03 1.248524628666601004e-05
1.793696848424212021e+03 1.242579240522307966e-05
1.794597298649324557e+03 1.236677181134856956e-05
1.795497748874437093e+03 1.230818017632523634e-05
1.796398199099549629e+03 1.225001322759956745e-05
1.797298649324662165e+03 1.219226674786230824e-05
1.798199099549774701e+03 1.213493657414806598e-05
1.799099549774887464e+03 1.207801859695317754e-05
1.800000000000000000e+03 1.202150875937128855e-05
