0.000000000000000000e+00 1.066602244496018745e-03
9.004502251125562351e-01 1.417575085185829005e-03
1.800900450225112470e+00 1.855667607066090186e-03
2.701350675337668594e+00 2.286646081384311000e-03
3.601800900450224940e+00 2.548342360139076862e-03
4.502251125562780842e+00 2.598266911956907677e-03
5.402701350675337189e+00 2.521353567689902948e-03
6.303151575787893535e+00 2.312811162696001323e-03
7.203601800900449881e+00 1.947233361132858680e-03
8.104052026013006227e+00 1.527979246308559108e-03
9.004502251125561685e+00 1.164336726972902206e-03
9.904952476238118919e+00 8.866272166819093607e-04
1.080540270135067438e+01 6.842193403007328133e-04
1.170585292646323161e+01 5.382680050580780379e-04
1.260630315157578707e+01 4.321347199991209045e-04
1.350675337668834430e+01 3.535982766213084313e-04
1.440720360180089976e+01 2.943158154470376024e-04
1.530765382691345522e+01 2.487086225994877982e-04
1.620810405202601245e+01 2.130361934437173413e-04
1.710855427713856969e+01 1.847448481575149836e-04
1.800900450225112337e+01 1.620020904983841348e-04
1.890945472736368060e+01 1.433434172091254419e-04
1.980990495247623784e+01 1.275459859590591740e-04
2.071035517758879507e+01 1.138641421863516745e-04
2.161080540270134875e+01 1.020428836524208852e-04
2.251125562781390599e+01 9.192008913064030138e-05
2.341170585292646322e+01 8.326026244607924508e-05
2.431215607803901690e+01 7.581324125193093593e-05
2.521260630315157414e+01 6.936324767010676061e-05
2.611305652826413137e+01 6.373817944615751008e-05
2.701350675337668861e+01 5.880414197664554307e-05
2.791395697848924229e+01 5.445709051894655640e-05
2.881440720360179952e+01 5.061566430798487143e-05
2.971485742871435676e+01 4.721558890498211975e-05
3.061530765382691044e+01 4.420172956895288447e-05
3.151575787893946767e+01 4.151318233145818006e-05
3.241620810405202491e+01 3.906926297422886766e-05
3.331665832916458214e+01 3.678458791870806675e-05
3.421710855427713938e+01 3.461781986607932786e-05
3.511755877938969661e+01 3.259249873079790707e-05
3.601800900450224674e+01 3.074155885742243215e-05
3.691845922961480397e+01 2.906594917137881389e-05
3.781890945472736121e+01 2.754321857359244314e-05
3.871935967983991844e+01 2.614429595862307286e-05
3.961980990495247568e+01 2.484979527735152989e-05
4.052026013006503291e+01 2.365370269135882425e-05
4.142071035517759015e+01 2.255185766077182760e-05
4.232116058029014027e+01 2.153713152823140859e-05
4.322161080540269751e+01 2.060166334679151953e-05
4.412206103051525474e+01 1.973875719116595159e-05
4.502251125562781198e+01 1.894351706376672971e-05
4.592296148074036921e+01 1.821305021648952574e-05
4.682341170585292645e+01 1.754661147476642481e-05
4.772386193096548368e+01 1.694528179369083045e-05
4.862431215607803381e+01 1.640897668459049934e-05
4.952476238119059104e+01 1.592643622585307410e-05
5.042521260630314828e+01 1.546214463472640833e-05
5.132566283141570551e+01 1.497696196920925814e-05
5.222611305652826275e+01 1.448324245810868974e-05
5.312656328164081998e+01 1.402947507721940293e-05
5.402701350675337721e+01 1.363925151562498876e-05
5.492746373186592734e+01 1.329051533704027483e-05
5.582791395697848458e+01 1.293143902381834074e-05
5.672836418209104181e+01 1.252944576106542073e-05
5.762881440720359905e+01 1.208915435130214800e-05
5.852926463231615628e+01 1.163583625639708466e-05
5.942971485742871351e+01 1.120560454808245601e-05
6.033016508254127075e+01 1.082020558051410547e-05
6.123061530765382088e+01 1.048223423871050404e-05
6.213106553276637811e+01 1.018662954525533124e-05
6.303151575787893535e+01 9.926001670078095425e-06
6.393196598299149258e+01 9.690618348135063723e-06
6.483241620810404982e+01 9.472816330560462973e-06
6.573286643321659994e+01 9.271566201384325942e-06
6.663331665832916428e+01 9.084418292911131820e-06
6.753376688344171441e+01 8.904963395221293036e-06
6.843421710855427875e+01 8.722366562605472022e-06
6.933466733366682888e+01 8.516188574092111593e-06
7.023511755877939322e+01 8.283139810552463410e-06
7.113556778389194335e+01 8.049394067481510423e-06
7.203601800900449348e+01 7.838838885800511084e-06
7.293646823411705782e+01 7.659359571699825267e-06
7.383691845922960795e+01 7.510541763527277488e-06
7.473736868434217229e+01 7.387592510358007308e-06
7.563781890945472242e+01 7.277298117977776322e-06
7.653826913456728676e+01 7.159445353219348599e-06
7.743871935967983688e+01 7.029316093706585160e-06
7.833916958479238701e+01 6.906744730043606663e-06
7.923961980990495135e+01 6.813154584959958371e-06
8.014007003501750148e+01 6.761033575905458392e-06
8.104052026013006582e+01 6.757213790605400407e-06
8.194097048524261595e+01 6.798547507145707312e-06
8.284142071035518029e+01 6.855765770957101273e-06
8.374187093546773042e+01 6.868634232834027030e-06
8.464232116058028055e+01 6.789653357143686938e-06
8.554277138569284489e+01 6.634508067270233478e-06
8.644322161080539502e+01 6.456200605989047854e-06
8.734367183591795936e+01 6.282416540930014700e-06
8.824412206103050949e+01 6.107291399598079577e-06
8.914457228614307382e+01 5.938907328550497210e-06
9.004502251125562395e+01 5.803117471584229042e-06
9.094547273636817408e+01 5.716739769538535493e-06
9.184592296148073842e+01 5.686695548658012950e-06
9.274637318659328855e+01 5.717009877711718377e-06
9.364682341170585289e+01 5.802451239945215682e-06
9.454727363681840302e+01 5.903732441524731146e-06
9.544772386193096736e+01 5.936895597425795713e-06
9.634817408704351749e+01 5.850997539942815475e-06
9.724862431215606762e+01 5.704987761432486954e-06
9.814907453726863196e+01 5.588792876514668822e-06
9.904952476238118209e+01 5.535396571562070660e-06
9.994997498749374643e+01 5.517693155532883218e-06
1.008504252126062966e+02 5.483704942028426468e-06
1.017508754377188609e+02 5.394296231096467473e-06
1.026513256628314110e+02 5.249301433221712870e-06
1.035517758879439612e+02 5.097978150386906736e-06
1.044522261130565255e+02 4.986417283987016507e-06
1.053526763381690756e+02 4.914516950928941024e-06
1.062531265632816400e+02 4.844744979420341125e-06
1.071535767883941901e+02 4.748178571574943097e-06
1.080540270135067544e+02 4.641509149161344946e-06
1.089544772386193046e+02 4.555922656515146693e-06
1.098549274637318547e+02 4.501370413976341780e-06
1.107553776888444190e+02 4.474419311867527070e-06
1.116558279139569692e+02 4.477766869561097201e-06
1.125562781390695335e+02 4.517212619848963189e-06
1.134567283641820836e+02 4.584620549592732494e-06
1.143571785892946480e+02 4.659581768197103898e-06
1.152576288144071981e+02 4.724948360765375954e-06
1.161580790395197482e+02 4.764847462783697864e-06
1.170585292646323126e+02 4.759391594911764385e-06
1.179589794897448627e+02 4.698049883124966540e-06
1.188594297148574270e+02 4.599023397496380357e-06
1.197598799399699772e+02 4.480259157963808381e-06
1.206603301650825415e+02 4.352705775720619359e-06
1.215607803901950916e+02 4.247123375060758676e-06
1.224612306153076418e+02 4.191933820125680965e-06
1.233616808404202061e+02 4.187557464732726920e-06
1.242621310655327562e+02 4.202059148613158265e-06
1.251625812906453206e+02 4.189224155676338985e-06
1.260630315157578707e+02 4.136089825631670507e-06
1.269634817408704350e+02 4.064399687585413932e-06
1.278639319659829852e+02 3.992199301016510769e-06
1.287643821910955353e+02 3.937041570840878809e-06
1.296648324162080996e+02 3.920475597264684542e-06
1.305652826413206640e+02 3.954875948758227075e-06
1.314657328664331999e+02 4.034041940110646147e-06
1.323661830915457642e+02 4.129070771780546736e-06
1.332666333166583286e+02 4.207443378964176928e-06
1.341670835417708929e+02 4.262009769660851071e-06
1.350675337668834288e+02 4.302287923175129782e-06
1.359679839919959932e+02 4.346769474841293931e-06
1.368684342171085575e+02 4.399966617002300266e-06
1.377688844422210934e+02 4.414605741593020913e-06
1.386693346673336578e+02 4.339200209409462623e-06
1.395697848924462221e+02 4.200288130218155214e-06
1.404702351175587864e+02 4.073519787557305260e-06
1.413706853426713224e+02 4.005251883128591939e-06
1.422711355677838867e+02 3.992359858515856576e-06
1.431715857928964510e+02 4.004277316947067768e-06
1.440720360180089870e+02 4.013008803333903153e-06
1.449724862431215513e+02 4.012625689501802473e-06
1.458729364682341156e+02 4.017293833414900061e-06
1.467733866933466800e+02 4.047854992923970673e-06
1.476738369184592159e+02 4.131688223580872246e-06
1.485742871435717802e+02 4.289339849532812293e-06
1.494747373686843446e+02 4.499686690806272965e-06
1.503751875937968805e+02 4.689797987195294435e-06
1.512756378189094448e+02 4.788040619738596432e-06
1.521760880440220092e+02 4.781053699897315071e-06
1.530765382691345735e+02 4.697159240163705268e-06
1.539769884942471094e+02 4.591116261599877609e-06
1.548774387193596738e+02 4.529928653375790504e-06
1.557778889444722381e+02 4.530186214273916499e-06
1.566783391695847740e+02 4.556677780753019282e-06
1.575787893946973384e+02 4.574942742694048060e-06
1.584792396198099027e+02 4.572394966585012832e-06
1.593796898449224670e+02 4.571665015329734292e-06
1.602801400700350030e+02 4.607289393750584568e-06
1.611805902951475673e+02 4.671062573431845053e-06
1.620810405202601316e+02 4.730940357430701492e-06
1.629814907453726676e+02 4.779922467695807118e-06
1.638819409704852319e+02 4.835392325489254184e-06
1.647823911955977962e+02 4.911634507903913367e-06
1.656828414207103606e+02 5.009486959283380676e-06
1.665832916458228965e+02 5.109367867904068926e-06
1.674837418709354608e+02 5.172125816381336399e-06
1.683841920960480252e+02 5.164911937816103417e-06
1.692846423211605611e+02 5.098324613454825551e-06
1.701850925462731254e+02 5.002707004831229826e-06
1.710855427713856898e+02 4.892974561525240830e-06
1.719859929964982541e+02 4.794450403880002203e-06
1.728864432216107900e+02 4.724954507972010023e-06
1.737868934467233544e+02 4.664938582997642598e-06
1.746873436718359187e+02 4.599073333811091091e-06
1.755877938969484546e+02 4.532161280381281436e-06
1.764882441220610190e+02 4.475918708784026711e-06
1.773886943471735833e+02 4.437605454529240760e-06
1.782891445722861476e+02 4.415579097611387115e-06
1.791895947973986836e+02 4.411002350066529402e-06
1.800900450225112479e+02 4.437809743901543302e-06
1.809904952476238122e+02 4.497783872361231066e-06
1.818909454727363482e+02 4.553135370327976934e-06
1.827913956978489125e+02 4.552160829113557799e-06
1.836918459229614768e+02 4.496110952580817219e-06
1.845922961480740412e+02 4.423617713471199000e-06
1.854927463731865771e+02 4.358458233077115860e-06
1.863931965982991414e+02 4.305820233520918854e-06
1.872936468234117058e+02 4.271374856239846423e-06
1.881940970485242417e+02 4.262793136105099594e-06
1.890945472736368060e+02 4.284273874837372211e-06
1.899949974987493704e+02 4.338740963762297576e-06
1.908954477238619347e+02 4.415036803327230708e-06
1.917958979489744706e+02 4.476808761061986694e-06
1.926963481740870350e+02 4.501069081243342354e-06
1.935967983991995993e+02 4.514056637794433730e-06
1.944972486243121352e+02 4.541084669736373809e-06
1.953976988494246996e+02 4.556852316862783288e-06
1.962981490745372639e+02 4.537683084380220202e-06
1.971985992996498283e+02 4.500732934044001023e-06
1.980990495247623642e+02 4.455135990703062149e-06
1.989994997498749285e+02 4.397802702546006240e-06
1.998999499749874929e+02 4.346980228982308250e-06
2.008004002001000288e+02 4.327667147471116787e-06
2.017008504252125931e+02 4.357977058079992977e-06
2.026013006503251574e+02 4.441049132485017260e-06
2.035017508754377218e+02 4.550995961729929148e-06
2.044022011005502577e+02 4.643546657489536593e-06
2.053026513256628220e+02 4.685243348589102693e-06
2.062031015507753864e+02 4.669014756773677622e-06
2.071035517758879223e+02 4.597552547144826282e-06
2.080040020010004866e+02 4.484970769159738127e-06
2.089044522261130510e+02 4.360180650959988278e-06
2.098049024512256153e+02 4.238728942998427300e-06
2.107053526763381512e+02 4.119699199666506380e-06
2.116058029014507156e+02 4.012710415387758885e-06
2.125062531265632799e+02 3.941974156278603081e-06
2.134067033516758158e+02 3.927172120205135227e-06
2.143071535767883802e+02 3.963323031921050954e-06
2.152076038019009445e+02 4.029852031684052273e-06
2.161080540270135089e+02 4.119061673349311590e-06
2.170085042521260448e+02 4.231534718433076090e-06
2.179089544772386091e+02 4.369325358473978156e-06
2.188094047023511735e+02 4.529284426502482845e-06
2.197098549274637094e+02 4.677704295771138935e-06
2.206103051525762737e+02 4.762166600967448720e-06
2.215107553776888381e+02 4.750119027315780809e-06
2.224112056028014024e+02 4.652702287781139584e-06
2.233116558279139383e+02 4.521056623131857293e-06
2.242121060530265027e+02 4.402579973539591415e-06
2.251125562781390670e+02 4.309578943671875591e-06
2.260130065032516029e+02 4.236653608333639377e-06
2.269134567283641672e+02 4.178739519074668711e-06
2.278139069534767316e+02 4.119820378040036649e-06
2.287143571785892959e+02 4.041655564098379433e-06
2.296148074037018318e+02 3.958330523555216273e-06
2.305152576288143962e+02 3.914958311432877742e-06
2.314157078539269605e+02 3.951377670961565012e-06
2.323161580790394964e+02 4.078294073631589671e-06
2.332166083041520608e+02 4.276442807325522598e-06
2.341170585292646251e+02 4.510580488024876522e-06
2.350175087543771895e+02 4.743059850813654132e-06
2.359179589794897254e+02 4.940453651977498964e-06
2.368184092046022897e+02 5.078568566863842812e-06
2.377188594297148541e+02 5.146180630463646562e-06
2.386193096548273900e+02 5.160312058503009534e-06
2.395197598799399543e+02 5.144896636433693302e-06
2.404202101050525187e+02 5.097410656569257180e-06
2.413206603301650830e+02 5.009316895558321375e-06
2.422211105552776189e+02 4.908435743857718315e-06
2.431215607803901833e+02 4.845883320853295173e-06
2.440220110055027476e+02 4.842755046460654015e-06
2.449224612306152835e+02 4.873606103924598324e-06
2.458229114557278479e+02 4.911644412932843602e-06
2.467233616808404122e+02 4.963334606434909008e-06
2.476238119059529765e+02 5.042224655042529472e-06
2.485242621310655124e+02 5.146280645187564600e-06
2.494247123561780768e+02 5.256929224586487030e-06
2.503251625812906411e+02 5.347633043525407717e-06
2.512256128064031770e+02 5.418485328645265480e-06
2.521260630315157414e+02 5.483808941271413124e-06
2.530265132566283057e+02 5.548791463477182130e-06
2.539269634817408701e+02 5.611457874235047249e-06
2.548274137068534060e+02 5.648054089137842732e-06
2.557278639319659703e+02 5.615569234469922932e-06
2.566283141570785347e+02 5.490914022279810197e-06
2.575287643821910706e+02 5.293671906146336138e-06
2.584292146073036633e+02 5.062643555099257174e-06
2.593296648324161993e+02 4.844279075689508481e-06
2.602301150575287352e+02 4.690377728567765033e-06
2.611305652826413279e+02 4.633154067833484115e-06
2.620310155077538639e+02 4.663227337076761563e-06
2.629314657328663998e+02 4.749737456197670335e-06
2.638319159579789925e+02 4.884481226577125761e-06
2.647323661830915285e+02 5.073393477078788830e-06
2.656328164082040644e+02 5.296704241197339268e-06
2.665332666333166571e+02 5.527855202880123098e-06
2.674337168584291931e+02 5.756608287295653636e-06
2.683341670835417858e+02 5.967500551800027728e-06
2.692346173086543217e+02 6.131656599655979471e-06
2.701350675337668577e+02 6.236054455237650294e-06
2.710355177588794504e+02 6.291059234566199102e-06
2.719359679839919863e+02 6.287720265630436551e-06
2.728364182091045222e+02 6.199807222393038178e-06
2.737368684342171150e+02 6.047083227529103705e-06
2.746373186593296509e+02 5.884803175859097393e-06
2.755377688844421868e+02 5.757728605043568255e-06
2.764382191095547796e+02 5.693441167988401401e-06
2.773386693346673155e+02 5.696310065123805276e-06
2.782391195597798514e+02 5.758847903812217826e-06
2.791395697848924442e+02 5.875394899582050470e-06
2.800400200100049801e+02 6.047460319075013094e-06
2.809404702351175729e+02 6.252036057188081399e-06
2.818409204602301088e+02 6.422792685026442021e-06
2.827413706853426447e+02 6.519858672650745811e-06
2.836418209104552375e+02 6.577324390259044983e-06
2.845422711355677734e+02 6.618651917397682614e-06
2.854427213606803093e+02 6.618775459882164563e-06
2.863431715857929021e+02 6.577084155629222985e-06
2.872436218109054380e+02 6.514253146286507742e-06
2.881440720360179739e+02 6.429444984397483266e-06
2.890445222611305667e+02 6.319050487142066749e-06
2.899449724862431026e+02 6.198527445643013582e-06
2.908454227113556385e+02 6.082836259084593969e-06
2.917458729364682313e+02 5.993897293414621501e-06
2.926463231615807672e+02 5.960845341327083259e-06
2.935467733866933600e+02 5.991554519848573093e-06
2.944472236118058959e+02 6.059610354122389957e-06
2.953476738369184318e+02 6.136723538944599799e-06
2.962481240620310246e+02 6.228563851127351632e-06
2.971485742871435605e+02 6.353482433390446127e-06
2.980490245122560964e+02 6.515524078191586163e-06
2.989494747373686891e+02 6.696653719775540103e-06
2.998499249624812251e+02 6.875233915533654623e-06
3.007503751875937610e+02 7.038790760772743708e-06
3.016508254127063537e+02 7.159753937509063122e-06
3.025512756378188897e+02 7.231611007947126137e-06
3.034517258629314256e+02 7.296876088695371744e-06
3.043521760880440183e+02 7.390693677132929180e-06
3.052526263131565543e+02 7.513124521590385797e-06
3.061530765382691470e+02 7.638053974999622428e-06
3.070535267633816829e+02 7.727046748702076439e-06
3.079539769884942189e+02 7.763202718502964318e-06
3.088544272136068116e+02 7.777217392234209094e-06
3.097548774387193475e+02 7.809807991885542495e-06
3.106553276638318835e+02 7.892611393439697101e-06
3.115557778889444762e+02 8.050872016942745547e-06
3.124562281140570121e+02 8.303547625618786854e-06
3.133566783391695481e+02 8.673079325294149434e-06
3.142571285642821408e+02 9.162838767480921046e-06
3.151575787893946767e+02 9.731559623409496271e-06
3.160580290145072127e+02 1.028369282331057417e-05
3.169584792396198054e+02 1.070109977979047493e-05
3.178589294647323413e+02 1.092597929425243841e-05
3.187593796898449341e+02 1.098517198603559582e-05
3.196598299149574700e+02 1.093286958426528200e-05
3.205602801400700059e+02 1.082216325644676501e-05
3.214607303651825987e+02 1.071616552042275696e-05
3.223611805902951346e+02 1.068309134212731708e-05
3.232616308154076705e+02 1.073871593634582109e-05
3.241620810405202633e+02 1.082632035620075924e-05
3.250625312656327992e+02 1.089339265261944429e-05
3.259629814907453351e+02 1.097552042885225086e-05
3.268634317158579279e+02 1.115057781507348276e-05
3.277638819409704638e+02 1.142876329705064654e-05
3.286643321660829997e+02 1.173777565273604862e-05
3.295647823911955925e+02 1.199242729754577887e-05
3.304652326163081284e+02 1.213720293914593551e-05
3.313656828414207212e+02 1.211442021294821998e-05
3.322661330665332571e+02 1.191782518548087399e-05
3.331665832916457930e+02 1.164733751453000862e-05
3.340670335167583858e+02 1.138873318830964773e-05
3.349674837418709217e+02 1.117272836227599378e-05
3.358679339669834576e+02 1.101207052716657105e-05
3.367683841920960504e+02 1.090334546790523104e-05
3.376688344172085863e+02 1.084743036873452722e-05
3.385692846423211222e+02 1.087301222425595409e-05
3.394697348674337150e+02 1.100738693348414094e-05
3.403701850925462509e+02 1.123052003517905708e-05
3.412706353176587868e+02 1.149055552179826212e-05
3.421710855427713796e+02 1.174503628970579361e-05
3.430715357678839155e+02 1.196355904359892163e-05
3.439719859929965082e+02 1.211625344369848977e-05
3.448724362181090441e+02 1.217269388218905011e-05
3.457728864432215801e+02 1.211856228851347804e-05
3.466733366683341728e+02 1.196165022312764419e-05
3.475737868934467087e+02 1.175988529077026090e-05
3.484742371185592447e+02 1.159443256646517194e-05
3.493746873436718374e+02 1.152543217185376319e-05
3.502751375687843733e+02 1.157761067335632726e-05
3.511755877938969093e+02 1.174163964226396508e-05
3.520760380190095020e+02 1.194607830095969883e-05
3.529764882441220379e+02 1.209807812743744192e-05
3.538769384692345739e+02 1.217182198334374873e-05
3.547773886943471666e+02 1.219733697928040907e-05
3.556778389194597025e+02 1.222665505572239744e-05
3.565782891445722953e+02 1.230359982976569020e-05
3.574787393696848312e+02 1.244751367760657914e-05
3.583791895947973671e+02 1.264059869370384792e-05
3.592796398199099599e+02 1.281477577083049684e-05
3.601800900450224958e+02 1.287767050097019630e-05
3.610805402701350317e+02 1.282469242114333210e-05
3.619809904952476245e+02 1.276002249503187023e-05
3.628814407203601604e+02 1.274750461861465025e-05
3.637818909454726963e+02 1.271988790911271472e-05
3.646823411705852891e+02 1.256394299663680086e-05
3.655827913956978250e+02 1.229238119637195865e-05
3.664832416208103609e+02 1.201902854683698929e-05
3.673836918459229537e+02 1.177319333365330513e-05
3.682841420710354896e+02 1.149415238457607480e-05
3.691845922961480824e+02 1.120254873191541281e-05
3.700850425212606183e+02 1.099410994961837799e-05
3.709854927463731542e+02 1.088702496972780751e-05
3.718859429714857470e+02 1.081097606315322276e-05
3.727863931965982829e+02 1.070402786963028029e-05
3.736868434217108188e+02 1.056015818552439086e-05
3.745872936468234116e+02 1.039534309802874542e-05
3.754877438719359475e+02 1.021795183137221138e-05
3.763881940970484834e+02 1.003934102657706927e-05
3.772886443221610762e+02 9.874266614620899577e-06
3.781890945472736121e+02 9.758988349618489964e-06
3.790895447723861480e+02 9.715574510837086093e-06
3.799899949974987408e+02 9.718072203647699239e-06
3.808904452226112767e+02 9.729476012510915444e-06
3.817908954477238694e+02 9.736086161873803353e-06
3.826913456728364054e+02 9.746869854040550782e-06
3.835917958979489413e+02 9.760216147113995788e-06
3.844922461230615340e+02 9.774447106720467117e-06
3.853926963481740700e+02 9.801881031451225914e-06
3.862931465732866059e+02 9.838057305265055571e-06
3.871935967983991986e+02 9.867945513741759701e-06
3.880940470235117346e+02 9.852161715362268811e-06
3.889944972486242705e+02 9.751302555117056755e-06
3.898949474737368632e+02 9.590767034868280126e-06
3.907953976988493991e+02 9.433013467666898663e-06
3.916958479239619351e+02 9.309115642740460256e-06
3.925962981490745278e+02 9.224541061078161790e-06
3.934967483741870637e+02 9.190671124847291944e-06
3.943971985992996565e+02 9.202307039697221392e-06
3.952976488244121924e+02 9.215369046670810759e-06
3.961980990495247283e+02 9.189908830277299044e-06
3.970985492746373211e+02 9.131695120073175432e-06
3.979989994997498570e+02 9.059357935981997073e-06
3.988994497248623929e+02 8.981242263544729617e-06
3.997998999499749857e+02 8.910811975850759271e-06
4.007003501750875216e+02 8.861172578547432541e-06
4.016008004002000575e+02 8.818336455301701828e-06
4.025012506253126503e+02 8.739334772326707223e-06
4.034017008504251862e+02 8.607557230486458262e-06
4.043021510755377221e+02 8.484155781395968864e-06
4.052026013006503149e+02 8.439165888180086354e-06
4.061030515257628508e+02 8.464046501366692207e-06
4.070035017508754436e+02 8.497169265721261618e-06
4.079039519759879795e+02 8.505937155872392638e-06
4.088044022011005154e+02 8.516531790711626284e-06
4.097048524262131082e+02 8.559656977488741900e-06
4.106053026513256441e+02 8.614672902386652791e-06
4.115057528764381800e+02 8.625140860962804778e-06
4.124062031015507728e+02 8.562544712355777722e-06
4.133066533266633087e+02 8.444343657189499965e-06
4.142071035517758446e+02 8.306978080743195541e-06
4.151075537768884374e+02 8.183679852154894654e-06
4.160080040020009733e+02 8.093134100915700313e-06
4.169084542271135092e+02 8.045413431745950783e-06
4.178089044522261020e+02 8.043296787346117168e-06
4.187093546773386379e+02 8.059612686291809150e-06
4.196098049024512306e+02 8.057429733889424721e-06
4.205102551275637666e+02 8.036883566761901025e-06
4.214107053526763025e+02 8.027045255823446384e-06
4.223111555777888952e+02 8.049054085300833846e-06
4.232116058029014312e+02 8.109858902671600832e-06
4.241120560280139671e+02 8.216459940238150060e-06
4.250125062531265598e+02 8.367191934635233078e-06
4.259129564782390958e+02 8.538846174361816355e-06
4.268134067033516317e+02 8.715660907863223989e-06
4.277138569284642244e+02 8.889384600620608341e-06
4.286143071535767604e+02 9.021326672936164220e-06
4.295147573786892963e+02 9.065975701666209146e-06
4.304152076038018890e+02 9.039412062518574890e-06
4.313156578289144250e+02 9.005001771132744396e-06
4.322161080540270177e+02 8.997217919458144354e-06
4.331165582791395536e+02 8.987221998466732596e-06
4.340170085042520896e+02 8.931148307374368159e-06
4.349174587293646823e+02 8.845302540575490427e-06
4.358179089544772182e+02 8.782335803094381632e-06
4.367183591795897541e+02 8.747042317320862374e-06
4.376188094047023469e+02 8.702236758301817342e-06
4.385192596298148828e+02 8.639586434987965639e-06
4.394197098549274187e+02 8.587623195989963108e-06
4.403201600800400115e+02 8.556411667160340807e-06
4.412206103051525474e+02 8.531671001819368145e-06
4.421210605302650833e+02 8.517384555316557341e-06
4.430215107553776761e+02 8.540213865437869226e-06
4.439219609804902120e+02 8.599894743900813308e-06
4.448224112056028048e+02 8.654786238343211791e-06
4.457228614307153407e+02 8.669791598925167289e-06
4.466233116558278766e+02 8.666969061922510028e-06
4.475237618809404694e+02 8.707011188219953445e-06
4.484242121060530053e+02 8.818105213206822225e-06
4.493246623311655412e+02 8.962752783189214780e-06
4.502251125562781340e+02 9.087652432211219171e-06
4.511255627813906699e+02 9.180695213893560824e-06
4.520260130065032058e+02 9.249499019879266001e-06
4.529264632316157986e+02 9.303785191738409374e-06
4.538269134567283345e+02 9.359127918293472082e-06
4.547273636818408704e+02 9.406159642988540568e-06
4.556278139069534632e+02 9.418744643200708242e-06
4.565282641320659991e+02 9.396962603371882998e-06
4.574287143571785919e+02 9.358697712539028928e-06
4.583291645822911278e+02 9.326314477777604905e-06
4.592296148074036637e+02 9.308349255596777002e-06
4.601300650325162565e+02 9.280035788844226617e-06
4.610305152576287924e+02 9.221229950998503108e-06
4.619309654827413283e+02 9.164870389301076344e-06
4.628314157078539210e+02 9.169731841093600790e-06
4.637318659329664570e+02 9.252735522001374996e-06
4.646323161580789929e+02 9.375798357212469694e-06
4.655327663831915856e+02 9.497721127439970738e-06
4.664332166083041216e+02 9.602066964315974582e-06
4.673336668334167143e+02 9.676747122306841577e-06
4.682341170585292502e+02 9.700005842137803897e-06
4.691345672836417862e+02 9.675880380685576986e-06
4.700350175087543789e+02 9.650394530125529674e-06
4.709354677338669148e+02 9.648202029745317696e-06
4.718359179589794508e+02 9.662443532915163154e-06
4.727363681840920435e+02 9.708118209341027054e-06
4.736368184092045794e+02 9.819068407651674959e-06
4.745372686343171154e+02 9.988505894928477441e-06
4.754377188594297081e+02 1.016643886652351966e-05
4.763381690845422440e+02 1.031153928360156339e-05
4.772386193096547800e+02 1.039069438417481262e-05
4.781390695347673727e+02 1.038893110708135078e-05
4.790395197598799086e+02 1.033891659365100387e-05
4.799399699849925014e+02 1.026548102321968699e-05
4.808404202101050373e+02 1.016865002460493793e-05
4.817408704352175732e+02 1.006557394002970602e-05
4.826413206603301660e+02 9.971026198379503235e-06
4.835417708854427019e+02 9.878357883410336586e-06
4.844422211105552378e+02 9.790794030342449570e-06
4.853426713356678306e+02 9.742122813193372467e-06
4.862431215607803665e+02 9.766056185493992328e-06
4.871435717858929024e+02 9.851448549881688518e-06
4.880440220110054952e+02 9.965940774573295242e-06
4.889444722361180311e+02 1.008990262847699004e-05
4.898449224612305670e+02 1.021388990659567779e-05
4.907453726863431598e+02 1.033598975689646359e-05
4.916458229114556957e+02 1.044898284234146571e-05
4.925462731365682885e+02 1.053283019442513116e-05
4.934467233616808244e+02 1.055821918784087101e-05
4.943471735867933603e+02 1.051354945218827047e-05
4.952476238119059531e+02 1.045025764035637069e-05
4.961480740370184890e+02 1.045496053455961778e-05
4.970485242621310249e+02 1.056394664899350316e-05
4.979489744872436177e+02 1.072215700562850460e-05
4.988494247123561536e+02 1.084400808724301298e-05
4.997498749374686895e+02 1.091093177526274175e-05
5.006503251625812823e+02 1.096311652870907747e-05
5.015507753876938182e+02 1.101643356313612665e-05
5.024512256128063541e+02 1.106790776560317603e-05
5.033516758379189469e+02 1.112923634434154805e-05
5.042521260630314828e+02 1.122168310426740594e-05
5.051525762881440755e+02 1.135416008804316196e-05
5.060530265132566115e+02 1.149936913399990473e-05
5.069534767383691474e+02 1.161729911125976678e-05
5.078539269634817401e+02 1.169986894287153061e-05
5.087543771885942760e+02 1.176274045138130918e-05
5.096548274137068120e+02 1.181568067534277867e-05
5.105552776388194047e+02 1.184551935701405751e-05
5.114557278639319406e+02 1.183388715162668662e-05
5.123561780890445334e+02 1.179858545248278777e-05
5.132566283141570693e+02 1.176548920565899414e-05
5.141570785392696052e+02 1.174350461604019944e-05
5.150575287643821412e+02 1.174798416300232706e-05
5.159579789894946771e+02 1.178995069793007857e-05
5.168584292146073267e+02 1.185551836807783975e-05
5.177588794397198626e+02 1.191001251626232312e-05
5.186593296648323985e+02 1.191461336556341108e-05
5.195597798899449344e+02 1.187371389182048695e-05
5.204602301150574704e+02 1.183299522305497601e-05
5.213606803401700063e+02 1.182626022161181124e-05
5.222611305652826559e+02 1.187318489378976530e-05
5.231615807903951918e+02 1.200757576074722216e-05
5.240620310155077277e+02 1.227005342761644452e-05
5.249624812406202636e+02 1.264939916695336704e-05
5.258629314657327996e+02 1.305044135426074586e-05
5.267633816908454492e+02 1.337107855768267702e-05
5.276638319159579851e+02 1.358243894289636138e-05
5.285642821410705210e+02 1.372592144337858574e-05
5.294647323661830569e+02 1.387980259259520640e-05
5.303651825912955928e+02 1.409728645100730204e-05
5.312656328164081287e+02 1.436528386468187618e-05
5.321660830415207784e+02 1.463501917042557173e-05
5.330665332666333143e+02 1.485642310088111428e-05
5.339669834917458502e+02 1.498276159476543589e-05
5.348674337168583861e+02 1.498636841045516307e-05
5.357678839419709220e+02 1.490409669856541635e-05
5.366683341670835716e+02 1.482249178592929776e-05
5.375687843921961075e+02 1.481247584082453372e-05
5.384692346173086435e+02 1.489089824710731326e-05
5.393696848424211794e+02 1.502756986830918850e-05
5.402701350675337153e+02 1.517408649563049993e-05
5.411705852926462512e+02 1.531869380617407390e-05
5.420710355177589008e+02 1.548059269536246566e-05
5.429714857428714367e+02 1.565433437614022330e-05
5.438719359679839727e+02 1.582967923492008285e-05
5.447723861930965086e+02 1.600569856754575213e-05
5.456728364182090445e+02 1.620106441324630211e-05
5.465732866433215804e+02 1.645577543445145299e-05
5.474737368684342300e+02 1.677427869267233903e-05
5.483741870935467659e+02 1.710568149359389722e-05
5.492746373186593019e+02 1.741298175299715414e-05
5.501750875437718378e+02 1.768002652749915769e-05
5.510755377688843737e+02 1.787530420274718426e-05
5.519759879939970233e+02 1.800788791790860387e-05
5.528764382191095592e+02 1.812635371266598772e-05
5.537768884442220951e+02 1.826492828749067522e-05
5.546773386693346310e+02 1.844463358667325741e-05
5.555777888944471670e+02 1.863322236851097389e-05
5.564782391195597029e+02 1.873890761332755171e-05
5.573786893446723525e+02 1.871330837543877962e-05
5.582791395697848884e+02 1.861104610241170538e-05
5.591795897948974243e+02 1.852633150584797169e-05
5.600800400200099602e+02 1.848776159400491667e-05
5.609804902451224962e+02 1.844545489763873994e-05
5.618809404702351458e+02 1.837094244807683307e-05
5.627813906953476817e+02 1.828059514455625766e-05
5.636818409204602176e+02 1.817127212496688396e-05
5.645822911455727535e+02 1.805107188170556131e-05
5.654827413706852894e+02 1.794115265977503236e-05
5.663831915957978254e+02 1.781305238266412129e-05
5.672836418209104750e+02 1.762597912985910516e-05
5.681840920460230109e+02 1.741051837485051208e-05
5.690845422711355468e+02 1.724288343549308653e-05
5.699849924962480827e+02 1.716184326404822665e-05
5.708854427213606186e+02 1.715117913419694629e-05
5.717858929464731546e+02 1.718499278166260398e-05
5.726863431715858042e+02 1.725752272483562617e-05
5.735867933966983401e+02 1.735973555242220124e-05
5.744872436218108760e+02 1.746796197648196641e-05
5.753876938469234119e+02 1.757033341068127199e-05
5.762881440720359478e+02 1.767027504309938516e-05
5.771885942971485974e+02 1.773423903927226288e-05
5.780890445222611334e+02 1.770611980593605900e-05
5.789894947473736693e+02 1.758338629108934377e-05
5.798899449724862052e+02 1.742425476970261289e-05
5.807903951975987411e+02 1.728114661635857629e-05
5.816908454227112770e+02 1.716472663756714374e-05
5.825912956478239266e+02 1.704454443719180995e-05
5.834917458729364625e+02 1.688498713615545346e-05
5.843921960980489985e+02 1.669200176844818978e-05
5.852926463231615344e+02 1.651040711441232432e-05
5.861930965482740703e+02 1.635651546612270458e-05
5.870935467733867199e+02 1.618998386222686773e-05
5.879939969984992558e+02 1.599979879430023694e-05
5.888944472236117917e+02 1.581036037303362932e-05
5.897948974487243277e+02 1.561952262303165079e-05
5.906953476738368636e+02 1.541719573965135337e-05
5.915957978989493995e+02 1.520072988171877805e-05
5.924962481240620491e+02 1.495646308888894224e-05
5.933966983491745850e+02 1.467481500632665327e-05
5.942971485742871209e+02 1.439421416681986109e-05
5.951975987993996569e+02 1.419876943026306786e-05
5.960980490245121928e+02 1.412739998536283661e-05
5.969984992496247287e+02 1.412114640788520924e-05
5.978989494747373783e+02 1.408299851944969055e-05
5.987993996998499142e+02 1.397423087908455492e-05
5.996998499249624501e+02 1.385727461219093573e-05
6.006003001500749860e+02 1.381096603866825757e-05
6.015007503751875220e+02 1.381958462100551060e-05
6.024012006003001716e+02 1.379433632235012917e-05
6.033016508254127075e+02 1.367329732418325479e-05
6.042021010505252434e+02 1.345417863976409740e-05
6.051025512756377793e+02 1.317370968851224928e-05
6.060030015007503152e+02 1.287833388559022611e-05
6.069034517258628512e+02 1.261376800920743978e-05
6.078039019509755008e+02 1.243260383048141531e-05
6.087043521760880367e+02 1.233897084175579939e-05
6.096048024012005726e+02 1.227537364233077836e-05
6.105052526263131085e+02 1.220104319199318364e-05
6.114057028514256444e+02 1.211736974756799136e-05
6.123061530765382940e+02 1.203098732519116958e-05
6.132066033016508300e+02 1.194098068392586717e-05
6.141070535267633659e+02 1.185254991971081136e-05
6.150075037518759018e+02 1.176750404879841649e-05
6.159079539769884377e+02 1.168647773080051574e-05
6.168084042021009736e+02 1.161442287290614832e-05
6.177088544272136232e+02 1.156812147576705558e-05
6.186093046523261592e+02 1.155501503972943125e-05
6.195097548774386951e+02 1.154404095500603717e-05
6.204102051025512310e+02 1.150449276012953646e-05
6.213106553276637669e+02 1.146115572278257348e-05
6.222111055527763028e+02 1.146452392122202845e-05
6.231115557778889524e+02 1.153515866739884939e-05
6.240120060030014884e+02 1.165852785470785261e-05
6.249124562281140243e+02 1.179985208402676002e-05
6.258129064532265602e+02 1.192734884512151553e-05
6.267133566783390961e+02 1.203499658528732350e-05
6.276138069034517457e+02 1.214024048326965107e-05
6.285142571285642816e+02 1.225702899070276550e-05
6.294147073536768175e+02 1.236315984588744191e-05
6.303151575787893535e+02 1.240122551041449595e-05
6.312156078039018894e+02 1.234497345271425059e-05
6.321160580290144253e+02 1.224671244863216466e-05
6.330165082541270749e+02 1.216981631111617091e-05
6.339169584792396108e+02 1.212922097768909267e-05
6.348174087043521467e+02 1.210835873925074157e-05
6.357178589294646827e+02 1.209701164600726635e-05
6.366183091545772186e+02 1.210304876106154304e-05
6.375187593796898682e+02 1.213327385324831815e-05
6.384192096048024041e+02 1.215410779068587128e-05
6.393196598299149400e+02 1.210375842452002234e-05
6.402201100550274759e+02 1.197987741612096868e-05
6.411205602801400119e+02 1.184555970427899833e-05
6.420210105052525478e+02 1.174281928930216590e-05
6.429214607303651974e+02 1.168457013863016011e-05
6.438219109554777333e+02 1.166154321184176209e-05
6.447223611805902692e+02 1.163369828031653600e-05
6.456228114057028051e+02 1.158168741313752213e-05
6.465232616308153411e+02 1.152265309434787655e-05
6.474237118559278770e+02 1.148654421111985476e-05
6.483241620810405266e+02 1.150826069318262118e-05
6.492246123061530625e+02 1.160575170141141316e-05
6.501250625312655984e+02 1.175726903530457238e-05
6.510255127563781343e+02 1.191055165234149436e-05
6.519259629814906702e+02 1.200745840193722501e-05
6.528264132066033198e+02 1.200751888490537331e-05
6.537268634317158558e+02 1.191892232586723629e-05
6.546273136568283917e+02 1.178066413107594342e-05
6.555277638819409276e+02 1.163014207775433355e-05
6.564282141070534635e+02 1.151276766781114230e-05
6.573286643321659994e+02 1.146604256028969904e-05
6.582291145572786490e+02 1.148065301920673107e-05
6.591295647823911850e+02 1.150086650057127152e-05
6.600300150075037209e+02 1.148241081389063620e-05
6.609304652326162568e+02 1.143880488866795114e-05
6.618309154577287927e+02 1.140207714601618888e-05
6.627313656828414423e+02 1.139502001483837725e-05
6.636318159079539782e+02 1.143342588536403556e-05
6.645322661330665142e+02 1.151561345814396577e-05
6.654327163581790501e+02 1.163009637072635955e-05
6.663331665832915860e+02 1.176320555772247424e-05
6.672336168084041219e+02 1.188536874264137511e-05
6.681340670335167715e+02 1.196723787863986048e-05
6.690345172586293074e+02 1.201701160139460929e-05
6.699349674837418434e+02 1.207196378771799407e-05
6.708354177088543793e+02 1.216307349840415570e-05
6.717358679339669152e+02 1.227436398493763028e-05
6.726363181590794511e+02 1.233895273202177891e-05
6.735367683841921007e+02 1.231120314170710589e-05
6.744372186093046366e+02 1.220999333169521970e-05
6.753376688344171725e+02 1.208310875447092467e-05
6.762381190595297085e+02 1.196167701552604083e-05
6.771385692846422444e+02 1.186067416627184622e-05
6.780390195097548940e+02 1.178317013367612465e-05
6.789394697348674299e+02 1.171719944927654888e-05
6.798399199599799658e+02 1.165836761724692175e-05
6.807403701850925017e+02 1.161901608144634681e-05
6.816408204102050377e+02 1.159989870962919214e-05
6.825412706353175736e+02 1.157816431984941926e-05
6.834417208604302232e+02 1.151593604745619938e-05
6.843421710855427591e+02 1.137932646964347974e-05
6.852426213106552950e+02 1.118754585717399057e-05
6.861430715357678309e+02 1.100152296298114421e-05
6.870435217608803669e+02 1.087055413038888722e-05
6.879439719859930165e+02 1.081922580478002640e-05
6.888444222111055524e+02 1.084734971346803622e-05
6.897448724362180883e+02 1.092253114764751311e-05
6.906453226613306242e+02 1.101380747888856607e-05
6.915457728864431601e+02 1.110050174335882934e-05
6.924462231115556961e+02 1.115398379496853446e-05
6.933466733366683457e+02 1.116836285882188647e-05
6.942471235617808816e+02 1.116425130919183546e-05
6.951475737868934175e+02 1.116084252054921872e-05
6.960480240120059534e+02 1.117094731685790564e-05
6.969484742371184893e+02 1.119276228591037248e-05
6.978489244622311389e+02 1.120858441985959619e-05
6.987493746873436749e+02 1.120407688085255984e-05
6.996498249124562108e+02 1.117907478463006318e-05
7.005502751375687467e+02 1.113006275226220831e-05
7.014507253626812826e+02 1.105223296420888465e-05
7.023511755877938185e+02 1.098684118818077833e-05
7.032516258129064681e+02 1.099595309276427437e-05
7.041520760380190040e+02 1.108712754463072961e-05
7.050525262631315400e+02 1.121353407306764714e-05
7.059529764882440759e+02 1.131498889388723009e-05
7.068534267133566118e+02 1.133613984603560979e-05
7.077538769384691477e+02 1.126976410518759386e-05
7.086543271635817973e+02 1.117564530426891031e-05
7.095547773886943332e+02 1.112059153255619749e-05
7.104552276138068692e+02 1.111793343533690582e-05
7.113556778389194051e+02 1.114388357572874688e-05
7.122561280640319410e+02 1.118293688625156824e-05
7.131565782891445906e+02 1.122559470017723951e-05
7.140570285142571265e+02 1.126831224696581484e-05
7.149574787393696624e+02 1.131345659100889125e-05
7.158579289644821984e+02 1.135752400422716189e-05
7.167583791895947343e+02 1.138672873678538062e-05
7.176588294147072702e+02 1.139292792362161670e-05
7.185592796398199198e+02 1.137588753586026106e-05
7.194597298649324557e+02 1.134942422904689157e-05
7.203601800900449916e+02 1.136005712259972895e-05
7.212606303151575275e+02 1.144113835486832781e-05
7.221610805402700635e+02 1.157936606192175403e-05
7.230615307653827131e+02 1.174028781954783045e-05
7.239619809904952490e+02 1.187863753831195004e-05
7.248624312156077849e+02 1.194939124387008410e-05
7.257628814407203208e+02 1.195136231437013722e-05
7.266633316658328567e+02 1.189045187963527424e-05
7.275637818909453927e+02 1.174578369159198336e-05
7.284642321160580423e+02 1.155170198506002814e-05
7.293646823411705782e+02 1.139487265859622445e-05
7.302651325662831141e+02 1.133540061551915765e-05
7.311655827913956500e+02 1.137177722666990680e-05
7.320660330165081859e+02 1.143853820269273587e-05
7.329664832416207219e+02 1.146263691412582508e-05
7.338669334667333715e+02 1.143219007968377043e-05
7.347673836918459074e+02 1.138474151419802366e-05
7.356678339169584433e+02 1.135766782566190223e-05
7.365682841420709792e+02 1.137661269735423792e-05
7.374687343671835151e+02 1.143745230846074312e-05
7.383691845922961647e+02 1.149301931415615675e-05
7.392696348174087007e+02 1.150263019115995850e-05
7.401700850425212366e+02 1.147350736332404268e-05
7.410705352676337725e+02 1.142798632748760273e-05
7.419709854927463084e+02 1.136928803455840746e-05
7.428714357178588443e+02 1.130356234879492928e-05
7.437718859429714939e+02 1.125205008677133765e-05
7.446723361680840299e+02 1.122276808949117843e-05
7.455727863931965658e+02 1.120195250231469766e-05
7.464732366183091017e+02 1.118130688770090885e-05
7.473736868434216376e+02 1.116496101410542179e-05
7.482741370685342872e+02 1.114566171633119868e-05
7.491745872936468231e+02 1.110792527428565252e-05
7.500750375187593590e+02 1.106040481699916400e-05
7.509754877438718950e+02 1.102982107252688249e-05
7.518759379689844309e+02 1.102807284289991309e-05
7.527763881940969668e+02 1.106039696444716099e-05
7.536768384192096164e+02 1.114460590570308279e-05
7.545772886443221523e+02 1.126245548426334343e-05
7.554777388694346882e+02 1.133818005906706797e-05
7.563781890945472242e+02 1.131797761599252833e-05
7.572786393196597601e+02 1.123373127458518315e-05
7.581790895447722960e+02 1.115736074593664258e-05
7.590795397698849456e+02 1.113247900015007368e-05
7.599799899949974815e+02 1.116835561904211504e-05
7.608804402201100174e+02 1.124877686091609420e-05
7.617808904452225534e+02 1.134389832004388878e-05
7.626813406703350893e+02 1.142978612047773831e-05
7.635817908954477389e+02 1.150281935744801015e-05
7.644822411205602748e+02 1.158724817155403253e-05
7.653826913456728107e+02 1.169581618536430342e-05
7.662831415707853466e+02 1.179323041506366037e-05
7.671835917958978825e+02 1.183061791435540173e-05
7.680840420210104185e+02 1.181270647613798652e-05
7.689844922461230681e+02 1.178175520112814255e-05
7.698849424712356040e+02 1.175899421702324520e-05
7.707853926963481399e+02 1.174746944987217056e-05
7.716858429214606758e+02 1.174728483562694022e-05
7.725862931465732117e+02 1.174734835386989237e-05
7.734867433716858613e+02 1.174757240483102596e-05
7.743871935967983973e+02 1.175840829153487722e-05
7.752876438219109332e+02 1.177559957468985741e-05
7.761880940470234691e+02 1.179127626538252332e-05
7.770885442721360050e+02 1.179523685961464621e-05
7.779889944972485409e+02 1.175713119720884109e-05
7.788894447223611905e+02 1.167081474084405206e-05
7.797898949474737265e+02 1.159233441187270519e-05
7.806903451725862624e+02 1.158079361013759505e-05
7.815907953976987983e+02 1.164896535325389366e-05
7.824912456228113342e+02 1.177245067802652099e-05
7.833916958479238701e+02 1.191401416022501801e-05
7.842921460730365197e+02 1.204911422731090473e-05
7.851925962981490557e+02 1.214786952575819494e-05
7.860930465232615916e+02 1.216734580321924917e-05
7.869934967483741275e+02 1.211086528451467608e-05
7.878939469734866634e+02 1.201623587044334989e-05
7.887943971985993130e+02 1.190789317899873187e-05
7.896948474237118489e+02 1.181139806013258634e-05
7.905952976488243849e+02 1.174561158175016140e-05
7.914957478739369208e+02 1.169396351529500810e-05
7.923961980990494567e+02 1.162313471045970306e-05
7.932966483241619926e+02 1.152812811174143061e-05
7.941970985492746422e+02 1.143979243677418920e-05
7.950975487743871781e+02 1.137789103358295425e-05
7.959979989994997140e+02 1.133319125342003062e-05
7.968984492246122500e+02 1.129083430616525793e-05
7.977988994497247859e+02 1.126624236708284477e-05
7.986993496748374355e+02 1.129464721452376769e-05
7.995997998999499714e+02 1.137474223763812871e-05
8.005002501250625073e+02 1.146498673343702620e-05
8.014007003501750432e+02 1.153087011892190581e-05
8.023011505752875792e+02 1.157052971041649711e-05
8.032016008004001151e+02 1.160540016418010043e-05
8.041020510255127647e+02 1.165764231337311172e-05
8.050025012506253006e+02 1.173393129277061873e-05
8.059029514757378365e+02 1.181402348196038018e-05
8.068034017008503724e+02 1.186919851829299010e-05
8.077038519259629084e+02 1.190089059993057766e-05
8.086043021510754443e+02 1.193526213434193954e-05
8.095047523761880939e+02 1.197633676499092432e-05
8.104052026013006298e+02 1.200178662233247820e-05
8.113056528264131657e+02 1.199487213384823208e-05
8.122061030515257016e+02 1.195244905987124315e-05
8.131065532766382375e+02 1.189040709472911009e-05
8.140070035017508872e+02 1.185314733409420280e-05
8.149074537268634231e+02 1.186831791902343384e-05
8.158079039519759590e+02 1.191714192683252629e-05
8.167083541770884949e+02 1.197720367722396733e-05
8.176088044022010308e+02 1.204351227726671494e-05
8.185092546273135667e+02 1.210505074149509868e-05
8.194097048524262163e+02 1.214846477694790689e-05
8.203101550775387523e+02 1.217009493176602959e-05
8.212106053026512882e+02 1.218315699973922351e-05
8.221110555277638241e+02 1.222430149243799133e-05
8.230115057528763600e+02 1.231266825951800218e-05
8.239119559779890096e+02 1.241946029379561139e-05
8.248124062031015455e+02 1.251407348557241007e-05
8.257128564282140815e+02 1.260507975043189558e-05
8.266133066533266174e+02 1.268645996049315870e-05
8.275137568784391533e+02 1.271886498560591891e-05
8.284142071035516892e+02 1.267903828226928345e-05
8.293146573286643388e+02 1.258792602639340230e-05
8.302151075537768747e+02 1.248926516985682144e-05
8.311155577788894107e+02 1.240141895518080661e-05
8.320160080040019466e+02 1.230376722858582065e-05
8.329164582291144825e+02 1.218253953601577524e-05
8.338169084542270184e+02 1.206400137492169989e-05
8.347173586793396680e+02 1.198558957476960794e-05
8.356178089044522039e+02 1.194674103101439170e-05
8.365182591295647399e+02 1.192989694431010537e-05
8.374187093546772758e+02 1.191974042986541738e-05
8.383191595797898117e+02 1.190768674025303427e-05
8.392196098049024613e+02 1.190082170093896143e-05
8.401200600300149972e+02 1.189842438989105466e-05
8.410205102551275331e+02 1.188819261795543173e-05
8.419209604802400690e+02 1.187520906760492065e-05
8.428214107053526050e+02 1.188434699961283744e-05
8.437218609304651409e+02 1.193074494771724935e-05
8.446223111555777905e+02 1.200348062074296387e-05
8.455227613806903264e+02 1.209090938562362567e-05
8.464232116058028623e+02 1.218491225817551561e-05
8.473236618309153982e+02 1.227176873924748881e-05
8.482241120560279342e+02 1.234878574887514407e-05
8.491245622811405838e+02 1.241423508694261054e-05
8.500250125062531197e+02 1.245666742306761079e-05
8.509254627313656556e+02 1.248351734671422075e-05
8.518259129564781915e+02 1.252202953184368569e-05
8.527263631815907274e+02 1.259069834523285426e-05
8.536268134067032634e+02 1.268673313442557745e-05
8.545272636318159130e+02 1.279417060302260437e-05
8.554277138569284489e+02 1.290879709837981490e-05
8.563281640820409848e+02 1.303195498760955646e-05
8.572286143071535207e+02 1.314138874529666674e-05
8.581290645322660566e+02 1.322016236358104938e-05
8.590295147573785925e+02 1.328537771505086904e-05
8.599299649824912422e+02 1.335602641347384262e-05
8.608304152076037781e+02 1.342219460837114520e-05
8.617308654327163140e+02 1.345011511566255856e-05
8.626313156578288499e+02 1.341273508055665705e-05
8.635317658829413858e+02 1.332654784507769921e-05
8.644322161080540354e+02 1.323345207767894701e-05
8.653326663331665713e+02 1.314939976004643162e-05
8.662331165582791073e+02 1.306444100844147814e-05
8.671335667833916432e+02 1.294721463427727521e-05
8.680340170085041791e+02 1.276398078401351003e-05
8.689344672336167150e+02 1.252608774071519758e-05
8.698349174587293646e+02 1.228743339029721081e-05
8.707353676838419005e+02 1.209428782574042937e-05
8.716358179089544365e+02 1.195599157727781305e-05
8.725362681340669724e+02 1.185852381378123536e-05
8.734367183591795083e+02 1.178111356226876654e-05
8.743371685842921579e+02 1.170193846632122213e-05
8.752376188094046938e+02 1.161788362330109286e-05
8.761380690345172297e+02 1.154663394562195206e-05
8.770385192596297657e+02 1.150273818756117005e-05
8.779389694847423016e+02 1.149104227937468198e-05
8.788394197098548375e+02 1.151218510539863249e-05
8.797398699349674871e+02 1.157222582357343379e-05
8.806403201600800230e+02 1.168076893523007417e-05
8.815407703851925589e+02 1.183282937798168045e-05
8.824412206103050949e+02 1.200534003470935814e-05
8.833416708354176308e+02 1.216335903050776249e-05
8.842421210605301667e+02 1.227846543304637391e-05
8.851425712856428163e+02 1.235362091590566662e-05
8.860430215107553522e+02 1.240325359753350923e-05
8.869434717358678881e+02 1.243795255210451032e-05
8.878439219609804240e+02 1.248150515499019984e-05
8.887443721860929600e+02 1.255744574072677602e-05
8.896448224112056096e+02 1.266226893258914132e-05
8.905452726363181455e+02 1.276558227448529999e-05
8.914457228614306814e+02 1.283180778278353192e-05
8.923461730865432173e+02 1.284816253783687789e-05
8.932466233116557532e+02 1.283067992586709297e-05
8.941470735367682892e+02 1.280777341642446063e-05
8.950475237618809388e+02 1.279478143158283063e-05
8.959479739869934747e+02 1.278988786491412998e-05
8.968484242121060106e+02 1.278545391077212868e-05
8.977488744372185465e+02 1.278715067769056125e-05
8.986493246623310824e+02 1.281942271977250121e-05
8.995497748874437320e+02 1.290698564415926365e-05
9.004502251125562680e+02 1.305780470585249056e-05
9.013506753376688039e+02 1.324882311450553625e-05
9.022511255627813398e+02 1.343069113938333762e-05
9.031515757878938757e+02 1.355616874896617114e-05
9.040520260130064116e+02 1.361730247620434006e-05
9.049524762381190612e+02 1.366228673681526137e-05
9.058529264632315972e+02 1.373672966187491223e-05
9.067533766883441331e+02 1.382951532755805211e-05
9.076538269134566690e+02 1.392611851019011059e-05
9.085542771385692049e+02 1.406240630291510350e-05
9.094547273636817408e+02 1.426653011540338905e-05
9.103551775887943904e+02 1.450202180021709085e-05
9.112556278139069263e+02 1.470548570944164446e-05
9.121560780390194623e+02 1.485097527829441858e-05
9.130565282641319982e+02 1.497100356476926612e-05
9.139569784892445341e+02 1.510492037826932007e-05
9.148574287143571837e+02 1.525769408433371550e-05
9.157578789394697196e+02 1.544723588169200657e-05
9.166583291645822555e+02 1.569374568886244462e-05
9.175587793896947915e+02 1.598477092005831844e-05
9.184592296148073274e+02 1.627008356920435039e-05
9.193596798399198633e+02 1.647777602556279810e-05
9.202601300650325129e+02 1.655584532014879915e-05
9.211605802901450488e+02 1.649009976993321707e-05
9.220610305152575847e+02 1.632784121943630783e-05
9.229614807403701207e+02 1.617336232803540910e-05
9.238619309654826566e+02 1.609945839768899814e-05
9.247623811905953062e+02 1.609872626898764181e-05
9.256628314157078421e+02 1.613833265427376635e-05
9.265632816408203780e+02 1.620513602327368395e-05
9.274637318659329139e+02 1.630089084332218507e-05
9.283641820910454499e+02 1.642801864762670239e-05
9.292646323161579858e+02 1.658569625865514277e-05
9.301650825412706354e+02 1.678428033426400195e-05
9.310655327663831713e+02 1.704112673673493215e-05
9.319659829914957072e+02 1.734220706833831382e-05
9.328664332166082431e+02 1.763216345544614880e-05
9.337668834417207790e+02 1.787035458826938109e-05
9.346673336668334287e+02 1.804352776439052246e-05
9.355677838919459646e+02 1.816716999031936115e-05
9.364682341170585005e+02 1.829796091509214677e-05
9.373686843421710364e+02 1.849733524175858424e-05
9.382691345672835723e+02 1.878180518452855752e-05
9.391695847923961082e+02 1.912430933495845779e-05
9.400700350175087578e+02 1.949072092696560094e-05
9.409704852426212938e+02 1.987454442156715731e-05
9.418709354677338297e+02 2.029278153802377925e-05
9.427713856928463656e+02 2.071426256251819397e-05
9.436718359179589015e+02 2.102730096909682334e-05
9.445722861430714374e+02 2.111699461163561484e-05
9.454727363681840870e+02 2.099654080703055667e-05
9.463731865932966230e+02 2.080676696548104432e-05
9.472736368184091589e+02 2.067084897189918331e-05
9.481740870435216948e+02 2.062394639698195701e-05
9.490745372686342307e+02 2.066789646796347534e-05
9.499749874937468803e+02 2.084069188693361729e-05
9.508754377188594162e+02 2.117796830052418478e-05
9.517758879439719522e+02 2.165184076058040519e-05
9.526763381690844881e+02 2.218292342577676436e-05
9.535767883941970240e+02 2.272899319390411679e-05
9.544772386193095599e+02 2.328336969514437465e-05
9.553776888444222095e+02 2.375202330123544499e-05
9.562781390695347454e+02 2.399995216396821370e-05
9.571785892946472813e+02 2.402945518510277858e-05
9.580790395197598173e+02 2.399001229739437758e-05
9.589794897448723532e+02 2.403080146006652106e-05
9.598799399699850028e+02 2.420499164642922791e-05
9.607803901950975387e+02 2.450717523444536348e-05
9.616808404202100746e+02 2.490801050640741607e-05
9.625812906453226105e+02 2.529731783324181332e-05
9.634817408704351465e+02 2.553955644377362726e-05
9.643821910955476824e+02 2.560939748703915141e-05
9.652826413206603320e+02 2.559767285898552469e-05
9.661830915457728679e+02 2.563534914132499328e-05
9.670835417708854038e+02 2.582746825672710970e-05
9.679839919959979397e+02 2.615038611398352414e-05
9.688844422211104757e+02 2.649715519184555397e-05
9.697848924462230116e+02 2.680924231059673838e-05
9.706853426713356612e+02 2.706752472823190106e-05
9.715857928964481971e+02 2.725795952875354115e-05
9.724862431215607330e+02 2.743319525810626339e-05
9.733866933466732689e+02 2.764108271851215988e-05
9.742871435717858049e+02 2.786399532064267812e-05
9.751875937968984545e+02 2.811267039477488116e-05
9.760880440220109904e+02 2.839616949966960720e-05
9.769884942471235263e+02 2.868852327719030999e-05
9.778889444722360622e+02 2.901066123800104875e-05
9.787893946973485981e+02 2.936854557789347466e-05
9.796898449224611340e+02 2.969311621594916182e-05
9.805902951475737837e+02 2.997092542554963699e-05
9.814907453726863196e+02 3.023444151455649491e-05
9.823911955977988555e+02 3.042954015184804034e-05
9.832916458229113914e+02 3.054879839880519796e-05
9.841920960480239273e+02 3.072796837459280641e-05
9.850925462731365769e+02 3.103494233372032030e-05
9.859929964982491128e+02 3.137137695990980146e-05
9.868934467233616488e+02 3.165501373861626371e-05
9.877938969484741847e+02 3.187259864812403586e-05
9.886943471735867206e+02 3.198152451471810787e-05
9.895947973986992565e+02 3.200188079151460095e-05
9.904952476238119061e+02 3.204970177631990787e-05
9.913956978489244420e+02 3.218522964013559274e-05
9.922961480740369780e+02 3.240220453336401982e-05
9.931965982991495139e+02 3.269650056296096775e-05
9.940970485242620498e+02 3.307607075007044771e-05
9.949974987493745857e+02 3.349320847625725283e-05
9.958979489744872353e+02 3.391094972790953518e-05
9.967983991995997712e+02 3.441892666801927067e-05
9.976988494247123072e+02 3.512665198396247368e-05
9.985992996498248431e+02 3.595531864495029364e-05
9.994997498749373790e+02 3.662126168025462770e-05
1.000400200100050029e+03 3.687759547452352420e-05
1.001300650325162565e+03 3.670931488302657829e-05
1.002201100550275100e+03 3.631922174447202309e-05
1.003101550775387636e+03 3.595754088120957332e-05
1.004002001000500172e+03 3.579487902030905927e-05
1.004902451225612708e+03 3.592614447202548996e-05
1.005802901450725358e+03 3.634887312213801039e-05
1.006703351675837894e+03 3.692508742271319604e-05
1.007603801900950430e+03 3.754146134310446426e-05
1.008504252126062966e+03 3.819780380571058414e-05
1.009404702351175501e+03 3.883896482792701478e-05
1.010305152576288151e+03 3.934510496070492603e-05
1.011205602801400687e+03 3.962008391222304624e-05
1.012106053026513223e+03 3.964667639278559864e-05
1.013006503251625759e+03 3.957514726643412056e-05
1.013906953476738295e+03 3.957550413103844155e-05
1.014807403701850831e+03 3.972095084708288619e-05
1.015707853926963480e+03 4.002813208372429883e-05
1.016608304152076016e+03 4.050505102617410968e-05
1.017508754377188552e+03 4.113648824204932299e-05
1.018409204602301088e+03 4.186586961186374668e-05
1.019309654827413624e+03 4.255621873686540960e-05
1.020210105052526160e+03 4.297103496596064081e-05
1.021110555277638809e+03 4.298893455525476661e-05
1.022011005502751345e+03 4.273491524333260705e-05
1.022911455727863881e+03 4.236801865052997794e-05
1.023811905952976417e+03 4.203448313331934600e-05
1.024712356178089067e+03 4.188451418031377191e-05
1.025612806403201603e+03 4.195482118113077666e-05
1.026513256628314139e+03 4.223268124251338757e-05
1.027413706853426675e+03 4.272670153841501717e-05
1.028314157078539210e+03 4.344531343124313983e-05
1.029214607303651746e+03 4.426947080709606023e-05
1.030115057528764282e+03 4.494383517850956169e-05
1.031015507753876818e+03 4.533908056259697245e-05
1.031915957978989354e+03 4.552037516627627792e-05
1.032816408204101890e+03 4.568263690808019789e-05
1.033716858429214653e+03 4.603572257991619173e-05
1.034617308654327189e+03 4.660333986903431790e-05
1.035517758879439725e+03 4.728759502822344683e-05
1.036418209104552261e+03 4.806118516686967040e-05
1.037318659329664797e+03 4.893061937706684770e-05
1.038219109554777333e+03 4.978341375730593128e-05
1.039119559779889869e+03 5.050241584363543087e-05
1.040020010005002405e+03 5.113026639382033979e-05
1.040920460230114941e+03 5.164048574667358372e-05
1.041820910455227477e+03 5.184865948940210300e-05
1.042721360680340013e+03 5.181754944344224323e-05
1.043621810905452776e+03 5.184824713926730518e-05
1.044522261130565312e+03 5.206512734161168545e-05
1.045422711355677848e+03 5.240923488903012075e-05
1.046323161580790384e+03 5.285286012521440795e-05
1.047223611805902920e+03 5.341508243296074225e-05
1.048124062031015455e+03 5.412252292428845995e-05
1.049024512256127991e+03 5.496018641768485958e-05
1.049924962481240527e+03 5.580816044015151901e-05
1.050825412706353063e+03 5.648779496964589447e-05
1.051725862931465599e+03 5.690716255394547891e-05
1.052626313156578135e+03 5.711957808535856712e-05
1.053526763381690898e+03 5.733008863504279523e-05
1.054427213606803434e+03 5.775127797297266636e-05
1.055327663831915970e+03 5.836148208675459603e-05
1.056228114057028506e+03 5.893722258282476571e-05
1.057128564282141042e+03 5.932588193630520748e-05
1.058029014507253578e+03 5.943572614068276907e-05
1.058929464732366114e+03 5.915549279347974773e-05
1.059829914957478650e+03 5.856507408350308455e-05
1.060730365182591186e+03 5.787728181899686516e-05
1.061630815407703722e+03 5.724303341279587330e-05
1.062531265632816257e+03 5.680811979974086952e-05
1.063431715857929021e+03 5.676782379113228124e-05
1.064332166083041557e+03 5.714401026181499164e-05
1.065232616308154093e+03 5.769228288450109797e-05
1.066133066533266629e+03 5.811961946361108005e-05
1.067033516758379164e+03 5.822932476996683427e-05
1.067933966983491700e+03 5.796585469530001291e-05
1.068834417208604236e+03 5.750179449043462011e-05
1.069734867433716772e+03 5.708413903452308886e-05
1.070635317658829308e+03 5.685307851132736894e-05
1.071535767883941844e+03 5.685639235231815507e-05
1.072436218109054380e+03 5.698997264902635633e-05
1.073336668334167143e+03 5.713607650369934091e-05
1.074237118559279679e+03 5.739206137540845364e-05
1.075137568784392215e+03 5.788021749784701142e-05
1.076038019009504751e+03 5.853086018507996805e-05
1.076938469234617287e+03 5.916063644165150579e-05
1.077838919459729823e+03 5.968278720794833173e-05
1.078739369684842359e+03 6.018723422117138681e-05
1.079639819909954895e+03 6.073441054442219348e-05
1.080540270135067431e+03 6.121851974196460412e-05
1.081440720360179967e+03 6.163010527945312863e-05
1.082341170585292502e+03 6.209736258303812301e-05
1.083241620810405038e+03 6.263791295600524525e-05
1.084142071035517802e+03 6.321517341593904931e-05
1.085042521260630338e+03 6.380643401283296167e-05
1.085942971485742873e+03 6.439221861879760125e-05
1.086843421710855409e+03 6.506851308466830657e-05
1.087743871935967945e+03 6.594596677930932461e-05
1.088644322161080481e+03 6.689931874269747615e-05
1.089544772386193017e+03 6.777314886000136858e-05
1.090445222611305553e+03 6.860614380784794063e-05
1.091345672836418089e+03 6.943095567518824129e-05
1.092246123061530625e+03 7.021676619344397027e-05
1.093146573286643161e+03 7.107197562808893504e-05
1.094047023511755924e+03 7.224117188637888410e-05
1.094947473736868460e+03 7.376379119902928534e-05
1.095847923961980996e+03 7.534425548849200494e-05
1.096748374187093532e+03 7.659027989054305796e-05
1.097648824412206068e+03 7.726019240203441107e-05
1.098549274637318604e+03 7.754441948203010025e-05
1.099449724862431140e+03 7.792139613401467108e-05
1.100350175087543676e+03 7.857667355355829326e-05
1.101250625312656211e+03 7.936253710761015465e-05
1.102151075537768747e+03 8.011936419890543226e-05
1.103051525762881283e+03 8.078253314205128578e-05
1.103951975987994047e+03 8.128674598223841841e-05
1.104852426213106583e+03 8.154957421380930153e-05
1.105752876438219118e+03 8.171927393260951418e-05
1.106653326663331654e+03 8.219442378403743650e-05
1.107553776888444190e+03 8.304234806847024108e-05
1.108454227113556726e+03 8.373829830756903921e-05
1.109354677338669262e+03 8.377657071138025968e-05
1.110255127563781798e+03 8.330962740712101922e-05
1.111155577788894334e+03 8.301812273841490113e-05
1.112056028014006870e+03 8.343862056370305463e-05
1.112956478239119406e+03 8.472079011189565748e-05
1.113856928464232169e+03 8.667529647288158337e-05
1.114757378689344705e+03 8.885313610278377193e-05
1.115657828914457241e+03 9.070778139189565679e-05
1.116558279139569777e+03 9.175615410755240994e-05
1.117458729364682313e+03 9.200053678656785908e-05
1.118359179589794849e+03 9.190667276953427985e-05
1.119259629814907385e+03 9.175825196499590337e-05
1.120160080040019920e+03 9.151871628524147449e-05
1.121060530265132456e+03 9.118669729968461798e-05
1.121960980490244992e+03 9.099509502938334788e-05
1.122861430715357528e+03 9.108724486092621675e-05
1.123761880940470292e+03 9.136896385527832948e-05
1.124662331165582827e+03 9.181798442725743565e-05
1.125562781390695363e+03 9.264789598565144498e-05
1.126463231615807899e+03 9.425118984360125057e-05
1.127363681840920435e+03 9.676425534585333195e-05
1.128264132066032971e+03 9.967789151912622412e-05
1.129164582291145507e+03 1.021290137941244095e-04
1.130065032516258043e+03 1.036768806443259778e-04
1.130965482741370579e+03 1.044929382709994850e-04
1.131865932966483115e+03 1.049048273947627267e-04
1.132766383191595651e+03 1.051837686033748736e-04
1.133666833416708187e+03 1.055054512390202572e-04
1.134567283641820950e+03 1.060284826502494199e-04
1.135467733866933486e+03 1.069670740860812039e-04
1.136368184092046022e+03 1.084365615096548162e-04
1.137268634317158558e+03 1.102258569599467937e-04
1.138169084542271094e+03 1.121071904067158010e-04
1.139069534767383630e+03 1.142599360422755960e-04
1.139969984992496165e+03 1.170758704071858880e-04
1.140870435217608701e+03 1.207316169881145635e-04
1.141770885442721237e+03 1.251917085301486429e-04
1.142671335667833773e+03 1.304326521802703334e-04
1.143571785892946309e+03 1.364420295151288316e-04
1.144472236118059072e+03 1.432454224160683936e-04
1.145372686343171608e+03 1.511137354417433948e-04
1.146273136568284144e+03 1.604352250256274224e-04
1.147173586793396680e+03 1.714678357909253637e-04
1.148074037018509216e+03 1.847577498758669063e-04
1.148974487243621752e+03 2.012845797437465864e-04
1.149874937468734288e+03 2.220585815050922008e-04
1.150775387693846824e+03 2.477364245747340683e-04
1.151675837918959360e+03 2.780273203433282795e-04
1.152576288144071896e+03 3.120542959683513667e-04
1.153476738369184432e+03 3.496222831358416572e-04
1.154377188594297195e+03 3.904614550400355329e-04
1.155277638819409731e+03 4.355153001962593778e-04
1.156178089044522267e+03 4.890210950084703488e-04
1.157078539269634803e+03 5.529339663849361852e-04
1.157978989494747339e+03 6.242191711580474464e-04
1.158879439719859874e+03 7.019870411464284405e-04
1.159779889944972410e+03 7.924549160764453315e-04
1.160680340170084946e+03 9.008093781450144614e-04
1.161580790395197482e+03 1.022379807544615072e-03
1.162481240620310018e+03 1.150267108864605221e-03
1.163381690845422554e+03 1.283892211863878457e-03
1.164282141070535317e+03 1.414377110401474286e-03
1.165182591295647853e+03 1.505102331823862140e-03
1.166083041520760389e+03 1.506280210198538295e-03
1.166983491745872925e+03 1.405572524598576499e-03
1.167883941970985461e+03 1.240712536403508568e-03
1.168784392196097997e+03 1.058308212663744679e-03
1.169684842421210533e+03 8.895306447667841558e-04
1.170585292646323069e+03 7.497219388648947505e-04
1.171485742871435605e+03 6.432556980297883965e-04
1.172386193096548141e+03 5.668251100177378347e-04
1.173286643321660677e+03 5.097643279808327125e-04
1.174187093546773440e+03 4.603314913746382655e-04
1.175087543771885976e+03 4.142285416994460879e-04
1.175987993996998512e+03 3.745723219889629356e-04
1.176888444222111048e+03 3.448700285871101061e-04
1.177788894447223583e+03 3.263803377749636275e-04
1.178689344672336119e+03 3.187565849836398795e-04
1.179589794897448655e+03 3.195374015442464756e-04
1.180490245122561191e+03 3.260868583695098648e-04
1.181390695347673727e+03 3.365040300107375497e-04
1.182291145572786263e+03 3.489579354675151368e-04
1.183191595797898799e+03 3.626954198889434486e-04
1.184092046023011562e+03 3.767170906185835920e-04
1.184992496248124098e+03 3.912606876772764422e-04
1.185892946473236634e+03 4.074455090757704567e-04
1.186793396698349170e+03 4.236630722766690374e-04
1.187693846923461706e+03 4.384496922153284493e-04
1.188594297148574242e+03 4.523551263304172523e-04
1.189494747373686778e+03 4.648472767156444337e-04
1.190395197598799314e+03 4.716197105894057292e-04
1.191295647823911850e+03 4.677984363682301879e-04
1.192196098049024386e+03 4.528661925686266912e-04
1.193096548274136921e+03 4.293598161219844256e-04
1.193996998499249457e+03 4.001888711761310150e-04
1.194897448724362221e+03 3.693357904189367778e-04
1.195797898949474757e+03 3.408191994793699975e-04
1.196698349174587293e+03 3.163786773128246673e-04
1.197598799399699828e+03 2.963851752563526456e-04
1.198499249624812364e+03 2.809745433040675036e-04
1.199399699849924900e+03 2.698041910115965753e-04
1.200300150075037436e+03 2.620869030629857438e-04
1.201200600300149972e+03 2.571551688101116279e-04
1.202101050525262508e+03 2.536162490869811495e-04
1.203001500750375044e+03 2.491323932595002674e-04
1.203901950975487580e+03 2.423403847104201373e-04
1.204802401200600343e+03 2.335286973299400117e-04
1.205702851425712879e+03 2.240561623729963258e-04
1.206603301650825415e+03 2.151507232816843264e-04
1.207503751875937951e+03 2.063451757286532853e-04
1.208404202101050487e+03 1.977997170695785145e-04
1.209304652326163023e+03 1.908060233982962831e-04
1.210205102551275559e+03 1.853773587938474673e-04
1.211105552776388095e+03 1.803146742391638444e-04
1.212006003001500630e+03 1.749738676791214303e-04
1.212906453226613166e+03 1.692855850890657141e-04
1.213806903451725702e+03 1.634047057624377183e-04
1.214707353676838466e+03 1.578780249416236313e-04
1.215607803901951002e+03 1.525268406982952093e-04
1.216508254127063537e+03 1.469350523224556690e-04
1.217408704352176073e+03 1.412461909373974398e-04
1.218309154577288609e+03 1.355272853546987243e-04
1.219209604802401145e+03 1.299281359955361149e-04
1.220110055027513681e+03 1.252606496759784912e-04
1.221010505252626217e+03 1.220550966769924303e-04
1.221910955477738753e+03 1.196957834574634673e-04
1.222811405702851289e+03 1.173960385158783111e-04
1.223711855927963825e+03 1.153497817972813687e-04
1.224612306153076588e+03 1.142585302943314529e-04
1.225512756378189124e+03 1.143049158642823581e-04
1.226413206603301660e+03 1.151205334689747197e-04
1.227313656828414196e+03 1.164215672253406336e-04
1.228214107053526732e+03 1.183337309425787283e-04
1.229114557278639268e+03 1.211307267607557162e-04
1.230015007503751804e+03 1.250140920111394635e-04
1.230915457728864340e+03 1.303615668666860861e-04
1.231815907953976875e+03 1.377951753663603945e-04
1.232716358179089411e+03 1.473690063290709527e-04
1.233616808404201947e+03 1.579886835852055773e-04
1.234517258629314711e+03 1.679682098083929104e-04
1.235417708854427246e+03 1.763623987848190263e-04
1.236318159079539782e+03 1.837493328329567303e-04
1.237218609304652318e+03 1.913204769253432438e-04
1.238119059529764854e+03 1.994245449415889986e-04
1.239019509754877390e+03 2.070590864070819806e-04
1.239919959979989926e+03 2.128067530028279601e-04
1.240820410205102462e+03 2.159559114428169057e-04
1.241720860430214998e+03 2.171301784652512337e-04
1.242621310655327534e+03 2.174599876170676418e-04
1.243521760880440070e+03 2.175216968373542106e-04
1.244422211105552606e+03 2.177996105331830845e-04
1.245322661330665369e+03 2.185447964748581670e-04
1.246223111555777905e+03 2.199708374567932532e-04
1.247123561780890441e+03 2.224088651271145887e-04
1.248024012006002977e+03 2.255705038830407036e-04
1.248924462231115513e+03 2.289106042367641141e-04
1.249824912456228049e+03 2.324148482992831278e-04
1.250725362681340584e+03 2.358436099042914437e-04
1.251625812906453120e+03 2.384751369597444721e-04
1.252526263131565656e+03 2.399179230661206100e-04
1.253426713356678192e+03 2.407118997590589591e-04
1.254327163581790728e+03 2.420751829420781688e-04
1.255227613806903491e+03 2.446328470158612022e-04
1.256128064032016027e+03 2.479585136787840790e-04
1.257028514257128563e+03 2.514844767979497616e-04
1.257928964482241099e+03 2.549704532418126590e-04
1.258829414707353635e+03 2.587541063264621574e-04
1.259729864932466171e+03 2.636841657498009066e-04
1.260630315157578707e+03 2.702887843539364941e-04
1.261530765382691243e+03 2.785370337755762823e-04
1.262431215607803779e+03 2.885458895870964468e-04
1.263331665832916315e+03 3.008294170135955461e-04
1.264232116058028851e+03 3.158402445015531844e-04
1.265132566283141614e+03 3.336332838649935318e-04
1.266033016508254150e+03 3.535689121365028983e-04
1.266933466733366686e+03 3.737032584840256026e-04
1.267833916958479222e+03 3.903511386034149767e-04
1.268734367183591758e+03 4.005826682881185501e-04
1.269634817408704293e+03 4.053856319806544090e-04
1.270535267633816829e+03 4.075998068013805581e-04
1.271435717858929365e+03 4.089672546088776446e-04
1.272336168084041901e+03 4.104575243363552356e-04
1.273236618309154437e+03 4.136643935731577361e-04
1.274137068534266973e+03 4.205493276490205874e-04
1.275037518759379736e+03 4.318598202762969599e-04
1.275937968984492272e+03 4.466095933294913795e-04
1.276838419209604808e+03 4.626691421861752395e-04
1.277738869434717344e+03 4.782157746436408331e-04
1.278639319659829880e+03 4.929064141764545126e-04
1.279539769884942416e+03 5.069989501733124671e-04
1.280440220110054952e+03 5.203601915146081934e-04
1.281340670335167488e+03 5.325572439392096697e-04
1.282241120560280024e+03 5.429100289902085265e-04
1.283141570785392560e+03 5.504781351251517062e-04
1.284042021010505096e+03 5.549013824519715733e-04
1.284942471235617859e+03 5.573382492409039530e-04
1.285842921460730395e+03 5.595667127307162991e-04
1.286743371685842931e+03 5.622284314536443077e-04
1.287643821910955467e+03 5.646622377744257544e-04
1.288544272136068003e+03 5.664169849345456311e-04
1.289444722361180538e+03 5.683211986277123635e-04
1.290345172586293074e+03 5.712899681845854533e-04
1.291245622811405610e+03 5.750070052185560481e-04
1.292146073036518146e+03 5.785318867450895417e-04
1.293046523261630682e+03 5.815660132059670764e-04
1.293946973486743218e+03 5.843680514932297508e-04
1.294847423711855754e+03 5.870037127065147941e-04
1.295747873936968517e+03 5.899436921360901942e-04
1.296648324162081053e+03 5.939895265045866271e-04
1.297548774387193589e+03 5.991659770454288566e-04
1.298449224612306125e+03 6.046269374759011966e-04
1.299349674837418661e+03 6.092724799621233259e-04
1.300250125062531197e+03 6.126041655231921493e-04
1.301150575287643733e+03 6.147088277345403575e-04
1.302051025512756269e+03 6.154945280114302187e-04
1.302951475737868805e+03 6.157035955992900449e-04
1.303851925962981340e+03 6.173235355521282776e-04
1.304752376188093876e+03 6.213216726888925274e-04
1.305652826413206640e+03 6.269316836228324471e-04
1.306553276638319176e+03 6.335285460131680115e-04
1.307453726863431712e+03 6.411890775726593588e-04
1.308354177088544247e+03 6.494405002405626666e-04
1.309254627313656783e+03 6.575491686264775841e-04
1.310155077538769319e+03 6.656659588710336440e-04
1.311055527763881855e+03 6.744827109806268142e-04
1.311955977988994391e+03 6.843559056012848149e-04
1.312856428214106927e+03 6.958672829066070735e-04
1.313756878439219463e+03 7.099355370280915640e-04
1.314657328664331999e+03 7.263001026972411549e-04
1.315557778889444762e+03 7.435642232439083291e-04
1.316458229114557298e+03 7.608809937388611843e-04
1.317358679339669834e+03 7.777372379876135817e-04
1.318259129564782370e+03 7.932371558765013986e-04
1.319159579789894906e+03 8.070443883285829739e-04
1.320060030015007442e+03 8.197982370821684048e-04
1.320960480240119978e+03 8.322087137876338966e-04
1.321860930465232514e+03 8.447049098434497626e-04
1.322761380690345050e+03 8.584634674090747255e-04
1.323661830915457585e+03 8.755877231990440981e-04
1.324562281140570121e+03 8.976110389585533790e-04
1.325462731365682885e+03 9.246944941192133125e-04
1.326363181590795421e+03 9.555630150883619688e-04
1.327263631815907956e+03 9.882301091145889900e-04
1.328164082041020492e+03 1.021347545846353067e-03
1.329064532266133028e+03 1.054377361192795296e-03
1.329964982491245564e+03 1.085709433944269213e-03
1.330865432716358100e+03 1.112998388647222503e-03
1.331765882941470636e+03 1.137691525060092763e-03
1.332666333166583172e+03 1.166096636647776744e-03
1.333566783391695708e+03 1.203680819115708362e-03
1.334467233616808244e+03 1.249579862336609032e-03
1.335367683841921007e+03 1.297936143014245163e-03
1.336268134067033543e+03 1.343643568475360586e-03
1.337168584292146079e+03 1.387778429097038385e-03
1.338069034517258615e+03 1.435966829178405950e-03
1.338969484742371151e+03 1.491356354866891186e-03
1.339869934967483687e+03 1.551503164032135831e-03
1.340770385192596223e+03 1.610024602096531967e-03
1.341670835417708759e+03 1.661841126958610781e-03
1.342571285642821294e+03 1.707253520275385647e-03
1.343471735867933830e+03 1.750288342419345066e-03
1.344372186093046366e+03 1.796982153369776217e-03
1.345272636318158902e+03 1.852254804911856144e-03
1.346173086543271666e+03 1.916646259325555752e-03
1.347073536768384201e+03 1.986494005001406948e-03
1.347973986993496737e+03 2.056778177883499589e-03
1.348874437218609273e+03 2.126564536166233865e-03
1.349774887443721809e+03 2.201082191929144057e-03
1.350675337668834345e+03 2.287645799629413508e-03
1.351575787893946881e+03 2.391451919502659076e-03
1.352476238119059417e+03 2.511457329863178364e-03
1.353376688344171953e+03 2.641067201927606994e-03
1.354277138569284489e+03 2.774237379860251037e-03
1.355177588794397025e+03 2.905478439745695987e-03
1.356078039019509788e+03 3.028430276756179096e-03
1.356978489244622324e+03 3.143734454366173617e-03
1.357878939469734860e+03 3.259909866005576348e-03
1.358779389694847396e+03 3.383791633467467860e-03
1.359679839919959932e+03 3.516027784911487496e-03
1.360580290145072468e+03 3.653084703506474015e-03
1.361480740370185003e+03 3.796558650744993706e-03
1.362381190595297539e+03 3.955047743301511216e-03
1.363281640820410075e+03 4.131032025140565604e-03
1.364182091045522611e+03 4.319968919480258844e-03
1.365082541270635147e+03 4.521152782940414394e-03
1.365982991495747910e+03 4.736974328105931879e-03
1.366883441720860446e+03 4.963131382703584935e-03
1.367783891945972982e+03 5.190737592439174063e-03
1.368684342171085518e+03 5.421888661289238354e-03
1.369584792396198054e+03 5.664332933813685453e-03
1.370485242621310590e+03 5.918546147813791812e-03
1.371385692846423126e+03 6.186015146681957816e-03
1.372286143071535662e+03 6.477118774104057355e-03
1.373186593296648198e+03 6.807622350703345857e-03
1.374087043521760734e+03 7.181350041411360859e-03
1.374987493746873270e+03 7.573822921511942294e-03
1.375887943971986033e+03 7.958306557091166661e-03
1.376788394197098569e+03 8.339569332693516635e-03
1.377688844422211105e+03 8.731494496693260540e-03
1.378589294647323641e+03 9.134479074435842075e-03
1.379489744872436177e+03 9.546141815341651141e-03
1.380390195097548713e+03 9.950782010134455804e-03
1.381290645322661248e+03 1.035248856823147573e-02
1.382191095547773784e+03 1.080353152666855242e-02
1.383091545772886320e+03 1.134658011088234691e-02
1.383991995997998856e+03 1.197562480573968920e-02
1.384892446223111392e+03 1.266808684937898929e-02
1.385792896448224155e+03 1.341746139612001731e-02
1.386693346673336691e+03 1.423054794335827308e-02
1.387593796898449227e+03 1.515225344763650867e-02
1.388494247123561763e+03 1.625408242419036295e-02
1.389394697348674299e+03 1.757289201819299540e-02
1.390295147573786835e+03 1.910209458547720840e-02
1.391195597798899371e+03 2.082356564760333081e-02
1.392096048024011907e+03 2.274824573300011574e-02
1.392996498249124443e+03 2.493249947603335195e-02
1.393896948474236979e+03 2.745078592194090741e-02
1.394797398699349515e+03 3.037044985777005712e-02
1.395697848924462278e+03 3.378758066725687931e-02
1.396598299149574814e+03 3.782415224365199419e-02
1.397498749374687350e+03 4.254427637009950552e-02
1.398399199599799886e+03 4.788602383033271209e-02
1.399299649824912422e+03 5.364457661649711662e-02
1.400200100050024957e+03 5.950377569962734398e-02
1.401100550275137493e+03 6.503687197057132774e-02
1.402001000500250029e+03 6.933369322106544552e-02
1.402901450725362565e+03 7.108233549031321707e-02
1.403801900950475101e+03 6.965402369779373493e-02
1.404702351175587637e+03 6.562829768939409947e-02
1.405602801400700173e+03 6.032802234702785982e-02
1.406503251625812936e+03 5.490951342319351502e-02
1.407403701850925472e+03 4.992413416948742605e-02
1.408304152076038008e+03 4.560530631410671804e-02
1.409204602301150544e+03 4.198669640986664453e-02
1.410105052526263080e+03 3.898636648004339539e-02
1.411005502751375616e+03 3.650499550431973023e-02
1.411905952976488152e+03 3.435238957850120234e-02
1.412806403201600688e+03 3.229587542294286295e-02
1.413706853426713224e+03 3.017097901270195115e-02
1.414607303651825760e+03 2.796317921541797979e-02
1.415507753876938295e+03 2.577830672551388244e-02
1.416408204102051059e+03 2.375980038764708910e-02
1.417308654327163595e+03 2.200785827449304455e-02
1.418209104552276131e+03 2.047408831875655380e-02
1.419109554777388666e+03 1.906964018420699569e-02
1.420010005002501202e+03 1.775697239677909850e-02
1.420910455227613738e+03 1.646306608508020866e-02
1.421810905452726274e+03 1.513742802529271375e-02
1.422711355677838810e+03 1.384189199196570602e-02
1.423611805902951346e+03 1.267088051641742340e-02
1.424512256128063882e+03 1.165409180747699162e-02
1.425412706353176418e+03 1.074990286530554985e-02
1.426313156578289181e+03 9.914923436695380343e-03
1.427213606803401717e+03 9.145989488049288685e-03
1.428114057028514253e+03 8.461287897835208585e-03
1.429014507253626789e+03 7.881908604061750243e-03
1.429914957478739325e+03 7.406820729402838199e-03
1.430815407703851861e+03 7.004455577642077109e-03
1.431715857928964397e+03 6.635993734722920277e-03
1.432616308154076933e+03 6.280601263598784532e-03
1.433516758379189469e+03 5.939540883963286347e-03
1.434417208604302004e+03 5.621751047506123519e-03
1.435317658829414540e+03 5.334938241079278942e-03
1.436218109054527304e+03 5.088426088609364698e-03
1.437118559279639840e+03 4.885791822902513931e-03
1.438019009504752376e+03 4.713724738490345997e-03
1.438919459729864911e+03 4.555119963995672185e-03
1.439819909954977447e+03 4.408468231496961813e-03
1.440720360180089983e+03 4.283406499225962671e-03
1.441620810405202519e+03 4.176476800900014857e-03
1.442521260630315055e+03 4.066737757397956808e-03
1.443421710855427591e+03 3.934234579759345561e-03
1.444322161080540127e+03 3.778783194205740433e-03
1.445222611305652663e+03 3.616126360700265985e-03
1.446123061530765426e+03 3.457443630678479641e-03
1.447023511755877962e+03 3.306243729256833682e-03
1.447923961980990498e+03 3.165479137955757184e-03
1.448824412206103034e+03 3.039047360066064220e-03
1.449724862431215570e+03 2.923016360981724616e-03
1.450625312656328106e+03 2.811856803449060485e-03
1.451525762881440642e+03 2.710146124561575113e-03
1.452426213106553178e+03 2.618020067325408252e-03
1.453326663331665713e+03 2.524290681968927724e-03
1.454227113556778249e+03 2.426549725730976683e-03
1.455127563781890785e+03 2.334510564636960595e-03
1.456028014007003321e+03 2.252496776617199468e-03
1.456928464232116085e+03 2.176462073127600431e-03
1.457828914457228620e+03 2.102602011638540248e-03
1.458729364682341156e+03 2.028555964050964087e-03
1.459629814907453692e+03 1.953336669106115961e-03
1.460530265132566228e+03 1.880828337879915857e-03
1.461430715357678764e+03 1.816733709208249916e-03
1.462331165582791300e+03 1.762432646980937332e-03
1.463231615807903836e+03 1.711602728428775200e-03
1.464132066033016372e+03 1.656938138867129545e-03
1.465032516258128908e+03 1.597781551426261147e-03
1.465932966483241444e+03 1.539951323736659999e-03
1.466833416708354207e+03 1.491911153541067942e-03
1.467733866933466743e+03 1.457915864747717392e-03
1.468634317158579279e+03 1.433985208346169561e-03
1.469534767383691815e+03 1.411141121677597123e-03
1.470435217608804351e+03 1.382433991645743787e-03
1.471335667833916887e+03 1.346955549595795030e-03
1.472236118059029423e+03 1.309528485390670707e-03
1.473136568284141958e+03 1.273244334361061389e-03
1.474037018509254494e+03 1.236929927739371547e-03
1.474937468734367030e+03 1.199522718469839353e-03
1.475837918959479566e+03 1.162537144793564237e-03
1.476738369184592329e+03 1.128151441249511302e-03
1.477638819409704865e+03 1.096099838659845248e-03
1.478539269634817401e+03 1.065325679150254043e-03
1.479439719859929937e+03 1.037620873362225370e-03
1.480340170085042473e+03 1.015741967681854478e-03
1.481240620310155009e+03 9.993041463140916059e-04
1.482141070535267545e+03 9.847948429268671856e-04
1.483041520760380081e+03 9.679574599872898784e-04
1.483941970985492617e+03 9.458566814725040970e-04
1.484842421210605153e+03 9.184672877722433858e-04
1.485742871435717689e+03 8.886144086886725579e-04
1.486643321660830452e+03 8.595845417587596408e-04
1.487543771885942988e+03 8.334115811782361180e-04
1.488444222111055524e+03 8.103170687351672575e-04
1.489344672336168060e+03 7.879856618625223066e-04
1.490245122561280596e+03 7.644869106892967451e-04
1.491145572786393132e+03 7.410920472265256943e-04
1.492046023011505667e+03 7.195626719606051935e-04
1.492946473236618203e+03 7.002798800092312247e-04
1.493846923461730739e+03 6.823666839373110880e-04
1.494747373686843275e+03 6.641050935057924223e-04
1.495647823911955811e+03 6.445617932356460973e-04
1.496548274137068574e+03 6.244357143774490219e-04
1.497448724362181110e+03 6.055542622889424197e-04
1.498349174587293646e+03 5.896729734572432689e-04
1.499249624812406182e+03 5.775584908076566038e-04
1.500150075037518718e+03 5.687353950147224380e-04
1.501050525262631254e+03 5.630366327049225739e-04
1.501950975487743790e+03 5.607706069029229226e-04
1.502851425712856326e+03 5.609975133428607690e-04
1.503751875937968862e+03 5.612497600122035545e-04
1.504652326163081398e+03 5.592351824202039913e-04
1.505552776388193934e+03 5.547306175916599108e-04
1.506453226613306470e+03 5.481401957195043174e-04
1.507353676838419233e+03 5.402734052046178747e-04
1.508254127063531769e+03 5.336017128252656949e-04
1.509154577288644305e+03 5.300519367973317896e-04
1.510055027513756841e+03 5.292251225334791611e-04
1.510955477738869376e+03 5.292278881544991171e-04
1.511855927963981912e+03 5.286414995086483612e-04
1.512756378189094448e+03 5.271728278817293303e-04
1.513656828414206984e+03 5.243730288605018405e-04
1.514557278639319520e+03 5.194351921123187320e-04
1.515457728864432056e+03 5.121316114473664595e-04
1.516358179089544592e+03 5.030536914072559346e-04
1.517258629314657355e+03 4.933531262604648427e-04
1.518159079539769891e+03 4.847440724119190776e-04
1.519059529764882427e+03 4.783896601882425240e-04
1.519959979989994963e+03 4.740558977027719547e-04
1.520860430215107499e+03 4.708385485291280512e-04
1.521760880440220035e+03 4.676752693904350595e-04
1.522661330665332571e+03 4.634251684036836327e-04
1.523561780890445107e+03 4.577715311123727146e-04
1.524462231115557643e+03 4.521486155471547328e-04
1.525362681340670179e+03 4.482016089699321663e-04
1.526263131565782714e+03 4.462008371739615057e-04
1.527163581790895478e+03 4.450336599095321361e-04
1.528064032016008014e+03 4.434721176401459279e-04
1.528964482241120550e+03 4.418409110970985209e-04
1.529864932466233086e+03 4.412741405241873017e-04
1.530765382691345621e+03 4.424134814679253776e-04
1.531665832916458157e+03 4.453172013449818441e-04
1.532566283141570693e+03 4.488896591247392765e-04
1.533466733366683229e+03 4.514255301450633014e-04
1.534367183591795765e+03 4.522860970745662531e-04
1.535267633816908301e+03 4.515550584835108087e-04
1.536168084042020837e+03 4.492298683764136820e-04
1.537068534267133600e+03 4.452536647470935259e-04
1.537968984492246136e+03 4.399243126520526966e-04
1.538869434717358672e+03 4.342292253711517599e-04
1.539769884942471208e+03 4.294785902417732736e-04
1.540670335167583744e+03 4.269137654288964368e-04
1.541570785392696280e+03 4.264260352371079224e-04
1.542471235617808816e+03 4.267720595241295618e-04
1.543371685842921352e+03 4.276802179092596993e-04
1.544272136068033888e+03 4.300266364813599865e-04
1.545172586293146423e+03 4.348857742781267292e-04
1.546073036518258959e+03 4.425477694090688497e-04
1.546973486743371723e+03 4.517794744403510186e-04
1.547873936968484259e+03 4.603764606579140205e-04
1.548774387193596795e+03 4.666041479270080657e-04
1.549674837418709330e+03 4.696681704899622256e-04
1.550575287643821866e+03 4.695182366255272097e-04
1.551475737868934402e+03 4.670070521735993400e-04
1.552376188094046938e+03 4.636642639478235294e-04
1.553276638319159474e+03 4.608338053808982678e-04
1.554177088544272010e+03 4.591664615670889671e-04
1.555077538769384546e+03 4.589360745361681024e-04
1.555977988994497082e+03 4.599491568781524740e-04
1.556878439219609618e+03 4.616153872966839451e-04
1.557778889444722381e+03 4.631204231753215236e-04
1.558679339669834917e+03 4.631821164369443128e-04
1.559579789894947453e+03 4.613951903355229737e-04
1.560480240120059989e+03 4.591889316493476432e-04
1.561380690345172525e+03 4.573472198315569129e-04
1.562281140570285061e+03 4.549834784506896616e-04
1.563181590795397597e+03 4.528550683602439522e-04
1.564082041020510133e+03 4.535960538541833863e-04
1.564982491245622668e+03 4.584549650171886753e-04
1.565882941470735204e+03 4.673707336662351244e-04
1.566783391695847740e+03 4.803400779575178812e-04
1.567683841920960504e+03 4.962379035090670005e-04
1.568584292146073039e+03 5.112652031921750048e-04
1.569484742371185575e+03 5.215133602107299834e-04
1.570385192596298111e+03 5.272015173336772357e-04
1.571285642821410647e+03 5.327099998711473834e-04
1.572186093046523183e+03 5.437508748037442720e-04
1.573086543271635719e+03 5.651790679982225760e-04
1.573986993496748255e+03 5.984956820263205059e-04
1.574887443721860791e+03 6.403296286423030637e-04
1.575787893946973327e+03 6.855650585180300075e-04
1.576688344172085863e+03 7.260925008937654974e-04
1.577588794397198626e+03 7.456374674882985639e-04
1.578489244622311162e+03 7.226694502374403231e-04
1.579389694847423698e+03 6.475295255047167683e-04
1.580290145072536234e+03 5.413930302259772507e-04
1.581190595297648770e+03 4.386067798580767924e-04
1.582091045522761306e+03 3.561863889298757537e-04
1.582991495747873842e+03 2.934490440153262572e-04
1.583891945972986377e+03 2.455612802690881457e-04
1.584792396198098913e+03 2.092134514583155326e-04
1.585692846423211449e+03 1.817864975642249806e-04
1.586593296648323985e+03 1.609307159040297892e-04
1.587493746873436749e+03 1.447966185968709257e-04
1.588394197098549284e+03 1.320607319819030209e-04
1.589294647323661820e+03 1.218066320685293847e-04
1.590195097548774356e+03 1.133997685621418829e-04
1.591095547773886892e+03 1.063947692068327217e-04
1.591995997998999428e+03 1.004733235906244142e-04
1.592896448224111964e+03 9.540360422959289508e-05
1.593796898449224500e+03 9.101369792860181096e-05
1.594697348674337036e+03 8.717398312549006162e-05
1.595597798899449572e+03 8.378524373101636541e-05
1.596498249124562108e+03 8.077051137101503241e-05
1.597398699349674871e+03 7.806937318368626505e-05
1.598299149574787407e+03 7.563394148727377504e-05
1.599199599799899943e+03 7.342596707594504970e-05
1.600100050025012479e+03 7.141475859701462302e-05
1.601000500250125015e+03 6.957568809650793804e-05
1.601900950475237551e+03 6.788914300998341274e-05
1.602801400700350086e+03 6.633984423807119169e-05
1.603701850925462622e+03 6.491650058195437361e-05
1.604602301150575158e+03 6.361182231495763424e-05
1.605502751375687694e+03 6.242298181449310241e-05
1.606403201600800230e+03 6.135269583765782999e-05
1.607303651825912766e+03 6.041120067376739959e-05
1.608204102051025529e+03 5.961937979734428322e-05
1.609104552276138065e+03 5.901261155655787344e-05
1.610005002501250601e+03 5.864129492311521589e-05
1.610905452726363137e+03 5.855072415019814614e-05
1.611805902951475673e+03 5.869264778741122951e-05
1.612706353176588209e+03 5.874081184023780688e-05
1.613606803401700745e+03 5.811653252570690503e-05
1.614507253626813281e+03 5.665043325345061389e-05
1.615407703851925817e+03 5.484020368896611513e-05
1.616308154077038353e+03 5.315442030662830729e-05
1.617208604302150889e+03 5.173072901154704645e-05
1.618109054527263652e+03 5.054055838346333522e-05
1.619009504752376188e+03 4.952414676547186852e-05
1.619909954977488724e+03 4.863201881762101614e-05
1.620810405202601260e+03 4.782965036171019763e-05
1.621710855427713796e+03 4.709393980612452870e-05
1.622611305652826331e+03 4.640940873975269923e-05
1.623511755877938867e+03 4.576549458213198979e-05
1.624412206103051403e+03 4.515480611083608377e-05
1.625312656328163939e+03 4.457202785255947810e-05
1.626213106553276475e+03 4.401323081913188805e-05
1.627113556778389011e+03 4.347543316566519490e-05
1.628014007003501774e+03 4.295631508119042723e-05
1.628914457228614310e+03 4.245403006793726602e-05
1.629814907453726846e+03 4.196707747074694656e-05
1.630715357678839382e+03 4.149421464350024557e-05
1.631615807903951918e+03 4.103439524668938191e-05
1.632516258129064454e+03 4.058672509037001690e-05
1.633416708354176990e+03 4.015042996844235410e-05
1.634317158579289526e+03 3.972483182910971079e-05
1.635217608804402062e+03 3.930933083560324927e-05
1.636118059029514598e+03 3.890339165406423187e-05
1.637018509254627133e+03 3.850653282029303418e-05
1.637918959479739897e+03 3.811831838087426669e-05
1.638819409704852433e+03 3.773835123716083318e-05
1.639719859929964969e+03 3.736626778066848308e-05
1.640620310155077505e+03 3.700173351991979252e-05
1.641520760380190040e+03 3.664443947737399060e-05
1.642421210605302576e+03 3.629409919118810194e-05
1.643321660830415112e+03 3.595044619708378375e-05
1.644222111055527648e+03 3.561323189515948698e-05
1.645122561280640184e+03 3.528222372832057701e-05
1.646023011505752720e+03 3.495720361526943838e-05
1.646923461730865256e+03 3.463796659322633786e-05
1.647823911955978019e+03 3.432431963487330285e-05
1.648724362181090555e+03 3.401608061112074578e-05
1.649624812406203091e+03 3.371307737681718698e-05
1.650525262631315627e+03 3.341514696082293034e-05
1.651425712856428163e+03 3.312213484523488492e-05
1.652326163081540699e+03 3.283389432122755630e-05
1.653226613306653235e+03 3.255028591111180084e-05
1.654127063531765771e+03 3.227117684791976158e-05
1.655027513756878307e+03 3.199644060521453459e-05
1.655927963981990843e+03 3.172595647095268406e-05
1.656828414207103378e+03 3.145960916015205392e-05
1.657728864432216142e+03 3.119728846187797320e-05
1.658629314657328678e+03 3.093888891670039414e-05
1.659529764882441214e+03 3.068430952129273077e-05
1.660430215107553749e+03 3.043345345729572474e-05
1.661330665332666285e+03 3.018622784193633268e-05
1.662231115557778821e+03 2.994254349820705727e-05
1.663131565782891357e+03 2.970231474268874758e-05
1.664032016008003893e+03 2.946545918931546415e-05
1.664932466233116429e+03 2.923189756759311765e-05
1.665832916458228965e+03 2.900155355394019285e-05
1.666733366683341501e+03 2.877435361497571655e-05
1.667633816908454037e+03 2.855022686170247129e-05
1.668534267133566800e+03 2.832910491364546863e-05
1.669434717358679336e+03 2.811092177210770560e-05
1.670335167583791872e+03 2.789561370178124034e-05
1.671235617808904408e+03 2.768311912003833250e-05
1.672136068034016944e+03 2.747337849328602191e-05
1.673036518259129480e+03 2.726633423982930492e-05
1.673936968484242016e+03 2.706193063873757216e-05
1.674837418709354552e+03 2.686011374426267297e-05
1.675737868934467087e+03 2.666083130538649619e-05
1.676638319159579623e+03 2.646403269012604021e-05
1.677538769384692159e+03 2.626966881424604611e-05
1.678439219609804923e+03 2.607769207406768561e-05
1.679339669834917459e+03 2.588805628308152806e-05
1.680240120060029994e+03 2.570071661210251467e-05
1.681140570285142530e+03 2.551562953272227272e-05
1.682041020510255066e+03 2.533275276383823631e-05
1.682941470735367602e+03 2.515204522105247406e-05
1.683841920960480138e+03 2.497346696875203681e-05
1.684742371185592674e+03 2.479697917469535388e-05
1.685642821410705210e+03 2.462254406694642858e-05
1.686543271635817746e+03 2.445012489300530867e-05
1.687443721860930282e+03 2.427968588099834463e-05
1.688344172086043045e+03 2.411119220280226805e-05
1.689244622311155581e+03 2.394460993898068680e-05
1.690145072536268117e+03 2.377990604542635209e-05
1.691045522761380653e+03 2.361704832160648962e-05
1.691945972986493189e+03 2.345600538031535800e-05
1.692846423211605725e+03 2.329674661884793206e-05
1.693746873436718261e+03 2.313924219151208451e-05
1.694647323661830796e+03 2.298346298340080024e-05
1.695547773886943332e+03 2.282938058535678944e-05
1.696448224112055868e+03 2.267696727006062888e-05
1.697348674337168404e+03 2.252619596917942581e-05
1.698249124562281168e+03 2.237704025152137060e-05
1.699149574787393703e+03 2.222947430213730965e-05
1.700050025012506239e+03 2.208347290232339522e-05
1.700950475237618775e+03 2.193901141047259782e-05
1.701850925462731311e+03 2.179606574373272281e-05
1.702751375687843847e+03 2.165461236042940938e-05
1.703651825912956383e+03 2.151462824321441017e-05
1.704552276138068919e+03 2.137609088289929313e-05
1.705452726363181455e+03 2.123897826294585838e-05
1.706353176588293991e+03 2.110326884457483816e-05
1.707253626813406527e+03 2.096894155246521596e-05
1.708154077038519290e+03 2.083597576101429847e-05
1.709054527263631826e+03 2.070435128113206187e-05
1.709954977488744362e+03 2.057404834754207823e-05
1.710855427713856898e+03 2.044504760656893003e-05
1.711755877938969434e+03 2.031733010438309712e-05
1.712656328164081970e+03 2.019087727568776104e-05
1.713556778389194506e+03 2.006567093282414190e-05
1.714457228614307041e+03 1.994169325527577423e-05
1.715357678839419577e+03 1.981892677955486242e-05
1.716258129064532113e+03 1.969735438945326015e-05
1.717158579289644649e+03 1.957695930664063506e-05
1.718059029514757185e+03 1.945772508159595448e-05
1.718959479739869948e+03 1.933963558485647292e-05
1.719859929964982484e+03 1.922267499857050626e-05
1.720760380190095020e+03 1.910682780834276780e-05
1.721660830415207556e+03 1.899207879535575223e-05
1.722561280640320092e+03 1.887841302875995774e-05
1.723461730865432628e+03 1.876581585831784880e-05
1.724362181090545164e+03 1.865427290729356334e-05
1.725262631315657700e+03 1.854377006557767515e-05
1.726163081540770236e+03 1.843429348303530181e-05
1.727063531765882772e+03 1.832582956307128008e-05
1.727963981990995308e+03 1.821836495640275936e-05
1.728864432216108071e+03 1.811188655502851347e-05
1.729764882441220607e+03 1.800638148639272773e-05
1.730665332666333143e+03 1.790183710772789638e-05
1.731565782891445679e+03 1.779824100057717903e-05
1.732466233116558215e+03 1.769558096548516429e-05
1.733366683341670750e+03 1.759384501685007108e-05
1.734267133566783286e+03 1.749302137793477539e-05
1.735167583791895822e+03 1.739309847602753148e-05
1.736068034017008358e+03 1.729406493774670561e-05
1.736968484242120894e+03 1.719590958448720150e-05
1.737868934467233430e+03 1.709862142799929049e-05
1.738769384692346193e+03 1.700218966609803731e-05
1.739669834917458729e+03 1.690660367849732443e-05
1.740570285142571265e+03 1.681185302276395508e-05
1.741470735367683801e+03 1.671792743038790153e-05
1.742371185592796337e+03 1.662481680296390424e-05
1.743271635817908873e+03 1.653251120848096278e-05
1.744172086043021409e+03 1.644100087771699424e-05
1.745072536268133945e+03 1.635027620073166625e-05
1.745972986493246481e+03 1.626032772345913915e-05
1.746873436718359017e+03 1.617114614439054969e-05
1.747773886943471553e+03 1.608272231135139958e-05
1.748674337168584316e+03 1.599504721836163493e-05
1.749574787393696852e+03 1.590811200258470802e-05
1.750475237618809388e+03 1.582190794135409533e-05
1.751375687843921924e+03 1.573642644928138469e-05
1.752276138069034459e+03 1.565165907543972137e-05
1.753176588294146995e+03 1.556759750062083414e-05
1.754077038519259531e+03 1.548423353466360860e-05
1.754977488744372067e+03 1.540155911385182236e-05
1.755877938969484603e+03 1.531956629837885345e-05
1.756778389194597139e+03 1.523824726987640075e-05
1.757678839419709675e+03 1.515759432900709942e-05
1.758579289644822438e+03 1.507759989311628640e-05
1.759479739869934974e+03 1.499825649394402042e-05
1.760380190095047510e+03 1.491955677539310615e-05
1.761280640320160046e+03 1.484149349135273280e-05
1.762181090545272582e+03 1.476405950357549110e-05
1.763081540770385118e+03 1.468724777960656067e-05
1.763981990995497654e+03 1.461105139076288427e-05
1.764882441220610190e+03 1.453546351016135298e-05
1.765782891445722726e+03 1.446047741079410173e-05
1.766683341670835262e+03 1.438608646365031708e-05
1.767583791895947797e+03 1.431228413588183320e-05
1.768484242121060333e+03 1.423906398901280745e-05
1.769384692346173097e+03 1.416641967719089552e-05
1.770285142571285633e+03 1.409434494547918070e-05
1.771185592796398169e+03 1.402283362818866243e-05
1.772086043021510704e+03 1.395187964724746042e-05
1.772986493246623240e+03 1.388147701060936845e-05
1.773886943471735776e+03 1.381161981069774646e-05
1.774787393696848312e+03 1.374230222288456448e-05
1.775687843921960848e+03 1.367351850400422397e-05
1.776588294147073384e+03 1.360526299090070836e-05
1.777488744372185920e+03 1.353753009900693593e-05
1.778389194597298456e+03 1.347031432095654062e-05
1.779289644822411219e+03 1.340361022522445358e-05
1.780190095047523755e+03 1.333741245479969911e-05
1.781090545272636291e+03 1.327171572588572255e-05
1.781990995497748827e+03 1.320651482662922932e-05
1.782891445722861363e+03 1.314180461587709289e-05
1.783791895947973899e+03 1.307758002195968177e-05
1.784692346173086435e+03 1.301383604150019032e-05
1.785592796398198971e+03 1.295056773824942135e-05
1.786493246623311506e+03 1.288777024194565260e-05
1.787393696848424042e+03 1.282543874719822530e-05
1.788294147073536578e+03 1.276356851239468706e-05
1.789194597298649342e+03 1.270215485863075881e-05
1.790095047523761878e+03 1.264119316866340719e-05
1.790995497748874413e+03 1.258067888588340883e-05
1.791895947973986949e+03 1.252060751331221260e-05
1.792796398199099485e+03 1.246097461261674715e-05
1.793696848424212021e+03 1.240177580314580740e-05
1.794597298649324557e+03 1.234300676098570768e-05
1.795497748874437093e+03 1.228466321803485760e-05
1.796398199099549629e+03 1.222674096109747402e-05
1.797298649324662165e+03 1.216923583099463527e-05
1.798199099549774701e+03 1.211214372169399033e-05
1.799099549774887464e+03 1.205546057945670689e-05
1.800000000000000000e+03 1.199918240200074342e-05
