0.000000000000000000e+00 1.093820502227836047e-03
9.004502251125562351e-01 1.464903241951840979e-03
1.800900450225112470e+00 1.969289479691498264e-03
2.701350675337668594e+00 2.566625763957666988e-03
3.601800900450224940e+00 3.055582439765676828e-03
4.502251125562780842e+00 3.131370555256821932e-03
5.402701350675337189e+00 2.735614308174011845e-03
6.303151575787893535e+00 2.140863684864982228e-03
7.203601800900449881e+00 1.599949489804049349e-03
8.104052026013006227e+00 1.191171949290315826e-03
9.004502251125561685e+00 9.005009790430642180e-04
9.904952476238118919e+00 6.954849943594323698e-04
1.080540270135067438e+01 5.490528185894846770e-04
1.170585292646323161e+01 4.423690311315464163e-04
1.260630315157578707e+01 3.629592138782851375e-04
1.350675337668834430e+01 3.026177755734342847e-04
1.440720360180089976e+01 2.558928340903799574e-04
1.530765382691345522e+01 2.191022736707696030e-04
1.620810405202601245e+01 1.897142022533647790e-04
1.710855427713856969e+01 1.659509812176782030e-04
1.800900450225112337e+01 1.465151314524514655e-04
1.890945472736368060e+01 1.303739939786904595e-04
1.980990495247623784e+01 1.166540288137125903e-04
2.071035517758879507e+01 1.047644506832834870e-04
2.161080540270134875e+01 9.444844898727593468e-05
2.251125562781390599e+01 8.554471275818467365e-05
2.341170585292646322e+01 7.785854509594907651e-05
2.431215607803901690e+01 7.119161194299274196e-05
2.521260630315157414e+01 6.537287771476921595e-05
2.611305652826413137e+01 6.026400713212078542e-05
2.701350675337668861e+01 5.575510338021606033e-05
2.791395697848924229e+01 5.175904821392212979e-05
2.881440720360179952e+01 4.820663166728655718e-05
2.971485742871435676e+01 4.504244493454866372e-05
3.061530765382691044e+01 4.221934288659875647e-05
3.151575787893946767e+01 3.968835632248644672e-05
3.241620810405202491e+01 3.738832320797880161e-05
3.331665832916458214e+01 3.525500334348206715e-05
3.421710855427713938e+01 3.325708604920041576e-05
3.511755877938969661e+01 3.140978334123226996e-05
3.601800900450224674e+01 2.973222671379833145e-05
3.691845922961480397e+01 2.821691442208224606e-05
3.781890945472736121e+01 2.682847483769350226e-05
3.871935967983991844e+01 2.551809024000557078e-05
3.961980990495247568e+01 2.426574869276199809e-05
4.052026013006503291e+01 2.308938582792396376e-05
4.142071035517759015e+01 2.200434832339909696e-05
4.232116058029014027e+01 2.100935010226102974e-05
4.322161080540269751e+01 2.009605447213495160e-05
4.412206103051525474e+01 1.925605454944482226e-05
4.502251125562781198e+01 1.848298022826754696e-05
4.592296148074036921e+01 1.777284534306438992e-05
4.682341170585292645e+01 1.712397318120728324e-05
4.772386193096548368e+01 1.653630765824194650e-05
4.862431215607803381e+01 1.600799047851977696e-05
4.952476238119059104e+01 1.552561182940229796e-05
5.042521260630314828e+01 1.505505103593527982e-05
5.132566283141570551e+01 1.456587816191209655e-05
5.222611305652826275e+01 1.407405976982157339e-05
5.312656328164081998e+01 1.361881942066360848e-05
5.402701350675337721e+01 1.321453493735223808e-05
5.492746373186592734e+01 1.284016086237917347e-05
5.582791395697848458e+01 1.246052408984946308e-05
5.672836418209104181e+01 1.206556132674602580e-05
5.762881440720359905e+01 1.166843799352281248e-05
5.852926463231615628e+01 1.128531600517798080e-05
5.942971485742871351e+01 1.093376606488910927e-05
6.033016508254127075e+01 1.062502737125251936e-05
6.123061530765382088e+01 1.036241337163551230e-05
6.213106553276637811e+01 1.014419200401971004e-05
6.303151575787893535e+01 9.958905108002752811e-06
6.393196598299149258e+01 9.779115024486145636e-06
6.483241620810404982e+01 9.579446954539748871e-06
6.573286643321659994e+01 9.363814569312571933e-06
6.663331665832916428e+01 9.147513496519951937e-06
6.753376688344171441e+01 8.937956821100365550e-06
6.843421710855427875e+01 8.729363517665561560e-06
6.933466733366682888e+01 8.496752545739548517e-06
7.023511755877939322e+01 8.234042436911184312e-06
7.113556778389194335e+01 7.970746357282917582e-06
7.203601800900449348e+01 7.732334844871398952e-06
7.293646823411705782e+01 7.524830119295915226e-06
7.383691845922960795e+01 7.345239098566734231e-06
7.473736868434217229e+01 7.188831203057489292e-06
7.563781890945472242e+01 7.049984514931067713e-06
7.653826913456728676e+01 6.922719495213960424e-06
7.743871935967983688e+01 6.805985097021917164e-06
7.833916958479238701e+01 6.705053405837870420e-06
7.923961980990495135e+01 6.623843382279822455e-06
8.014007003501750148e+01 6.561975909281739023e-06
8.104052026013006582e+01 6.521974632583769041e-06
8.194097048524261595e+01 6.509136402364231562e-06
8.284142071035518029e+01 6.509580377477052104e-06
8.374187093546773042e+01 6.477569813211493232e-06
8.464232116058028055e+01 6.376662190407168455e-06
8.554277138569284489e+01 6.225671140392576353e-06
8.644322161080539502e+01 6.065641231152115427e-06
8.734367183591795936e+01 5.912427296572382774e-06
8.824412206103050949e+01 5.761172191277476583e-06
8.914457228614307382e+01 5.616759770898381484e-06
9.004502251125562395e+01 5.492249777602130471e-06
9.094547273636817408e+01 5.392800636907010966e-06
9.184592296148073842e+01 5.318310010183846031e-06
9.274637318659328855e+01 5.270007660002159710e-06
9.364682341170585289e+01 5.247027641472964259e-06
9.454727363681840302e+01 5.237399765764079545e-06
9.544772386193096736e+01 5.216751758688384830e-06
9.634817408704351749e+01 5.170772546862242955e-06
9.724862431215606762e+01 5.115601980699883602e-06
9.814907453726863196e+01 5.079087838766833677e-06
9.904952476238118209e+01 5.070102338219936097e-06
9.994997498749374643e+01 5.068841064505895887e-06
1.008504252126062966e+02 5.046726479529306144e-06
1.017508754377188609e+02 4.997417436846380667e-06
1.026513256628314110e+02 4.942781243763102321e-06
1.035517758879439612e+02 4.916273156342457409e-06
1.044522261130565255e+02 4.934375592553000821e-06
1.053526763381690756e+02 4.974033882583203385e-06
1.062531265632816400e+02 4.974223445408359645e-06
1.071535767883941901e+02 4.897813846191711055e-06
1.080540270135067544e+02 4.783881639325653724e-06
1.089544772386193046e+02 4.687742937830090839e-06
1.098549274637318547e+02 4.623966060116081869e-06
1.107553776888444190e+02 4.584013236300648220e-06
1.116558279139569692e+02 4.571349433215933927e-06
1.125562781390695335e+02 4.598173279650628482e-06
1.134567283641820836e+02 4.657044150030395681e-06
1.143571785892946480e+02 4.716500026596976496e-06
1.152576288144071981e+02 4.748521079932222713e-06
1.161580790395197482e+02 4.747436292250118243e-06
1.170585292646323126e+02 4.713480904855004409e-06
1.179589794897448627e+02 4.645192963187364536e-06
1.188594297148574270e+02 4.552773030795584646e-06
1.197598799399699772e+02 4.447999930836564444e-06
1.206603301650825415e+02 4.342096111298156740e-06
1.215607803901950916e+02 4.261630460462501112e-06
1.224612306153076418e+02 4.227485575719309326e-06
1.233616808404202061e+02 4.228957279998549579e-06
1.242621310655327562e+02 4.229077465501261159e-06
1.251625812906453206e+02 4.203066620297576310e-06
1.260630315157578707e+02 4.166224174888422200e-06
1.269634817408704350e+02 4.149516167094061025e-06
1.278639319659829852e+02 4.170444744552773295e-06
1.287643821910955353e+02 4.232958709805694347e-06
1.296648324162080996e+02 4.327010143408076209e-06
1.305652826413206640e+02 4.434746979764201942e-06
1.314657328664331999e+02 4.543640839668930314e-06
1.323661830915457642e+02 4.623053339473294989e-06
1.332666333166583286e+02 4.638392089886577448e-06
1.341670835417708929e+02 4.595116524701518265e-06
1.350675337668834288e+02 4.528064415334815273e-06
1.359679839919959932e+02 4.472028593036309319e-06
1.368684342171085575e+02 4.438206850509495602e-06
1.377688844422210934e+02 4.407786191744288650e-06
1.386693346673336578e+02 4.360584192897102396e-06
1.395697848924462221e+02 4.307798213314481149e-06
1.404702351175587864e+02 4.273294543163022106e-06
1.413706853426713224e+02 4.256911494494221953e-06
1.422711355677838867e+02 4.237983649608305390e-06
1.431715857928964510e+02 4.207706329320232612e-06
1.440720360180089870e+02 4.187559595744075680e-06
1.449724862431215513e+02 4.195845269332309996e-06
1.458729364682341156e+02 4.222179472831084233e-06
1.467733866933466800e+02 4.251458287680968605e-06
1.476738369184592159e+02 4.287465639402450347e-06
1.485742871435717802e+02 4.329435382136830786e-06
1.494747373686843446e+02 4.366254710588537395e-06
1.503751875937968805e+02 4.405875679560510506e-06
1.512756378189094448e+02 4.444442644814673180e-06
1.521760880440220092e+02 4.452961103160645313e-06
1.530765382691345735e+02 4.419090971616987410e-06
1.539769884942471094e+02 4.358016414835881830e-06
1.548774387193596738e+02 4.302882583572693322e-06
1.557778889444722381e+02 4.278893295358897757e-06
1.566783391695847740e+02 4.275239276461981001e-06
1.575787893946973384e+02 4.265716096151869226e-06
1.584792396198099027e+02 4.250193544123127953e-06
1.593796898449224670e+02 4.254188395214279226e-06
1.602801400700350030e+02 4.304462611929632253e-06
1.611805902951475673e+02 4.399902160075339563e-06
1.620810405202601316e+02 4.504218158472001504e-06
1.629814907453726676e+02 4.584299951984564651e-06
1.638819409704852319e+02 4.626035442121646504e-06
1.647823911955977962e+02 4.635120828190212739e-06
1.656828414207103606e+02 4.664159314434218487e-06
1.665832916458228965e+02 4.768465913011175409e-06
1.674837418709354608e+02 4.935724259974576666e-06
1.683841920960480252e+02 5.081266088851885356e-06
1.692846423211605611e+02 5.119132068068834667e-06
1.701850925462731254e+02 5.041047451532839592e-06
1.710855427713856898e+02 4.905629936807519126e-06
1.719859929964982541e+02 4.780633920519199677e-06
1.728864432216107900e+02 4.700310974765539821e-06
1.737868934467233544e+02 4.663013477670630445e-06
1.746873436718359187e+02 4.651249612395542798e-06
1.755877938969484546e+02 4.642920530620041442e-06
1.764882441220610190e+02 4.619368496542262282e-06
1.773886943471735833e+02 4.574643745402442267e-06
1.782891445722861476e+02 4.515708548434931839e-06
1.791895947973986836e+02 4.447130666736307337e-06
1.800900450225112479e+02 4.372131292508221929e-06
1.809904952476238122e+02 4.300663501389433369e-06
1.818909454727363482e+02 4.257267527024480450e-06
1.827913956978489125e+02 4.276313415672652681e-06
1.836918459229614768e+02 4.381516112623962056e-06
1.845922961480740412e+02 4.555769193827037909e-06
1.854927463731865771e+02 4.747861534922627579e-06
1.863931965982991414e+02 4.913456221180214686e-06
1.872936468234117058e+02 5.033719440563176092e-06
1.881940970485242417e+02 5.101085468847259499e-06
1.890945472736368060e+02 5.091866713401822439e-06
1.899949974987493704e+02 5.005906056162119304e-06
1.908954477238619347e+02 4.893951279490404170e-06
1.917958979489744706e+02 4.787864403382108504e-06
1.926963481740870350e+02 4.678425753343110704e-06
1.935967983991995993e+02 4.565045012013807203e-06
1.944972486243121352e+02 4.473642668739907862e-06
1.953976988494246996e+02 4.434645827401116871e-06
1.962981490745372639e+02 4.457736867332202632e-06
1.971985992996498283e+02 4.507374066585835918e-06
1.980990495247623642e+02 4.534446113190446925e-06
1.989994997498749285e+02 4.533773503049961207e-06
1.998999499749874929e+02 4.550306798275149089e-06
2.008004002001000288e+02 4.613991362079656675e-06
2.017008504252125931e+02 4.695897288078473914e-06
2.026013006503251574e+02 4.750169239246409266e-06
2.035017508754377218e+02 4.749813231474319036e-06
2.044022011005502577e+02 4.698120592829583342e-06
2.053026513256628220e+02 4.624085118708289720e-06
2.062031015507753864e+02 4.542452927290534999e-06
2.071035517758879223e+02 4.442512150500027747e-06
2.080040020010004866e+02 4.324308851586599395e-06
2.089044522261130510e+02 4.218080314256156167e-06
2.098049024512256153e+02 4.141438974897508477e-06
2.107053526763381512e+02 4.069648948349114865e-06
2.116058029014507156e+02 3.990982441554313324e-06
2.125062531265632799e+02 3.940259592529253452e-06
2.134067033516758158e+02 3.946118707826862971e-06
2.143071535767883802e+02 4.009552535533956009e-06
2.152076038019009445e+02 4.127171685485764656e-06
2.161080540270135089e+02 4.282638672807428201e-06
2.170085042521260448e+02 4.446232143325753746e-06
2.179089544772386091e+02 4.591751017331428219e-06
2.188094047023511735e+02 4.688550971154622914e-06
2.197098549274637094e+02 4.698713115981912610e-06
2.206103051525762737e+02 4.626048303858073850e-06
2.215107553776888381e+02 4.509294653847194041e-06
2.224112056028014024e+02 4.378199186394582756e-06
2.233116558279139383e+02 4.255126565033936210e-06
2.242121060530265027e+02 4.142935666564880516e-06
2.251125562781390670e+02 4.030915741579894057e-06
2.260130065032516029e+02 3.928202006659985845e-06
2.269134567283641672e+02 3.849006191085240340e-06
2.278139069534767316e+02 3.783530262816321805e-06
2.287143571785892959e+02 3.719163884289130640e-06
2.296148074037018318e+02 3.673770481994574491e-06
2.305152576288143962e+02 3.684247282051173932e-06
2.314157078539269605e+02 3.772078695211584770e-06
2.323161580790394964e+02 3.929482625598716132e-06
2.332166083041520608e+02 4.124930658790583419e-06
2.341170585292646251e+02 4.332849039897445759e-06
2.350175087543771895e+02 4.553636675503047851e-06
2.359179589794897254e+02 4.773105551073140029e-06
2.368184092046022897e+02 4.926786241393409061e-06
2.377188594297148541e+02 4.965851721675505238e-06
2.386193096548273900e+02 4.917746320526795034e-06
2.395197598799399543e+02 4.844512703620270341e-06
2.404202101050525187e+02 4.795124014231721237e-06
2.413206603301650830e+02 4.790607813092484770e-06
2.422211105552776189e+02 4.812404370325113529e-06
2.431215607803901833e+02 4.829349601426255260e-06
2.440220110055027476e+02 4.843320316537434222e-06
2.449224612306152835e+02 4.879124709564568807e-06
2.458229114557278479e+02 4.956035927121350231e-06
2.467233616808404122e+02 5.083096507184080393e-06
2.476238119059529765e+02 5.255601729419155892e-06
2.485242621310655124e+02 5.463488606364369686e-06
2.494247123561780768e+02 5.681122231336435960e-06
2.503251625812906411e+02 5.865619419637825590e-06
2.512256128064031770e+02 5.987953087974834829e-06
2.521260630315157414e+02 6.052517518605168075e-06
2.530265132566283057e+02 6.082778410771394440e-06
2.539269634817408701e+02 6.073552850381888644e-06
2.548274137068534060e+02 6.004128694101096709e-06
2.557278639319659703e+02 5.872181964858934271e-06
2.566283141570785347e+02 5.688617970291411324e-06
2.575287643821910706e+02 5.484245197185021951e-06
2.584292146073036633e+02 5.286999058424438176e-06
2.593296648324161993e+02 5.088420752915424247e-06
2.602301150575287352e+02 4.880066483851374570e-06
2.611305652826413279e+02 4.700197399960048215e-06
2.620310155077538639e+02 4.594829972301477153e-06
2.629314657328663998e+02 4.579675661068076965e-06
2.638319159579789925e+02 4.657339063006946731e-06
2.647323661830915285e+02 4.821772304475136835e-06
2.656328164082040644e+02 5.043195342433290062e-06
2.665332666333166571e+02 5.291560930288295097e-06
2.674337168584291931e+02 5.560259110421419275e-06
2.683341670835417858e+02 5.847351818175657312e-06
2.692346173086543217e+02 6.132074924691068141e-06
2.701350675337668577e+02 6.374718482806060324e-06
2.710355177588794504e+02 6.534073475409879524e-06
2.719359679839919863e+02 6.578884745209449920e-06
2.728364182091045222e+02 6.510884143470901581e-06
2.737368684342171150e+02 6.369066349280675742e-06
2.746373186593296509e+02 6.206349529568272469e-06
2.755377688844421868e+02 6.059919645097621605e-06
2.764382191095547796e+02 5.925781940667550270e-06
2.773386693346673155e+02 5.794119861472199776e-06
2.782391195597798514e+02 5.674837641367754525e-06
2.791395697848924442e+02 5.577146659534632260e-06
2.800400200100049801e+02 5.511813922969881312e-06
2.809404702351175729e+02 5.509269781815532949e-06
2.818409204602301088e+02 5.606306159601192655e-06
2.827413706853426447e+02 5.811851743584912000e-06
2.836418209104552375e+02 6.098602225908471066e-06
2.845422711355677734e+02 6.419897222311110565e-06
2.854427213606803093e+02 6.727892807422350374e-06
2.863431715857929021e+02 6.979633026169835403e-06
2.872436218109054380e+02 7.146937581524365042e-06
2.881440720360179739e+02 7.239593716468781674e-06
2.890445222611305667e+02 7.290537835433879963e-06
2.899449724862431026e+02 7.318880346193429284e-06
2.908454227113556385e+02 7.321721321369922449e-06
2.917458729364682313e+02 7.277695018383250366e-06
2.926463231615807672e+02 7.169659841214895281e-06
2.935467733866933600e+02 7.035182375878857790e-06
2.944472236118058959e+02 6.939484181780806311e-06
2.953476738369184318e+02 6.912801698447431740e-06
2.962481240620310246e+02 6.963888763845596740e-06
2.971485742871435605e+02 7.104791192186214646e-06
2.980490245122560964e+02 7.336191976621442520e-06
2.989494747373686891e+02 7.634067805571086016e-06
2.998499249624812251e+02 7.959824998245348864e-06
3.007503751875937610e+02 8.268617909188328855e-06
3.016508254127063537e+02 8.526269241260721527e-06
3.025512756378188897e+02 8.718508560370981974e-06
3.034517258629314256e+02 8.846799335707095869e-06
3.043521760880440183e+02 8.939858445638950495e-06
3.052526263131565543e+02 9.024870134619258227e-06
3.061530765382691470e+02 9.071452654325946619e-06
3.070535267633816829e+02 9.022299897885333178e-06
3.079539769884942189e+02 8.875347188162104357e-06
3.088544272136068116e+02 8.709446105255064336e-06
3.097548774387193475e+02 8.637909006465413028e-06
3.106553276638318835e+02 8.712627189011101715e-06
3.115557778889444762e+02 8.894180544552325674e-06
3.124562281140570121e+02 9.118867720002421517e-06
3.133566783391695481e+02 9.352785405268134998e-06
3.142571285642821408e+02 9.602515984846233697e-06
3.151575787893946767e+02 9.873099414781008593e-06
3.160580290145072127e+02 1.011135525516055370e-05
3.169584792396198054e+02 1.024839955986705912e-05
3.178589294647323413e+02 1.027924085755616529e-05
3.187593796898449341e+02 1.025727305889481103e-05
3.196598299149574700e+02 1.022164209177833943e-05
3.205602801400700059e+02 1.015337096947368379e-05
3.214607303651825987e+02 1.002488782077775392e-05
3.223611805902951346e+02 9.855367157613912423e-06
3.232616308154076705e+02 9.663420460799998675e-06
3.241620810405202633e+02 9.469458605571971923e-06
3.250625312656327992e+02 9.316421488617454287e-06
3.259629814907453351e+02 9.245122997788847815e-06
3.268634317158579279e+02 9.278062542311112676e-06
3.277638819409704638e+02 9.431077682117393199e-06
3.286643321660829997e+02 9.718266210315960036e-06
3.295647823911955925e+02 1.012367442053177841e-05
3.304652326163081284e+02 1.059207186243693981e-05
3.313656828414207212e+02 1.103658446159924425e-05
3.322661330665332571e+02 1.134916949250659049e-05
3.331665832916457930e+02 1.146710689159389925e-05
3.340670335167583858e+02 1.140540175264808661e-05
3.349674837418709217e+02 1.123866286286084618e-05
3.358679339669834576e+02 1.107312659460494037e-05
3.367683841920960504e+02 1.097934648796038441e-05
3.376688344172085863e+02 1.093914901874870571e-05
3.385692846423211222e+02 1.089697808647212382e-05
3.394697348674337150e+02 1.082137158887602277e-05
3.403701850925462509e+02 1.070382166505441174e-05
3.412706353176587868e+02 1.058052671745147449e-05
3.421710855427713796e+02 1.049088670632930233e-05
3.430715357678839155e+02 1.046045490852082908e-05
3.439719859929965082e+02 1.050113542332279366e-05
3.448724362181090441e+02 1.057984651863609410e-05
3.457728864432215801e+02 1.065976990803430790e-05
3.466733366683341728e+02 1.075762308745763552e-05
3.475737868934467087e+02 1.088242682715380106e-05
3.484742371185592447e+02 1.097259455461295468e-05
3.493746873436718374e+02 1.098694873974709458e-05
3.502751375687843733e+02 1.097655618643607391e-05
3.511755877938969093e+02 1.099604977561374999e-05
3.520760380190095020e+02 1.103857022174807149e-05
3.529764882441220379e+02 1.110316361055167825e-05
3.538769384692345739e+02 1.120417484385210385e-05
3.547773886943471666e+02 1.130929600277273797e-05
3.556778389194597025e+02 1.137103889305182106e-05
3.565782891445722953e+02 1.138061870010517736e-05
3.574787393696848312e+02 1.138480285648485608e-05
3.583791895947973671e+02 1.142557993183676995e-05
3.592796398199099599e+02 1.147185812003862039e-05
3.601800900450224958e+02 1.146699512753858619e-05
3.610805402701350317e+02 1.137538395342766618e-05
3.619809904952476245e+02 1.122423836577905451e-05
3.628814407203601604e+02 1.113334902855860654e-05
3.637818909454726963e+02 1.117015624821528688e-05
3.646823411705852891e+02 1.125339455047774060e-05
3.655827913956978250e+02 1.128850700502894089e-05
3.664832416208103609e+02 1.128725042623277045e-05
3.673836918459229537e+02 1.130799666208975579e-05
3.682841420710354896e+02 1.136124761834869244e-05
3.691845922961480824e+02 1.139214052682213653e-05
3.700850425212606183e+02 1.132476162604769802e-05
3.709854927463731542e+02 1.113616942086092071e-05
3.718859429714857470e+02 1.089562555929565980e-05
3.727863931965982829e+02 1.069087099917024339e-05
3.736868434217108188e+02 1.056448348019808927e-05
3.745872936468234116e+02 1.053159362717765834e-05
3.754877438719359475e+02 1.057701529188104323e-05
3.763881940970484834e+02 1.064810625718846811e-05
3.772886443221610762e+02 1.069014475039605255e-05
3.781890945472736121e+02 1.068070794882689019e-05
3.790895447723861480e+02 1.063136507512787574e-05
3.799899949974987408e+02 1.054109790722701658e-05
3.808904452226112767e+02 1.036345689845164993e-05
3.817908954477238694e+02 1.008536282206158529e-05
3.826913456728364054e+02 9.794550724531357082e-06
3.835917958979489413e+02 9.592271332153990828e-06
3.844922461230615340e+02 9.488471139647595967e-06
3.853926963481740700e+02 9.443523855832889312e-06
3.862931465732866059e+02 9.442050922102152428e-06
3.871935967983991986e+02 9.485340388957476751e-06
3.880940470235117346e+02 9.558088149316205990e-06
3.889944972486242705e+02 9.626275343942901491e-06
3.898949474737368632e+02 9.680727061775775590e-06
3.907953976988493991e+02 9.736019651479424741e-06
3.916958479239619351e+02 9.783773701696290336e-06
3.925962981490745278e+02 9.806532145860217940e-06
3.934967483741870637e+02 9.816424492380664289e-06
3.943971985992996565e+02 9.829276195726561360e-06
3.952976488244121924e+02 9.826926354576128497e-06
3.961980990495247283e+02 9.787537509024714201e-06
3.970985492746373211e+02 9.720246757883295075e-06
3.979989994997498570e+02 9.648184567945414803e-06
3.988994497248623929e+02 9.588609687902322249e-06
3.997998999499749857e+02 9.556844433046139849e-06
4.007003501750875216e+02 9.578941026460265263e-06
4.016008004002000575e+02 9.667049855938321130e-06
4.025012506253126503e+02 9.792554974739311102e-06
4.034017008504251862e+02 9.893392837712327781e-06
4.043021510755377221e+02 9.916762653628693704e-06
4.052026013006503149e+02 9.854828250248915726e-06
4.061030515257628508e+02 9.740775270738472391e-06
4.070035017508754436e+02 9.626514744185261547e-06
4.079039519759879795e+02 9.545905211299627639e-06
4.088044022011005154e+02 9.507215227229156795e-06
4.097048524262131082e+02 9.514009573375250615e-06
4.106053026513256441e+02 9.566219200526243117e-06
4.115057528764381800e+02 9.630965358079104940e-06
4.124062031015507728e+02 9.656790574622929550e-06
4.133066533266633087e+02 9.617489366691612141e-06
4.142071035517758446e+02 9.514312223678827118e-06
4.151075537768884374e+02 9.372621341032638794e-06
4.160080040020009733e+02 9.242882993406073189e-06
4.169084542271135092e+02 9.181600859050591737e-06
4.178089044522261020e+02 9.214995899346607069e-06
4.187093546773386379e+02 9.313658928090895486e-06
4.196098049024512306e+02 9.428445028211732490e-06
4.205102551275637666e+02 9.541085220496718091e-06
4.214107053526763025e+02 9.663924386289031435e-06
4.223111555777888952e+02 9.799956477025883387e-06
4.232116058029014312e+02 9.918784351647595118e-06
4.241120560280139671e+02 9.978638278655113701e-06
4.250125062531265598e+02 9.983295331577761905e-06
4.259129564782390958e+02 9.964078021188894937e-06
4.268134067033516317e+02 9.928077712677037999e-06
4.277138569284642244e+02 9.879662952552915905e-06
4.286143071535767604e+02 9.833899032175113760e-06
4.295147573786892963e+02 9.780018212708692940e-06
4.304152076038018890e+02 9.693548353397055996e-06
4.313156578289144250e+02 9.570852466056361011e-06
4.322161080540270177e+02 9.433807963259349184e-06
4.331165582791395536e+02 9.304051689847027840e-06
4.340170085042520896e+02 9.197645563802237651e-06
4.349174587293646823e+02 9.117609332645534113e-06
4.358179089544772182e+02 9.065528697552555253e-06
4.367183591795897541e+02 9.064647137138769190e-06
4.376188094047023469e+02 9.128958796924106382e-06
4.385192596298148828e+02 9.232226055129495729e-06
4.394197098549274187e+02 9.319383637121209481e-06
4.403201600800400115e+02 9.350296408976126449e-06
4.412206103051525474e+02 9.338332411626588348e-06
4.421210605302650833e+02 9.315701154054319556e-06
4.430215107553776761e+02 9.309828413950890032e-06
4.439219609804902120e+02 9.334862933082221790e-06
4.448224112056028048e+02 9.373946385968905069e-06
4.457228614307153407e+02 9.393027133347805875e-06
4.466233116558278766e+02 9.371677929948452727e-06
4.475237618809404694e+02 9.340314753853376173e-06
4.484242121060530053e+02 9.342527868884220019e-06
4.493246623311655412e+02 9.380186753448912330e-06
4.502251125562781340e+02 9.439168770492553241e-06
4.511255627813906699e+02 9.506039028586860671e-06
4.520260130065032058e+02 9.569876056034225234e-06
4.529264632316157986e+02 9.631796444348080633e-06
4.538269134567283345e+02 9.689864491516896999e-06
4.547273636818408704e+02 9.721453474921449461e-06
4.556278139069534632e+02 9.718573124440203792e-06
4.565282641320659991e+02 9.702752248079694029e-06
4.574287143571785919e+02 9.688169270027334140e-06
4.583291645822911278e+02 9.679347345903785768e-06
4.592296148074036637e+02 9.684384486829890511e-06
4.601300650325162565e+02 9.715536591401695898e-06
4.610305152576287924e+02 9.783251236323245272e-06
4.619309654827413283e+02 9.872132241965026603e-06
4.628314157078539210e+02 9.927245956005365801e-06
4.637318659329664570e+02 9.911171665263611999e-06
4.646323161580789929e+02 9.855372534025352767e-06
4.655327663831915856e+02 9.832199039428859635e-06
4.664332166083041216e+02 9.894421573853849752e-06
4.673336668334167143e+02 1.004748527315229842e-05
4.682341170585292502e+02 1.024476351211787430e-05
4.691345672836417862e+02 1.041968564889073644e-05
4.700350175087543789e+02 1.053928443686030587e-05
4.709354677338669148e+02 1.059489301423447847e-05
4.718359179589794508e+02 1.058349459158517096e-05
4.727363681840920435e+02 1.052144707142426010e-05
4.736368184092045794e+02 1.044947357655862706e-05
4.745372686343171154e+02 1.040711826923712851e-05
4.754377188594297081e+02 1.038900887604272814e-05
4.763381690845422440e+02 1.037509283455465754e-05
4.772386193096547800e+02 1.038194007814557657e-05
4.781390695347673727e+02 1.044196458231809114e-05
4.790395197598799086e+02 1.056174562383818234e-05
4.799399699849925014e+02 1.070006195881801584e-05
4.808404202101050373e+02 1.080023812532902198e-05
4.817408704352175732e+02 1.083613875872619490e-05
4.826413206603301660e+02 1.081872365169991751e-05
4.835417708854427019e+02 1.077575174845510753e-05
4.844422211105552378e+02 1.074669704186285692e-05
4.853426713356678306e+02 1.077339391664804586e-05
4.862431215607803665e+02 1.084361922502120335e-05
4.871435717858929024e+02 1.088798416664834288e-05
4.880440220110054952e+02 1.087444450118100669e-05
4.889444722361180311e+02 1.084746238581966376e-05
4.898449224612305670e+02 1.084722851071242879e-05
4.907453726863431598e+02 1.086088537133199545e-05
4.916458229114556957e+02 1.087322588616633485e-05
4.925462731365682885e+02 1.091078737548408975e-05
4.934467233616808244e+02 1.100608156114113590e-05
4.943471735867933603e+02 1.112986118597671037e-05
4.952476238119059531e+02 1.120767629230987794e-05
4.961480740370184890e+02 1.120255625454295493e-05
4.970485242621310249e+02 1.114655823627235396e-05
4.979489744872436177e+02 1.110793086521300129e-05
4.988494247123561536e+02 1.109970153168372198e-05
4.997498749374686895e+02 1.107157349945159532e-05
5.006503251625812823e+02 1.101344447717377364e-05
5.015507753876938182e+02 1.097239088536967995e-05
5.024512256128063541e+02 1.098643868225603762e-05
5.033516758379189469e+02 1.106429008388385243e-05
5.042521260630314828e+02 1.119955399401561513e-05
5.051525762881440755e+02 1.137105534481497367e-05
5.060530265132566115e+02 1.153232910503921309e-05
5.069534767383691474e+02 1.164434512637688313e-05
5.078539269634817401e+02 1.170376711212195389e-05
5.087543771885942760e+02 1.172403004278076811e-05
5.096548274137068120e+02 1.173199274538109104e-05
5.105552776388194047e+02 1.177198122642274016e-05
5.114557278639319406e+02 1.186308422347188038e-05
5.123561780890445334e+02 1.197310241569126417e-05
5.132566283141570693e+02 1.205531172988221880e-05
5.141570785392696052e+02 1.207144794735983540e-05
5.150575287643821412e+02 1.199783792005346223e-05
5.159579789894946771e+02 1.184874883371196016e-05
5.168584292146073267e+02 1.168763902602762474e-05
5.177588794397198626e+02 1.157940338261040945e-05
5.186593296648323985e+02 1.155034148616370872e-05
5.195597798899449344e+02 1.158572371665254650e-05
5.204602301150574704e+02 1.166363232352394838e-05
5.213606803401700063e+02 1.179338338485916024e-05
5.222611305652826559e+02 1.200747927459605773e-05
5.231615807903951918e+02 1.228416587033408263e-05
5.240620310155077277e+02 1.254766173334074965e-05
5.249624812406202636e+02 1.276504615874405884e-05
5.258629314657327996e+02 1.297500190357641279e-05
5.267633816908454492e+02 1.321275314519475206e-05
5.276638319159579851e+02 1.348186715951504900e-05
5.285642821410705210e+02 1.376824016957716748e-05
5.294647323661830569e+02 1.403463476837370604e-05
5.303651825912955928e+02 1.424662867399325904e-05
5.312656328164081287e+02 1.440438519342447412e-05
5.321660830415207784e+02 1.453419469760043396e-05
5.330665332666333143e+02 1.465951825543067119e-05
5.339669834917458502e+02 1.478847359194406097e-05
5.348674337168583861e+02 1.492135363837447723e-05
5.357678839419709220e+02 1.505800264223860804e-05
5.366683341670835716e+02 1.520201239605655381e-05
5.375687843921961075e+02 1.536728613053894049e-05
5.384692346173086435e+02 1.555984936716143401e-05
5.393696848424211794e+02 1.573990173736960845e-05
5.402701350675337153e+02 1.586616790180955190e-05
5.411705852926462512e+02 1.595283777131643359e-05
5.420710355177589008e+02 1.602275241967377365e-05
5.429714857428714367e+02 1.608815666866446719e-05
5.438719359679839727e+02 1.615305286663773311e-05
5.447723861930965086e+02 1.621847486920485409e-05
5.456728364182090445e+02 1.630067244363447653e-05
5.465732866433215804e+02 1.642390469235337544e-05
5.474737368684342300e+02 1.659821888922166850e-05
5.483741870935467659e+02 1.682166120150118473e-05
5.492746373186593019e+02 1.708580110716192375e-05
5.501750875437718378e+02 1.737137221718887791e-05
5.510755377688843737e+02 1.762881082994162524e-05
5.519759879939970233e+02 1.780168238491392971e-05
5.528764382191095592e+02 1.789955815526686752e-05
5.537768884442220951e+02 1.798679726477384646e-05
5.546773386693346310e+02 1.810272406916317865e-05
5.555777888944471670e+02 1.825281843593087484e-05
5.564782391195597029e+02 1.841147864360878752e-05
5.573786893446723525e+02 1.849736904406732479e-05
5.582791395697848884e+02 1.845491660548112837e-05
5.591795897948974243e+02 1.836040389547326002e-05
5.600800400200099602e+02 1.834277034011992159e-05
5.609804902451224962e+02 1.841971544208949064e-05
5.618809404702351458e+02 1.850368067094657705e-05
5.627813906953476817e+02 1.853016607342437125e-05
5.636818409204602176e+02 1.849631123802951375e-05
5.645822911455727535e+02 1.844383741791287199e-05
5.654827413706852894e+02 1.842844638904893146e-05
5.663831915957978254e+02 1.846586263135687971e-05
5.672836418209104750e+02 1.852344964812164925e-05
5.681840920460230109e+02 1.854297864787796268e-05
5.690845422711355468e+02 1.847886837088668727e-05
5.699849924962480827e+02 1.834724574292096578e-05
5.708854427213606186e+02 1.816346238704859414e-05
5.717858929464731546e+02 1.790482661659558366e-05
5.726863431715858042e+02 1.758515780686451511e-05
5.735867933966983401e+02 1.728274882582280623e-05
5.744872436218108760e+02 1.709469572206054458e-05
5.753876938469234119e+02 1.704149455565016392e-05
5.762881440720359478e+02 1.703272143927638340e-05
5.771885942971485974e+02 1.699843499579734997e-05
5.780890445222611334e+02 1.694432146936574414e-05
5.789894947473736693e+02 1.689810505039261284e-05
5.798899449724862052e+02 1.689207815412908673e-05
5.807903951975987411e+02 1.692138850805524150e-05
5.816908454227112770e+02 1.693078756671966351e-05
5.825912956478239266e+02 1.687373174547347551e-05
5.834917458729364625e+02 1.676826824520229512e-05
5.843921960980489985e+02 1.668181454309582655e-05
5.852926463231615344e+02 1.664596640324272295e-05
5.861930965482740703e+02 1.664191740546974604e-05
5.870935467733867199e+02 1.664344896163604616e-05
5.879939969984992558e+02 1.659511291858018305e-05
5.888944472236117917e+02 1.643246375276277563e-05
5.897948974487243277e+02 1.616484054780899484e-05
5.906953476738368636e+02 1.586609554915905613e-05
5.915957978989493995e+02 1.561038911019392667e-05
5.924962481240620491e+02 1.541357830671575383e-05
5.933966983491745850e+02 1.522248697292658217e-05
5.942971485742871209e+02 1.499599130492068403e-05
5.951975987993996569e+02 1.476298418189662593e-05
5.960980490245121928e+02 1.458252289582332224e-05
5.969984992496247287e+02 1.448483637582059972e-05
5.978989494747373783e+02 1.444613481381304027e-05
5.987993996998499142e+02 1.442153526080283679e-05
5.996998499249624501e+02 1.440829038363903652e-05
6.006003001500749860e+02 1.443247657641537060e-05
6.015007503751875220e+02 1.448483157977681063e-05
6.024012006003001716e+02 1.452729273089438157e-05
6.033016508254127075e+02 1.456273719307786864e-05
6.042021010505252434e+02 1.461289194202803688e-05
6.051025512756377793e+02 1.464326789564189020e-05
6.060030015007503152e+02 1.459100951888152894e-05
6.069034517258628512e+02 1.444255497542714373e-05
6.078039019509755008e+02 1.421473419803201806e-05
6.087043521760880367e+02 1.391229039970415817e-05
6.096048024012005726e+02 1.355909705504806015e-05
6.105052526263131085e+02 1.318675633383640310e-05
6.114057028514256444e+02 1.280789161647553604e-05
6.123061530765382940e+02 1.245550750035914547e-05
6.132066033016508300e+02 1.218583936253497132e-05
6.141070535267633659e+02 1.202248296716113132e-05
6.150075037518759018e+02 1.193959261968392533e-05
6.159079539769884377e+02 1.189438117392491952e-05
6.168084042021009736e+02 1.185584443803947142e-05
6.177088544272136232e+02 1.182097539677419414e-05
6.186093046523261592e+02 1.178501667154150038e-05
6.195097548774386951e+02 1.173419023937913204e-05
6.204102051025512310e+02 1.169173657222362634e-05
6.213106553276637669e+02 1.168416286988474599e-05
6.222111055527763028e+02 1.169881662832541765e-05
6.231115557778889524e+02 1.172295684857470041e-05
6.240120060030014884e+02 1.178375024637577927e-05
6.249124562281140243e+02 1.190258778998928773e-05
6.258129064532265602e+02 1.202943799779730709e-05
6.267133566783390961e+02 1.208864078829882297e-05
6.276138069034517457e+02 1.207585837440150956e-05
6.285142571285642816e+02 1.202508386015502203e-05
6.294147073536768175e+02 1.195352739724992485e-05
6.303151575787893535e+02 1.187923965842422225e-05
6.312156078039018894e+02 1.180183993461374953e-05
6.321160580290144253e+02 1.170121004377123196e-05
6.330165082541270749e+02 1.157971076357581854e-05
6.339169584792396108e+02 1.145146502380051753e-05
6.348174087043521467e+02 1.133919602581965354e-05
6.357178589294646827e+02 1.127595267096472368e-05
6.366183091545772186e+02 1.127438195274225727e-05
6.375187593796898682e+02 1.130724597598193855e-05
6.384192096048024041e+02 1.132627712449290532e-05
6.393196598299149400e+02 1.131524395091094759e-05
6.402201100550274759e+02 1.130057809154635499e-05
6.411205602801400119e+02 1.130613515215931386e-05
6.420210105052525478e+02 1.131863913270003081e-05
6.429214607303651974e+02 1.131677122240836370e-05
6.438219109554777333e+02 1.128586368042852771e-05
6.447223611805902692e+02 1.120385867990884023e-05
6.456228114057028051e+02 1.106952481235853747e-05
6.465232616308153411e+02 1.090359956721547153e-05
6.474237118559278770e+02 1.073493490955830464e-05
6.483241620810405266e+02 1.060091058175852453e-05
6.492246123061530625e+02 1.051844615537406901e-05
6.501250625312655984e+02 1.047597050074860801e-05
6.510255127563781343e+02 1.045245656748631971e-05
6.519259629814906702e+02 1.043945519201343208e-05
6.528264132066033198e+02 1.043785605531078569e-05
6.537268634317158558e+02 1.044918746346102542e-05
6.546273136568283917e+02 1.047857968254853485e-05
6.555277638819409276e+02 1.052415269878277121e-05
6.564282141070534635e+02 1.057372192342949239e-05
6.573286643321659994e+02 1.060221498357640141e-05
6.582291145572786490e+02 1.058900767655322016e-05
6.591295647823911850e+02 1.055592243436160925e-05
6.600300150075037209e+02 1.053892791984401684e-05
6.609304652326162568e+02 1.053388384901670288e-05
6.618309154577287927e+02 1.052439751210489218e-05
6.627313656828414423e+02 1.051452536524950148e-05
6.636318159079539782e+02 1.052000764671850000e-05
6.645322661330665142e+02 1.056187479341159955e-05
6.654327163581790501e+02 1.063309326232018207e-05
6.663331665832915860e+02 1.068191716401787596e-05
6.672336168084041219e+02 1.068205706395861383e-05
6.681340670335167715e+02 1.067802365192175863e-05
6.690345172586293074e+02 1.071214001007764706e-05
6.699349674837418434e+02 1.076650352909527909e-05
6.708354177088543793e+02 1.080562030109498817e-05
6.717358679339669152e+02 1.081976719761297875e-05
6.726363181590794511e+02 1.080366145958483862e-05
6.735367683841921007e+02 1.075997397506478747e-05
6.744372186093046366e+02 1.071344655268463310e-05
6.753376688344171725e+02 1.069359899057284449e-05
6.762381190595297085e+02 1.070747608277602684e-05
6.771385692846422444e+02 1.073577029894705591e-05
6.780390195097548940e+02 1.077011828125753883e-05
6.789394697348674299e+02 1.081413086084639012e-05
6.798399199599799658e+02 1.085162424396862491e-05
6.807403701850925017e+02 1.083959233211440713e-05
6.816408204102050377e+02 1.075873739001464383e-05
6.825412706353175736e+02 1.065484449312779988e-05
6.834417208604302232e+02 1.059352321211979186e-05
6.843421710855427591e+02 1.059585062176750585e-05
6.852426213106552950e+02 1.062707988026040264e-05
6.861430715357678309e+02 1.062784008993078012e-05
6.870435217608803669e+02 1.057185730085197460e-05
6.879439719859930165e+02 1.049109136788149696e-05
6.888444222111055524e+02 1.042388902191151771e-05
6.897448724362180883e+02 1.037241079277459487e-05
6.906453226613306242e+02 1.033332025807911227e-05
6.915457728864431601e+02 1.031324017417140647e-05
6.924462231115556961e+02 1.031389978544639315e-05
6.933466733366683457e+02 1.033645427944770340e-05
6.942471235617808816e+02 1.038747719842940139e-05
6.951475737868934175e+02 1.047351191366254164e-05
6.960480240120059534e+02 1.056772284740697903e-05
6.969484742371184893e+02 1.061489986103106750e-05
6.978489244622311389e+02 1.059251795092436950e-05
6.987493746873436749e+02 1.051582633723040260e-05
6.996498249124562108e+02 1.039318743732141844e-05
7.005502751375687467e+02 1.023148018353791336e-05
7.014507253626812826e+02 1.006262638831923785e-05
7.023511755877938185e+02 9.927870905144338729e-06
7.032516258129064681e+02 9.838355343880330668e-06
7.041520760380190040e+02 9.782877916504981462e-06
7.050525262631315400e+02 9.764411650023343983e-06
7.059529764882440759e+02 9.783587749671416065e-06
7.068534267133566118e+02 9.813730662520090303e-06
7.077538769384691477e+02 9.826376946302171878e-06
7.086543271635817973e+02 9.826387188630750029e-06
7.095547773886943332e+02 9.840105606072358036e-06
7.104552276138068692e+02 9.878969094708485145e-06
7.113556778389194051e+02 9.945527911142726778e-06
7.122561280640319410e+02 1.003558790617598133e-05
7.131565782891445906e+02 1.011763684963882851e-05
7.140570285142571265e+02 1.015652585546660881e-05
7.149574787393696624e+02 1.014300763829012751e-05
7.158579289644821984e+02 1.008842334182424661e-05
7.167583791895947343e+02 1.001273299969521058e-05
7.176588294147072702e+02 9.938810445676445716e-06
7.185592796398199198e+02 9.888168531246725371e-06
7.194597298649324557e+02 9.873973235147179845e-06
7.203601800900449916e+02 9.901054369075602688e-06
7.212606303151575275e+02 9.957461473314801765e-06
7.221610805402700635e+02 1.001336444500358317e-05
7.230615307653827131e+02 1.004710061347800390e-05
7.239619809904952490e+02 1.006769272439791453e-05
7.248624312156077849e+02 1.010435607183424082e-05
7.257628814407203208e+02 1.016279746173386207e-05
7.266633316658328567e+02 1.021375268904858089e-05
7.275637818909453927e+02 1.023856102105114942e-05
7.284642321160580423e+02 1.024048036493813977e-05
7.293646823411705782e+02 1.023751014439601266e-05
7.302651325662831141e+02 1.025166987088904134e-05
7.311655827913956500e+02 1.026886259050105904e-05
7.320660330165081859e+02 1.026071649670737118e-05
7.329664832416207219e+02 1.023580935957664401e-05
7.338669334667333715e+02 1.022086787242402064e-05
7.347673836918459074e+02 1.022329234662900835e-05
7.356678339169584433e+02 1.022848358282140971e-05
7.365682841420709792e+02 1.022772825419816731e-05
7.374687343671835151e+02 1.023243174879684798e-05
7.383691845922961647e+02 1.026124473856615977e-05
7.392696348174087007e+02 1.031773141289769858e-05
7.401700850425212366e+02 1.037129550211780038e-05
7.410705352676337725e+02 1.038532037720242989e-05
7.419709854927463084e+02 1.037627949072640191e-05
7.428714357178588443e+02 1.038420336545920521e-05
7.437718859429714939e+02 1.040838239783145235e-05
7.446723361680840299e+02 1.041920577892886789e-05
7.455727863931965658e+02 1.040898158392570748e-05
7.464732366183091017e+02 1.038418129434256273e-05
7.473736868434216376e+02 1.033230178165688988e-05
7.482741370685342872e+02 1.024278295232229561e-05
7.491745872936468231e+02 1.013717842951521002e-05
7.500750375187593590e+02 1.005536269744896812e-05
7.509754877438718950e+02 1.001894288653305461e-05
7.518759379689844309e+02 1.001736263359561439e-05
7.527763881940969668e+02 1.003010444870281367e-05
7.536768384192096164e+02 1.004923592341171502e-05
7.545772886443221523e+02 1.006721962169362751e-05
7.554777388694346882e+02 1.006678579164759452e-05
7.563781890945472242e+02 1.004499243460680238e-05
7.572786393196597601e+02 1.002882731693580200e-05
7.581790895447722960e+02 1.004849844056242889e-05
7.590795397698849456e+02 1.010105138856738925e-05
7.599799899949974815e+02 1.014555574084256809e-05
7.608804402201100174e+02 1.015245676864833308e-05
7.617808904452225534e+02 1.013580987482259566e-05
7.626813406703350893e+02 1.010838537155529028e-05
7.635817908954477389e+02 1.005774295825827183e-05
7.644822411205602748e+02 9.989947439249137468e-06
7.653826913456728107e+02 9.939410851728898690e-06
7.662831415707853466e+02 9.923411257067098779e-06
7.671835917958978825e+02 9.930529689574279505e-06
7.680840420210104185e+02 9.943978960930174223e-06
7.689844922461230681e+02 9.969347618906347421e-06
7.698849424712356040e+02 1.002350695504516016e-05
7.707853926963481399e+02 1.010471695210279219e-05
7.716858429214606758e+02 1.018832949037201303e-05
7.725862931465732117e+02 1.024839424462547356e-05
7.734867433716858613e+02 1.027556053997882750e-05
7.743871935967983973e+02 1.027066019129836470e-05
7.752876438219109332e+02 1.023723246097551981e-05
7.761880940470234691e+02 1.017616732612299801e-05
7.770885442721360050e+02 1.010052385367273403e-05
7.779889944972485409e+02 1.005137895648174864e-05
7.788894447223611905e+02 1.007519114583916493e-05
7.797898949474737265e+02 1.018627981070562886e-05
7.806903451725862624e+02 1.035588268139300422e-05
7.815907953976987983e+02 1.054086741217177924e-05
7.824912456228113342e+02 1.071509267850201867e-05
7.833916958479238701e+02 1.087724933292812495e-05
7.842921460730365197e+02 1.102967499527245203e-05
7.851925962981490557e+02 1.115134059385088148e-05
7.860930465232615916e+02 1.123171536422979052e-05
7.869934967483741275e+02 1.130614392835952414e-05
7.878939469734866634e+02 1.142508809319768733e-05
7.887943971985993130e+02 1.159321796977009238e-05
7.896948474237118489e+02 1.175639185124459853e-05
7.905952976488243849e+02 1.183030832509536116e-05
7.914957478739369208e+02 1.175925492428782240e-05
7.923961980990494567e+02 1.156279306551973625e-05
7.932966483241619926e+02 1.132743866832750639e-05
7.941970985492746422e+02 1.115714539718504505e-05
7.950975487743871781e+02 1.111326819299287401e-05
7.959979989994997140e+02 1.118262615871115330e-05
7.968984492246122500e+02 1.128693362912431501e-05
7.977988994497247859e+02 1.134698283231097156e-05
7.986993496748374355e+02 1.134232465208187238e-05
7.995997998999499714e+02 1.129193015174367380e-05
8.005002501250625073e+02 1.121780577709330627e-05
8.014007003501750432e+02 1.113639547123318223e-05
8.023011505752875792e+02 1.105098925374349802e-05
8.032016008004001151e+02 1.096783411561815917e-05
8.041020510255127647e+02 1.091999003604306603e-05
8.050025012506253006e+02 1.092595973353431476e-05
8.059029514757378365e+02 1.097285191062255042e-05
8.068034017008503724e+02 1.105902933765503041e-05
8.077038519259629084e+02 1.119766266125296928e-05
8.086043021510754443e+02 1.136679332877322133e-05
8.095047523761880939e+02 1.150917895929868020e-05
8.104052026013006298e+02 1.159705227453257513e-05
8.113056528264131657e+02 1.164431651820410830e-05
8.122061030515257016e+02 1.167267968162623385e-05
8.131065532766382375e+02 1.170186433335181581e-05
8.140070035017508872e+02 1.173172519593260008e-05
8.149074537268634231e+02 1.174560150706488728e-05
8.158079039519759590e+02 1.173174750033393574e-05
8.167083541770884949e+02 1.166906029075855904e-05
8.176088044022010308e+02 1.154675675662725963e-05
8.185092546273135667e+02 1.139198322772610606e-05
8.194097048524262163e+02 1.124275270797516937e-05
8.203101550775387523e+02 1.113973618281666555e-05
8.212106053026512882e+02 1.112374332463776662e-05
8.221110555277638241e+02 1.120358206963745989e-05
8.230115057528763600e+02 1.134999313126187753e-05
8.239119559779890096e+02 1.152046757433899653e-05
8.248124062031015455e+02 1.166538763591029136e-05
8.257128564282140815e+02 1.173246402327533520e-05
8.266133066533266174e+02 1.171060672205801390e-05
8.275137568784391533e+02 1.165875805917680593e-05
8.284142071035516892e+02 1.164578214950883545e-05
8.293146573286643388e+02 1.167147759891943841e-05
8.302151075537768747e+02 1.167759832880025437e-05
8.311155577788894107e+02 1.162502550009189571e-05
8.320160080040019466e+02 1.155131738943979827e-05
8.329164582291144825e+02 1.152569580947836945e-05
8.338169084542270184e+02 1.156925628378259941e-05
8.347173586793396680e+02 1.165675003734431535e-05
8.356178089044522039e+02 1.175315236116275977e-05
8.365182591295647399e+02 1.183776826660792429e-05
8.374187093546772758e+02 1.191870277833380344e-05
8.383191595797898117e+02 1.201597822058780275e-05
8.392196098049024613e+02 1.211305544367711259e-05
8.401200600300149972e+02 1.216796476598877649e-05
8.410205102551275331e+02 1.217174314538347637e-05
8.419209604802400690e+02 1.214239149228831820e-05
8.428214107053526050e+02 1.210881835676706806e-05
8.437218609304651409e+02 1.209805990477245220e-05
8.446223111555777905e+02 1.210919162779926987e-05
8.455227613806903264e+02 1.212775477389226906e-05
8.464232116058028623e+02 1.215199078183936665e-05
8.473236618309153982e+02 1.217671390243993415e-05
8.482241120560279342e+02 1.217600631421179446e-05
8.491245622811405838e+02 1.213254903101870415e-05
8.500250125062531197e+02 1.205687732114418695e-05
8.509254627313656556e+02 1.195621212434429297e-05
8.518259129564781915e+02 1.182807460977461925e-05
8.527263631815907274e+02 1.169901961575447663e-05
8.536268134067032634e+02 1.161405459311496041e-05
8.545272636318159130e+02 1.160237528752380846e-05
8.554277138569284489e+02 1.167111410373783851e-05
8.563281640820409848e+02 1.179643882352168436e-05
8.572286143071535207e+02 1.193101983881850483e-05
8.581290645322660566e+02 1.203269941304447632e-05
8.590295147573785925e+02 1.207637267389035824e-05
8.599299649824912422e+02 1.205339816399700001e-05
8.608304152076037781e+02 1.197287801569458707e-05
8.617308654327163140e+02 1.184987741662992661e-05
8.626313156578288499e+02 1.169426865791695648e-05
8.635317658829413858e+02 1.153247057265112999e-05
8.644322161080540354e+02 1.139688602010294055e-05
8.653326663331665713e+02 1.130245090792574825e-05
8.662331165582791073e+02 1.125308295952535483e-05
8.671335667833916432e+02 1.123749605499010344e-05
8.680340170085041791e+02 1.123876591149780845e-05
8.689344672336167150e+02 1.124101404796051446e-05
8.698349174587293646e+02 1.122374784880620652e-05
8.707353676838419005e+02 1.118782868345100336e-05
8.716358179089544365e+02 1.117127995787027311e-05
8.725362681340669724e+02 1.119725362297896684e-05
8.734367183591795083e+02 1.123608939911807307e-05
8.743371685842921579e+02 1.123926868972490386e-05
8.752376188094046938e+02 1.119027020713997078e-05
8.761380690345172297e+02 1.110888949786787671e-05
8.770385192596297657e+02 1.101837725778779254e-05
8.779389694847423016e+02 1.093437647284159507e-05
8.788394197098548375e+02 1.086014314946545576e-05
8.797398699349674871e+02 1.080270586210313326e-05
8.806403201600800230e+02 1.077793175204223450e-05
8.815407703851925589e+02 1.079611521783370689e-05
8.824412206103050949e+02 1.085539407993180198e-05
8.833416708354176308e+02 1.093974572693237545e-05
8.842421210605301667e+02 1.103366940702189877e-05
8.851425712856428163e+02 1.113560103854433419e-05
8.860430215107553522e+02 1.124461890674945100e-05
8.869434717358678881e+02 1.133701039829125722e-05
8.878439219609804240e+02 1.139068169699251482e-05
8.887443721860929600e+02 1.143199817392435776e-05
8.896448224112056096e+02 1.149443692286437458e-05
8.905452726363181455e+02 1.157645668430120919e-05
8.914457228614306814e+02 1.166099287133834975e-05
8.923461730865432173e+02 1.174187645482145563e-05
8.932466233116557532e+02 1.183218550787380006e-05
8.941470735367682892e+02 1.194290031410971757e-05
8.950475237618809388e+02 1.206285682905298969e-05
8.959479739869934747e+02 1.216899651863596859e-05
8.968484242121060106e+02 1.223985333963363967e-05
8.977488744372185465e+02 1.226973747482612628e-05
8.986493246623310824e+02 1.226690077926274009e-05
8.995497748874437320e+02 1.223404598229186747e-05
9.004502251125562680e+02 1.218645101491068037e-05
9.013506753376688039e+02 1.216023288729608082e-05
9.022511255627813398e+02 1.216353908462875721e-05
9.031515757878938757e+02 1.217488802346480463e-05
9.040520260130064116e+02 1.219677257781313193e-05
9.049524762381190612e+02 1.225503775948329312e-05
9.058529264632315972e+02 1.236673361992585507e-05
9.067533766883441331e+02 1.252914628800111831e-05
9.076538269134566690e+02 1.271760960640836085e-05
9.085542771385692049e+02 1.288980376532852493e-05
9.094547273636817408e+02 1.302005737410379354e-05
9.103551775887943904e+02 1.312642761698922821e-05
9.112556278139069263e+02 1.324043366149128962e-05
9.121560780390194623e+02 1.337733291938085259e-05
9.130565282641319982e+02 1.353072670639139529e-05
9.139569784892445341e+02 1.368448741950111931e-05
9.148574287143571837e+02 1.383247570289620858e-05
9.157578789394697196e+02 1.398235104153854939e-05
9.166583291645822555e+02 1.413751130278329910e-05
9.175587793896947915e+02 1.428491964382555009e-05
9.184592296148073274e+02 1.442053269382768009e-05
9.193596798399198633e+02 1.454502990126713176e-05
9.202601300650325129e+02 1.464766510868984779e-05
9.211605802901450488e+02 1.473173205401031299e-05
9.220610305152575847e+02 1.482931318298789983e-05
9.229614807403701207e+02 1.495215578857427806e-05
9.238619309654826566e+02 1.506404376477529014e-05
9.247623811905953062e+02 1.513448353455094526e-05
9.256628314157078421e+02 1.521902503927290743e-05
9.265632816408203780e+02 1.538684876443252475e-05
9.274637318659329139e+02 1.561250104452172486e-05
9.283641820910454499e+02 1.580801665577114478e-05
9.292646323161579858e+02 1.591633288287452259e-05
9.301650825412706354e+02 1.594242189831870086e-05
9.310655327663831713e+02 1.593003830819279105e-05
9.319659829914957072e+02 1.592190075453821401e-05
9.328664332166082431e+02 1.593826533317271581e-05
9.337668834417207790e+02 1.599595144841889664e-05
9.346673336668334287e+02 1.612399880148354179e-05
9.355677838919459646e+02 1.634201948265372111e-05
9.364682341170585005e+02 1.662658172441798150e-05
9.373686843421710364e+02 1.693925444084121772e-05
9.382691345672835723e+02 1.727020284178678930e-05
9.391695847923961082e+02 1.762330356932838369e-05
9.400700350175087578e+02 1.796187019558923457e-05
9.409704852426212938e+02 1.824639351491481453e-05
9.418709354677338297e+02 1.849454523360291868e-05
9.427713856928463656e+02 1.873405489895748477e-05
9.436718359179589015e+02 1.896789808096044212e-05
9.445722861430714374e+02 1.919840843972691317e-05
9.454727363681840870e+02 1.943359079705235100e-05
9.463731865932966230e+02 1.965900973414843331e-05
9.472736368184091589e+02 1.983676657799963669e-05
9.481740870435216948e+02 1.995259954189110334e-05
9.490745372686342307e+02 2.006071389086677500e-05
9.499749874937468803e+02 2.020550162538848509e-05
9.508754377188594162e+02 2.037432861521465175e-05
9.517758879439719522e+02 2.054457055396598941e-05
9.526763381690844881e+02 2.070810543532362112e-05
9.535767883941970240e+02 2.085641632248041806e-05
9.544772386193095599e+02 2.096907518823822961e-05
9.553776888444222095e+02 2.102379091366203900e-05
9.562781390695347454e+02 2.101831241799529383e-05
9.571785892946472813e+02 2.098134921029095812e-05
9.580790395197598173e+02 2.096890526623675538e-05
9.589794897448723532e+02 2.103892478957976810e-05
9.598799399699850028e+02 2.120570832281518410e-05
9.607803901950975387e+02 2.145605016550071657e-05
9.616808404202100746e+02 2.176466124452267246e-05
9.625812906453226105e+02 2.210356211522792504e-05
9.634817408704351465e+02 2.244947290492165139e-05
9.643821910955476824e+02 2.279213956823994858e-05
9.652826413206603320e+02 2.314169472314554175e-05
9.661830915457728679e+02 2.349593058220140663e-05
9.670835417708854038e+02 2.384416192650972460e-05
9.679839919959979397e+02 2.421061857458302861e-05
9.688844422211104757e+02 2.461444504009907753e-05
9.697848924462230116e+02 2.498228726133384610e-05
9.706853426713356612e+02 2.520128395293453805e-05
9.715857928964481971e+02 2.525460971999228448e-05
9.724862431215607330e+02 2.520118376984918960e-05
9.733866933466732689e+02 2.510183610817699946e-05
9.742871435717858049e+02 2.501860901640111514e-05
9.751875937968984545e+02 2.502023719252306316e-05
9.760880440220109904e+02 2.518496438577908072e-05
9.769884942471235263e+02 2.554757838400490298e-05
9.778889444722360622e+02 2.602197197701614312e-05
9.787893946973485981e+02 2.645017299638235524e-05
9.796898449224611340e+02 2.677831049882995219e-05
9.805902951475737837e+02 2.708786157116351709e-05
9.814907453726863196e+02 2.740783734632170241e-05
9.823911955977988555e+02 2.764005394875847151e-05
9.832916458229113914e+02 2.774267505025537224e-05
9.841920960480239273e+02 2.782206910995546211e-05
9.850925462731365769e+02 2.797070643087457714e-05
9.859929964982491128e+02 2.818139888870759382e-05
9.868934467233616488e+02 2.842786377703063248e-05
9.877938969484741847e+02 2.871660583330714001e-05
9.886943471735867206e+02 2.909100466548174586e-05
9.895947973986992565e+02 2.952061704978559448e-05
9.904952476238119061e+02 2.990913965494732983e-05
9.913956978489244420e+02 3.022700054963357112e-05
9.922961480740369780e+02 3.050284148527932862e-05
9.931965982991495139e+02 3.082657878186321527e-05
9.940970485242620498e+02 3.130257036715917583e-05
9.949974987493745857e+02 3.193246470306992767e-05
9.958979489744872353e+02 3.266015047772495529e-05
9.967983991995997712e+02 3.345627696874172352e-05
9.976988494247123072e+02 3.429643372332950727e-05
9.985992996498248431e+02 3.515489570908824886e-05
9.994997498749373790e+02 3.602522187331017191e-05
1.000400200100050029e+03 3.691061600493815030e-05
1.001300650325162565e+03 3.780013297041183245e-05
1.002201100550275100e+03 3.863559868607104698e-05
1.003101550775387636e+03 3.931456196341672225e-05
1.004002001000500172e+03 3.977593755354416356e-05
1.004902451225612708e+03 4.012379783961010150e-05
1.005802901450725358e+03 4.053564191181691795e-05
1.006703351675837894e+03 4.099752196152878193e-05
1.007603801900950430e+03 4.139420973894705270e-05
1.008504252126062966e+03 4.170908106860190807e-05
1.009404702351175501e+03 4.194703687706510537e-05
1.010305152576288151e+03 4.209025904618807001e-05
1.011205602801400687e+03 4.211732141906357555e-05
1.012106053026513223e+03 4.202745668112346886e-05
1.013006503251625759e+03 4.186032228691906489e-05
1.013906953476738295e+03 4.163755411984077274e-05
1.014807403701850831e+03 4.143427813848595377e-05
1.015707853926963480e+03 4.134732265394904579e-05
1.016608304152076016e+03 4.138811180277069285e-05
1.017508754377188552e+03 4.151463021764770364e-05
1.018409204602301088e+03 4.167658164079413442e-05
1.019309654827413624e+03 4.184713913164191812e-05
1.020210105052526160e+03 4.203631388811651675e-05
1.021110555277638809e+03 4.227072207133380312e-05
1.022011005502751345e+03 4.260139545542737069e-05
1.022911455727863881e+03 4.304971922725294359e-05
1.023811905952976417e+03 4.352411814569908744e-05
1.024712356178089067e+03 4.387585372110860027e-05
1.025612806403201603e+03 4.405841064449252841e-05
1.026513256628314139e+03 4.414432942576764613e-05
1.027413706853426675e+03 4.425442161147992030e-05
1.028314157078539210e+03 4.451985387395689765e-05
1.029214607303651746e+03 4.497654937844544338e-05
1.030115057528764282e+03 4.555589839027971718e-05
1.031015507753876818e+03 4.623125207379578824e-05
1.031915957978989354e+03 4.705344955465156650e-05
1.032816408204101890e+03 4.807134118620776629e-05
1.033716858429214653e+03 4.934128882901647707e-05
1.034617308654327189e+03 5.083317782344705415e-05
1.035517758879439725e+03 5.233634250604245040e-05
1.036418209104552261e+03 5.370295241877543982e-05
1.037318659329664797e+03 5.496656372245404713e-05
1.038219109554777333e+03 5.612461566842153794e-05
1.039119559779889869e+03 5.707841295752488347e-05
1.040020010005002405e+03 5.776749873028413283e-05
1.040920460230114941e+03 5.821843764428199716e-05
1.041820910455227477e+03 5.849072716311058619e-05
1.042721360680340013e+03 5.857528235134921112e-05
1.043621810905452776e+03 5.845126581337214744e-05
1.044522261130565312e+03 5.818544009848093245e-05
1.045422711355677848e+03 5.784815795681901723e-05
1.046323161580790384e+03 5.751530080605258665e-05
1.047223611805902920e+03 5.725818602273461685e-05
1.048124062031015455e+03 5.710110176910095309e-05
1.049024512256127991e+03 5.710202717158173311e-05
1.049924962481240527e+03 5.734986799453513015e-05
1.050825412706353063e+03 5.783474892403422056e-05
1.051725862931465599e+03 5.846598181875045647e-05
1.052626313156578135e+03 5.921034964137080516e-05
1.053526763381690898e+03 6.006937914016202522e-05
1.054427213606803434e+03 6.092448823741864226e-05
1.055327663831915970e+03 6.150550696266530342e-05
1.056228114057028506e+03 6.168190379599208827e-05
1.057128564282141042e+03 6.165748450316229051e-05
1.058029014507253578e+03 6.165387695766138317e-05
1.058929464732366114e+03 6.165888617802349817e-05
1.059829914957478650e+03 6.161390158125402462e-05
1.060730365182591186e+03 6.157096034755832087e-05
1.061630815407703722e+03 6.159297825420054836e-05
1.062531265632816257e+03 6.166007679919690090e-05
1.063431715857929021e+03 6.170884708418720402e-05
1.064332166083041557e+03 6.170440811107647211e-05
1.065232616308154093e+03 6.174011208169734571e-05
1.066133066533266629e+03 6.206171490953836197e-05
1.067033516758379164e+03 6.273181746704668382e-05
1.067933966983491700e+03 6.342902689241509875e-05
1.068834417208604236e+03 6.379794520949663608e-05
1.069734867433716772e+03 6.368722342359773995e-05
1.070635317658829308e+03 6.315704885691726938e-05
1.071535767883941844e+03 6.253616385722525896e-05
1.072436218109054380e+03 6.215725494358258338e-05
1.073336668334167143e+03 6.218404577605830428e-05
1.074237118559279679e+03 6.264151993690240960e-05
1.075137568784392215e+03 6.330649014759050415e-05
1.076038019009504751e+03 6.386490816169135352e-05
1.076938469234617287e+03 6.421987881346490079e-05
1.077838919459729823e+03 6.445225339389524795e-05
1.078739369684842359e+03 6.462178636594628040e-05
1.079639819909954895e+03 6.473730073419155110e-05
1.080540270135067431e+03 6.476578575265043913e-05
1.081440720360179967e+03 6.462608172923110404e-05
1.082341170585292502e+03 6.429504116573006567e-05
1.083241620810405038e+03 6.384141649641198553e-05
1.084142071035517802e+03 6.328137442517630838e-05
1.085042521260630338e+03 6.264679461012166207e-05
1.085942971485742873e+03 6.207039970709114947e-05
1.086843421710855409e+03 6.164209951384688724e-05
1.087743871935967945e+03 6.134847560428233952e-05
1.088644322161080481e+03 6.117783268322627202e-05
1.089544772386193017e+03 6.116087902789001845e-05
1.090445222611305553e+03 6.126932062914104780e-05
1.091345672836418089e+03 6.139951109236222490e-05
1.092246123061530625e+03 6.152605984549087449e-05
1.093146573286643161e+03 6.180712210472381972e-05
1.094047023511755924e+03 6.234703616606465453e-05
1.094947473736868460e+03 6.299948627827022560e-05
1.095847923961980996e+03 6.357732150981928781e-05
1.096748374187093532e+03 6.405091778337071678e-05
1.097648824412206068e+03 6.452747573678411467e-05
1.098549274637318604e+03 6.506260755555605749e-05
1.099449724862431140e+03 6.549416460371616224e-05
1.100350175087543676e+03 6.557357473594658268e-05
1.101250625312656211e+03 6.531409802879748698e-05
1.102151075537768747e+03 6.503619190084081810e-05
1.103051525762881283e+03 6.501128050138469771e-05
1.103951975987994047e+03 6.527978512124474699e-05
1.104852426213106583e+03 6.586634159664663554e-05
1.105752876438219118e+03 6.679038170753770487e-05
1.106653326663331654e+03 6.793665385707722761e-05
1.107553776888444190e+03 6.913422290599751253e-05
1.108454227113556726e+03 7.021286229477889987e-05
1.109354677338669262e+03 7.102107793500633175e-05
1.110255127563781798e+03 7.145132138727199706e-05
1.111155577788894334e+03 7.150552009382866840e-05
1.112056028014006870e+03 7.136952005935315345e-05
1.112956478239119406e+03 7.136490607520411310e-05
1.113856928464232169e+03 7.175412104127386445e-05
1.114757378689344705e+03 7.254272344361912227e-05
1.115657828914457241e+03 7.348348950915422728e-05
1.116558279139569777e+03 7.431764662631087307e-05
1.117458729364682313e+03 7.496410820199148409e-05
1.118359179589794849e+03 7.554455659661399357e-05
1.119259629814907385e+03 7.631119944200266214e-05
1.120160080040019920e+03 7.741077419788973564e-05
1.121060530265132456e+03 7.881570083174433284e-05
1.121960980490244992e+03 8.042122759893185612e-05
1.122861430715357528e+03 8.215989857604900166e-05
1.123761880940470292e+03 8.396912996673322569e-05
1.124662331165582827e+03 8.562551688472838586e-05
1.125562781390695363e+03 8.682189297363710628e-05
1.126463231615807899e+03 8.743674161323210920e-05
1.127363681840920435e+03 8.751766457539059119e-05
1.128264132066032971e+03 8.720623129651096112e-05
1.129164582291145507e+03 8.686913414181797195e-05
1.130065032516258043e+03 8.695389103572621979e-05
1.130965482741370579e+03 8.780174083936098976e-05
1.131865932966483115e+03 8.945459803276777132e-05
1.132766383191595651e+03 9.149909500957956231e-05
1.133666833416708187e+03 9.344824926072797442e-05
1.134567283641820950e+03 9.517057139144427633e-05
1.135467733866933486e+03 9.680926146743182672e-05
1.136368184092046022e+03 9.860591105850201852e-05
1.137268634317158558e+03 1.008251457249471081e-04
1.138169084542271094e+03 1.035652234844750008e-04
1.139069534767383630e+03 1.066984993147281009e-04
1.139969984992496165e+03 1.101333550374414196e-04
1.140870435217608701e+03 1.138870919311077754e-04
1.141770885442721237e+03 1.178095284472989912e-04
1.142671335667833773e+03 1.216388606382647053e-04
1.143571785892946309e+03 1.253883823298029485e-04
1.144472236118059072e+03 1.294053706175706485e-04
1.145372686343171608e+03 1.340445844075007918e-04
1.146273136568284144e+03 1.396916813340298594e-04
1.147173586793396680e+03 1.468917804969407459e-04
1.148074037018509216e+03 1.560503136386468177e-04
1.148974487243621752e+03 1.672732689057572085e-04
1.149874937468734288e+03 1.806465545732515701e-04
1.150775387693846824e+03 1.965523590078272756e-04
1.151675837918959360e+03 2.159789715945059109e-04
1.152576288144071896e+03 2.406075715678898826e-04
1.153476738369184432e+03 2.720774247454697706e-04
1.154377188594297195e+03 3.103457087753959702e-04
1.155277638819409731e+03 3.522691399193376700e-04
1.156178089044522267e+03 3.945420742273224811e-04
1.157078539269634803e+03 4.398590578891861929e-04
1.157978989494747339e+03 4.966316625960716337e-04
1.158879439719859874e+03 5.736142693017376622e-04
1.159779889944972410e+03 6.768062764639531416e-04
1.160680340170084946e+03 8.117906126924631215e-04
1.161580790395197482e+03 9.851989941376284015e-04
1.162481240620310018e+03 1.202194707602156302e-03
1.163381690845422554e+03 1.459265228899584137e-03
1.164282141070535317e+03 1.720981922859307319e-03
1.165182591295647853e+03 1.899595932802708139e-03
1.166083041520760389e+03 1.906577841648973834e-03
1.166983491745872925e+03 1.747759488992615268e-03
1.167883941970985461e+03 1.506708757889716529e-03
1.168784392196097997e+03 1.257087656378467685e-03
1.169684842421210533e+03 1.036816939331972097e-03
1.170585292646323069e+03 8.574062555251934625e-04
1.171485742871435605e+03 7.162471170455610029e-04
1.172386193096548141e+03 6.066382066412567874e-04
1.173286643321660677e+03 5.213297643679154882e-04
1.174187093546773440e+03 4.543785128751533361e-04
1.175087543771885976e+03 4.030830929856936786e-04
1.175987993996998512e+03 3.671984355110186906e-04
1.176888444222111048e+03 3.463654813837273761e-04
1.177788894447223583e+03 3.383715054510236632e-04
1.178689344672336119e+03 3.391487430946412123e-04
1.179589794897448655e+03 3.442112445645338008e-04
1.180490245122561191e+03 3.493379884241269088e-04
1.181390695347673727e+03 3.506970202274473959e-04
1.182291145572786263e+03 3.476050376939707914e-04
1.183191595797898799e+03 3.427449039552409797e-04
1.184092046023011562e+03 3.398398766660192753e-04
1.184992496248124098e+03 3.411417345192382304e-04
1.185892946473236634e+03 3.470488308490571176e-04
1.186793396698349170e+03 3.589742712867935621e-04
1.187693846923461706e+03 3.803201254163297374e-04
1.188594297148574242e+03 4.128834405969351948e-04
1.189494747373686778e+03 4.530077106245525916e-04
1.190395197598799314e+03 4.908450804904022739e-04
1.191295647823911850e+03 5.144443077490417141e-04
1.192196098049024386e+03 5.196970911269061053e-04
1.193096548274136921e+03 5.093595586864566082e-04
1.193996998499249457e+03 4.857847253321731854e-04
1.194897448724362221e+03 4.534691010633841337e-04
1.195797898949474757e+03 4.184403028522767974e-04
1.196698349174587293e+03 3.830666151772745671e-04
1.197598799399699828e+03 3.481965473535471420e-04
1.198499249624812364e+03 3.158897036022600838e-04
1.199399699849924900e+03 2.885338310108744768e-04
1.200300150075037436e+03 2.677782476413831316e-04
1.201200600300149972e+03 2.536432034583717974e-04
1.202101050525262508e+03 2.439423486609397767e-04
1.203001500750375044e+03 2.348350453858606213e-04
1.203901950975487580e+03 2.239566890755463873e-04
1.204802401200600343e+03 2.121910949401320924e-04
1.205702851425712879e+03 2.018947025259730391e-04
1.206603301650825415e+03 1.953848368845992702e-04
1.207503751875937951e+03 1.934131504158417012e-04
1.208404202101050487e+03 1.942641009869583337e-04
1.209304652326163023e+03 1.948052323189254794e-04
1.210205102551275559e+03 1.925794912546753535e-04
1.211105552776388095e+03 1.867771552152079867e-04
1.212006003001500630e+03 1.780442927582596968e-04
1.212906453226613166e+03 1.680117165264080321e-04
1.213806903451725702e+03 1.576632918583061027e-04
1.214707353676838466e+03 1.479864756753805838e-04
1.215607803901951002e+03 1.402395071466637586e-04
1.216508254127063537e+03 1.351632241088188168e-04
1.217408704352176073e+03 1.333097930290119183e-04
1.218309154577288609e+03 1.350680147687519377e-04
1.219209604802401145e+03 1.401429606323115185e-04
1.220110055027513681e+03 1.473712615108573574e-04
1.221010505252626217e+03 1.552440959591196309e-04
1.221910955477738753e+03 1.610570018310727145e-04
1.222811405702851289e+03 1.606127464449404988e-04
1.223711855927963825e+03 1.539460313396852343e-04
1.224612306153076588e+03 1.460497818011813125e-04
1.225512756378189124e+03 1.399991372827987077e-04
1.226413206603301660e+03 1.353311575468443134e-04
1.227313656828414196e+03 1.314469076969439361e-04
1.228214107053526732e+03 1.291713355342801026e-04
1.229114557278639268e+03 1.291891818829222832e-04
1.230015007503751804e+03 1.314326236079320419e-04
1.230915457728864340e+03 1.358149839833864409e-04
1.231815907953976875e+03 1.424034413633315011e-04
1.232716358179089411e+03 1.507181933706755808e-04
1.233616808404201947e+03 1.593190543177793296e-04
1.234517258629314711e+03 1.661922000448105613e-04
1.235417708854427246e+03 1.703454498930380217e-04
1.236318159079539782e+03 1.728675595843403689e-04
1.237218609304652318e+03 1.758480076388168939e-04
1.238119059529764854e+03 1.808017614197300474e-04
1.239019509754877390e+03 1.877999604659522635e-04
1.239919959979989926e+03 1.956833818211435670e-04
1.240820410205102462e+03 2.028897895782384459e-04
1.241720860430214998e+03 2.084360633440214289e-04
1.242621310655327534e+03 2.124744782162762155e-04
1.243521760880440070e+03 2.155549805645113595e-04
1.244422211105552606e+03 2.179521652798277367e-04
1.245322661330665369e+03 2.200249607656380604e-04
1.246223111555777905e+03 2.223682979897522003e-04
1.247123561780890441e+03 2.255732769735951178e-04
1.248024012006002977e+03 2.297808073793534088e-04
1.248924462231115513e+03 2.340135172586326384e-04
1.249824912456228049e+03 2.365421811627215290e-04
1.250725362681340584e+03 2.365070351788086821e-04
1.251625812906453120e+03 2.350194746723520910e-04
1.252526263131565656e+03 2.340926914772766768e-04
1.253426713356678192e+03 2.349350138250603181e-04
1.254327163581790728e+03 2.375197316134572357e-04
1.255227613806903491e+03 2.406088233858454648e-04
1.256128064032016027e+03 2.425981522006730824e-04
1.257028514257128563e+03 2.433655917343568792e-04
1.257928964482241099e+03 2.443877614994885102e-04
1.258829414707353635e+03 2.469819904792594956e-04
1.259729864932466171e+03 2.515081247473152930e-04
1.260630315157578707e+03 2.581916109462531234e-04
1.261530765382691243e+03 2.676863445485676805e-04
1.262431215607803779e+03 2.805249079847396817e-04
1.263331665832916315e+03 2.970510360944625958e-04
1.264232116058028851e+03 3.176858284406999973e-04
1.265132566283141614e+03 3.422195265322661357e-04
1.266033016508254150e+03 3.689599188378352742e-04
1.266933466733366686e+03 3.940741447875681196e-04
1.267833916958479222e+03 4.123801256976233768e-04
1.268734367183591758e+03 4.212284029826213931e-04
1.269634817408704293e+03 4.226609052533959483e-04
1.270535267633816829e+03 4.205285141601246691e-04
1.271435717858929365e+03 4.180716621601238809e-04
1.272336168084041901e+03 4.177102472093937539e-04
1.273236618309154437e+03 4.211317415496594499e-04
1.274137068534266973e+03 4.294672209122430339e-04
1.275037518759379736e+03 4.427192473153216518e-04
1.275937968984492272e+03 4.592477825957157461e-04
1.276838419209604808e+03 4.768994703709757599e-04
1.277738869434717344e+03 4.941931770277839010e-04
1.278639319659829880e+03 5.107692427839019252e-04
1.279539769884942416e+03 5.263734404605216900e-04
1.280440220110054952e+03 5.400167439721190871e-04
1.281340670335167488e+03 5.510387359989088506e-04
1.282241120560280024e+03 5.601381700365886058e-04
1.283141570785392560e+03 5.690447390447503058e-04
1.284042021010505096e+03 5.787779824129156035e-04
1.284942471235617859e+03 5.890934940588169215e-04
1.285842921460730395e+03 5.991877330557856098e-04
1.286743371685842931e+03 6.076386047733703518e-04
1.287643821910955467e+03 6.129866355888078646e-04
1.288544272136068003e+03 6.151799723252969780e-04
1.289444722361180538e+03 6.153684552697053249e-04
1.290345172586293074e+03 6.144223704230890055e-04
1.291245622811405610e+03 6.128023062544901570e-04
1.292146073036518146e+03 6.114440509875074519e-04
1.293046523261630682e+03 6.116285288952813233e-04
1.293946973486743218e+03 6.137413389704048094e-04
1.294847423711855754e+03 6.173263645413627721e-04
1.295747873936968517e+03 6.219964212522639596e-04
1.296648324162081053e+03 6.272988035606244907e-04
1.297548774387193589e+03 6.325321146065583959e-04
1.298449224612306125e+03 6.366601472991389706e-04
1.299349674837418661e+03 6.389583248535218125e-04
1.300250125062531197e+03 6.397151469449436365e-04
1.301150575287643733e+03 6.397742618956335069e-04
1.302051025512756269e+03 6.399401796297226382e-04
1.302951475737868805e+03 6.409625373958609046e-04
1.303851925962981340e+03 6.435713524620361283e-04
1.304752376188093876e+03 6.480177576723090884e-04
1.305652826413206640e+03 6.539381215326639908e-04
1.306553276638319176e+03 6.607523507997233817e-04
1.307453726863431712e+03 6.684947661574059102e-04
1.308354177088544247e+03 6.780990769917601222e-04
1.309254627313656783e+03 6.903073045967252595e-04
1.310155077538769319e+03 7.046887589755334354e-04
1.311055527763881855e+03 7.198436832135477609e-04
1.311955977988994391e+03 7.339924587705262769e-04
1.312856428214106927e+03 7.451308855806750790e-04
1.313756878439219463e+03 7.523462234675803604e-04
1.314657328664331999e+03 7.569114431690049426e-04
1.315557778889444762e+03 7.602866845525059264e-04
1.316458229114557298e+03 7.628000682943714616e-04
1.317358679339669834e+03 7.651197464030852578e-04
1.318259129564782370e+03 7.688947778416007012e-04
1.319159579789894906e+03 7.758621602303391891e-04
1.320060030015007442e+03 7.864839815489639997e-04
1.320960480240119978e+03 7.993552848867488143e-04
1.321860930465232514e+03 8.125895043386214926e-04
1.322761380690345050e+03 8.258976175603432741e-04
1.323661830915457585e+03 8.410269100999882451e-04
1.324562281140570121e+03 8.594611478867354671e-04
1.325462731365682885e+03 8.812179266659513326e-04
1.326363181590795421e+03 9.060226604700481528e-04
1.327263631815907956e+03 9.345067955267225002e-04
1.328164082041020492e+03 9.673676899413070039e-04
1.329064532266133028e+03 1.003545345708807936e-03
1.329964982491245564e+03 1.040845331851123282e-03
1.330865432716358100e+03 1.077360453480644825e-03
1.331765882941470636e+03 1.112367284375247699e-03
1.332666333166583172e+03 1.146272103951101245e-03
1.333566783391695708e+03 1.179973083163632624e-03
1.334467233616808244e+03 1.214884202200526347e-03
1.335367683841921007e+03 1.251837691031881241e-03
1.336268134067033543e+03 1.291191009921085564e-03
1.337168584292146079e+03 1.334997903090742039e-03
1.338069034517258615e+03 1.385401514922876337e-03
1.338969484742371151e+03 1.440363164894015169e-03
1.339869934967483687e+03 1.494491392372109114e-03
1.340770385192596223e+03 1.543343687104314823e-03
1.341670835417708759e+03 1.588092412218480203e-03
1.342571285642821294e+03 1.635654888587641676e-03
1.343471735867933830e+03 1.691093631738432466e-03
1.344372186093046366e+03 1.752522386728465288e-03
1.345272636318158902e+03 1.816118066894988059e-03
1.346173086543271666e+03 1.883346430570511688e-03
1.347073536768384201e+03 1.958133807735401924e-03
1.347973986993496737e+03 2.042289195882799648e-03
1.348874437218609273e+03 2.136161516461452733e-03
1.349774887443721809e+03 2.238325010235559572e-03
1.350675337668834345e+03 2.344632212988603890e-03
1.351575787893946881e+03 2.451001010835874259e-03
1.352476238119059417e+03 2.555302661092800475e-03
1.353376688344171953e+03 2.656393236726541096e-03
1.354277138569284489e+03 2.754909092068619919e-03
1.355177588794397025e+03 2.854882629843931343e-03
1.356078039019509788e+03 2.963135865333059102e-03
1.356978489244622324e+03 3.087070326741393408e-03
1.357878939469734860e+03 3.231617278016439727e-03
1.358779389694847396e+03 3.396137715694251720e-03
1.359679839919959932e+03 3.574335533927818290e-03
1.360580290145072468e+03 3.760616844268567429e-03
1.361480740370185003e+03 3.954403572582402930e-03
1.362381190595297539e+03 4.154113246977942514e-03
1.363281640820410075e+03 4.350193441348648195e-03
1.364182091045522611e+03 4.531568001723265335e-03
1.365082541270635147e+03 4.699215229573841350e-03
1.365982991495747910e+03 4.868478382399027242e-03
1.366883441720860446e+03 5.058155261545019092e-03
1.367783891945972982e+03 5.274398928280473776e-03
1.368684342171085518e+03 5.509029090515711602e-03
1.369584792396198054e+03 5.752250577186573260e-03
1.370485242621310590e+03 6.007045938541754650e-03
1.371385692846423126e+03 6.284745946237411778e-03
1.372286143071535662e+03 6.585401120673299753e-03
1.373186593296648198e+03 6.904602012044228597e-03
1.374087043521760734e+03 7.248930582011073667e-03
1.374987493746873270e+03 7.622316405412807132e-03
1.375887943971986033e+03 8.012180130880546675e-03
1.376788394197098569e+03 8.400254574187401846e-03
1.377688844422211105e+03 8.782804834628595361e-03
1.378589294647323641e+03 9.183429830566873855e-03
1.379489744872436177e+03 9.636569179006779229e-03
1.380390195097548713e+03 1.015015844145227171e-02
1.381290645322661248e+03 1.070913758743373759e-02
1.382191095547773784e+03 1.130585928838838579e-02
1.383091545772886320e+03 1.194895784089227905e-02
1.383991995997998856e+03 1.266248556966534031e-02
1.384892446223111392e+03 1.345719036207974895e-02
1.385792896448224155e+03 1.432514049603505514e-02
1.386693346673336691e+03 1.527364227123116473e-02
1.387593796898449227e+03 1.633317407027929172e-02
1.388494247123561763e+03 1.754241762001611249e-02
1.389394697348674299e+03 1.892778565294309795e-02
1.390295147573786835e+03 2.050790837004409090e-02
1.391195597798899371e+03 2.230848477056505269e-02
1.392096048024011907e+03 2.436844061958807345e-02
1.392996498249124443e+03 2.668787094287532885e-02
1.393896948474236979e+03 2.919800148756766106e-02
1.394797398699349515e+03 3.190311739483808751e-02
1.395697848924462278e+03 3.497978331510114697e-02
1.396598299149574814e+03 3.861547369905812127e-02
1.397498749374687350e+03 4.288877544698602162e-02
1.398399199599799886e+03 4.780363093185617529e-02
1.399299649824912422e+03 5.321552520431130362e-02
1.400200100050024957e+03 5.872378219752775325e-02
1.401100550275137493e+03 6.371451634246366735e-02
1.402001000500250029e+03 6.738764018360542118e-02
1.402901450725362565e+03 6.871676482162807076e-02
1.403801900950475101e+03 6.715529617827772912e-02
1.404702351175587637e+03 6.332483967612378972e-02
1.405602801400700173e+03 5.819906779552032339e-02
1.406503251625812936e+03 5.250593732088949112e-02
1.407403701850925472e+03 4.700438604382829039e-02
1.408304152076038008e+03 4.229256651962226554e-02
1.409204602301150544e+03 3.855071275062314090e-02
1.410105052526263080e+03 3.567772000162774265e-02
1.411005502751375616e+03 3.350722501084235638e-02
1.411905952976488152e+03 3.181057513284335503e-02
1.412806403201600688e+03 3.032029343039273003e-02
1.413706853426713224e+03 2.884153761555678305e-02
1.414607303651825760e+03 2.725946821088928371e-02
1.415507753876938295e+03 2.552542512099184244e-02
1.416408204102051059e+03 2.371329901045455407e-02
1.417308654327163595e+03 2.196344137610200739e-02
1.418209104552276131e+03 2.037595147435134965e-02
1.419109554777388666e+03 1.897830151418219286e-02
1.420010005002501202e+03 1.771724424620550048e-02
1.420910455227613738e+03 1.651532852573478830e-02
1.421810905452726274e+03 1.536764302674179308e-02
1.422711355677838810e+03 1.433305137886236799e-02
1.423611805902951346e+03 1.341097212990719108e-02
1.424512256128063882e+03 1.252920559030505296e-02
1.425412706353176418e+03 1.163511160367798787e-02
1.426313156578289181e+03 1.074150499372151027e-02
1.427213606803401717e+03 9.916404190523045448e-03
1.428114057028514253e+03 9.223474495589991523e-03
1.429014507253626789e+03 8.664095993517988495e-03
1.429914957478739325e+03 8.188077038447604677e-03
1.430815407703851861e+03 7.751454198254676201e-03
1.431715857928964397e+03 7.340470217798611592e-03
1.432616308154076933e+03 6.945736175342221742e-03
1.433516758379189469e+03 6.562569543688894121e-03
1.434417208604302004e+03 6.201290753659216559e-03
1.435317658829414540e+03 5.866482067709536015e-03
1.436218109054527304e+03 5.549041722744763559e-03
1.437118559279639840e+03 5.247470162787283392e-03
1.438019009504752376e+03 4.969095478774684591e-03
1.438919459729864911e+03 4.719089088551575890e-03
1.439819909954977447e+03 4.499960938213996842e-03
1.440720360180089983e+03 4.304087060672365413e-03
1.441620810405202519e+03 4.115697879861199282e-03
1.442521260630315055e+03 3.932730358234379393e-03
1.443421710855427591e+03 3.763524003274120854e-03
1.444322161080540127e+03 3.607443840004022611e-03
1.445222611305652663e+03 3.457800052406398688e-03
1.446123061530765426e+03 3.314553939612433463e-03
1.447023511755877962e+03 3.182793522351653852e-03
1.447923961980990498e+03 3.066673319986419101e-03
1.448824412206103034e+03 2.970673694540752231e-03
1.449724862431215570e+03 2.894508540065478079e-03
1.450625312656328106e+03 2.828454804339020079e-03
1.451525762881440642e+03 2.758012963869062913e-03
1.452426213106553178e+03 2.673812957707434428e-03
1.453326663331665713e+03 2.581188996442114036e-03
1.454227113556778249e+03 2.491105465960133727e-03
1.455127563781890785e+03 2.406688845654190480e-03
1.456028014007003321e+03 2.328640844942272276e-03
1.456928464232116085e+03 2.259545110426643046e-03
1.457828914457228620e+03 2.197743071520197149e-03
1.458729364682341156e+03 2.135987300507909137e-03
1.459629814907453692e+03 2.067985961784358367e-03
1.460530265132566228e+03 1.994589701674503394e-03
1.461430715357678764e+03 1.922800977676226335e-03
1.462331165582791300e+03 1.859850010575569848e-03
1.463231615807903836e+03 1.806369856515982432e-03
1.464132066033016372e+03 1.756930673533895620e-03
1.465032516258128908e+03 1.705570996986766801e-03
1.465932966483241444e+03 1.650864382678276805e-03
1.466833416708354207e+03 1.596802994110615688e-03
1.467733866933466743e+03 1.547241765044936020e-03
1.468634317158579279e+03 1.503330550281061157e-03
1.469534767383691815e+03 1.463102197478598340e-03
1.470435217608804351e+03 1.423236876374657988e-03
1.471335667833916887e+03 1.384264295644569440e-03
1.472236118059029423e+03 1.350087789958819310e-03
1.473136568284141958e+03 1.322395060087941214e-03
1.474037018509254494e+03 1.298527273568617687e-03
1.474937468734367030e+03 1.273865723610592346e-03
1.475837918959479566e+03 1.245144964392262124e-03
1.476738369184592329e+03 1.211674698750109247e-03
1.477638819409704865e+03 1.174308772922982337e-03
1.478539269634817401e+03 1.136192338232729212e-03
1.479439719859929937e+03 1.100819257747797991e-03
1.480340170085042473e+03 1.068189319709475461e-03
1.481240620310155009e+03 1.036626149015500153e-03
1.482141070535267545e+03 1.006556598097662573e-03
1.483041520760380081e+03 9.778904245944842772e-04
1.483941970985492617e+03 9.476670654235046318e-04
1.484842421210605153e+03 9.142898763165231311e-04
1.485742871435717689e+03 8.790670412600961204e-04
1.486643321660830452e+03 8.443304574539120056e-04
1.487543771885942988e+03 8.119575469912919743e-04
1.488444222111055524e+03 7.825288339988030690e-04
1.489344672336168060e+03 7.558840586728873649e-04
1.490245122561280596e+03 7.313892035181812981e-04
1.491145572786393132e+03 7.087794871766165241e-04
1.492046023011505667e+03 6.876461521664098799e-04
1.492946473236618203e+03 6.671743176476276896e-04
1.493846923461730739e+03 6.480209948863395637e-04
1.494747373686843275e+03 6.330304815605533987e-04
1.495647823911955811e+03 6.243989822457070467e-04
1.496548274137068574e+03 6.208766084040464586e-04
1.497448724362181110e+03 6.183398444194544751e-04
1.498349174587293646e+03 6.134158972064393187e-04
1.499249624812406182e+03 6.053172754442816056e-04
1.500150075037518718e+03 5.951762435510791474e-04
1.501050525262631254e+03 5.852898436684488091e-04
1.501950975487743790e+03 5.772987954218805574e-04
1.502851425712856326e+03 5.710976275326394699e-04
1.503751875937968862e+03 5.657277422043178886e-04
1.504652326163081398e+03 5.602598859809752342e-04
1.505552776388193934e+03 5.540929205468376030e-04
1.506453226613306470e+03 5.474077422192758120e-04
1.507353676838419233e+03 5.409222949439834033e-04
1.508254127063531769e+03 5.351501468497588858e-04
1.509154577288644305e+03 5.300199414579140778e-04
1.510055027513756841e+03 5.244945242157436453e-04
1.510955477738869376e+03 5.175838234383094627e-04
1.511855927963981912e+03 5.099409048343438037e-04
1.512756378189094448e+03 5.023908493232301462e-04
1.513656828414206984e+03 4.947368628082820293e-04
1.514557278639319520e+03 4.868447307108327189e-04
1.515457728864432056e+03 4.788710424609886806e-04
1.516358179089544592e+03 4.706315037527108243e-04
1.517258629314657355e+03 4.620108268334204189e-04
1.518159079539769891e+03 4.534141342144778759e-04
1.519059529764882427e+03 4.453252959378820519e-04
1.519959979989994963e+03 4.383380338659828568e-04
1.520860430215107499e+03 4.330563062820254805e-04
1.521760880440220035e+03 4.295033100653963972e-04
1.522661330665332571e+03 4.275582819959798187e-04
1.523561780890445107e+03 4.268790756477062152e-04
1.524462231115557643e+03 4.265789850466132822e-04
1.525362681340670179e+03 4.261630959190321763e-04
1.526263131565782714e+03 4.258366769459144378e-04
1.527163581790895478e+03 4.262136788848181466e-04
1.528064032016008014e+03 4.277422525629363294e-04
1.528964482241120550e+03 4.295141346365783969e-04
1.529864932466233086e+03 4.303685965999835914e-04
1.530765382691345621e+03 4.308005130702871653e-04
1.531665832916458157e+03 4.319953129416752454e-04
1.532566283141570693e+03 4.338057867482582818e-04
1.533466733366683229e+03 4.347972785218056128e-04
1.534367183591795765e+03 4.338910149832663063e-04
1.535267633816908301e+03 4.312493491903470247e-04
1.536168084042020837e+03 4.276061882443936229e-04
1.537068534267133600e+03 4.236840263140058968e-04
1.537968984492246136e+03 4.204448451751471687e-04
1.538869434717358672e+03 4.185095529467880893e-04
1.539769884942471208e+03 4.171612869576634547e-04
1.540670335167583744e+03 4.157057357392908805e-04
1.541570785392696280e+03 4.146198944375384344e-04
1.542471235617808816e+03 4.142287267643746931e-04
1.543371685842921352e+03 4.146279422317794561e-04
1.544272136068033888e+03 4.160585313372425079e-04
1.545172586293146423e+03 4.189135577145121922e-04
1.546073036518258959e+03 4.227338324541273385e-04
1.546973486743371723e+03 4.257855603865897559e-04
1.547873936968484259e+03 4.273345484508688928e-04
1.548774387193596795e+03 4.288812982342761308e-04
1.549674837418709330e+03 4.325871766528417250e-04
1.550575287643821866e+03 4.394054780959076698e-04
1.551475737868934402e+03 4.479148402863104709e-04
1.552376188094046938e+03 4.557830655912110344e-04
1.553276638319159474e+03 4.620510407825373931e-04
1.554177088544272010e+03 4.661664414448506264e-04
1.555077538769384546e+03 4.677650405104223055e-04
1.555977988994497082e+03 4.677345017236705623e-04
1.556878439219609618e+03 4.672420114599318904e-04
1.557778889444722381e+03 4.669326633250952987e-04
1.558679339669834917e+03 4.671929477936281492e-04
1.559579789894947453e+03 4.692314626620601057e-04
1.560480240120059989e+03 4.740787182398958455e-04
1.561380690345172525e+03 4.809503848011801317e-04
1.562281140570285061e+03 4.883786794226184589e-04
1.563181590795397597e+03 4.955588886880564134e-04
1.564082041020510133e+03 5.013540832962565816e-04
1.564982491245622668e+03 5.052817856140716293e-04
1.565882941470735204e+03 5.093426665989462653e-04
1.566783391695847740e+03 5.150396253438169984e-04
1.567683841920960504e+03 5.228105493931123468e-04
1.568584292146073039e+03 5.338552545615198302e-04
1.569484742371185575e+03 5.493400852302649526e-04
1.570385192596298111e+03 5.712539441943482229e-04
1.571285642821410647e+03 6.023170414673473510e-04
1.572186093046523183e+03 6.443438261166319373e-04
1.573086543271635719e+03 6.980537595093211237e-04
1.573986993496748255e+03 7.638409890656494821e-04
1.574887443721860791e+03 8.382667610360643000e-04
1.575787893946973327e+03 9.067162898048618681e-04
1.576688344172085863e+03 9.482988715733002734e-04
1.577588794397198626e+03 9.461177604284409272e-04
1.578489244622311162e+03 8.868419758213983784e-04
1.579389694847423698e+03 7.713459557903597219e-04
1.580290145072536234e+03 6.300306217415031817e-04
1.581190595297648770e+03 5.009452833234582635e-04
1.582091045522761306e+03 4.010518983027230931e-04
1.582991495747873842e+03 3.291535763094937230e-04
1.583891945972986377e+03 2.783345659156929238e-04
1.584792396198098913e+03 2.414294223282653586e-04
1.585692846423211449e+03 2.123767857481042101e-04
1.586593296648323985e+03 1.878552199042057488e-04
1.587493746873436749e+03 1.673154772178119453e-04
1.588394197098549284e+03 1.506537713837076105e-04
1.589294647323661820e+03 1.372835009921539648e-04
1.590195097548774356e+03 1.264711015982586308e-04
1.591095547773886892e+03 1.175958621951042810e-04
1.591995997998999428e+03 1.101936440824534755e-04
1.592896448224111964e+03 1.039279226969780910e-04
1.593796898449224500e+03 9.855396326782256574e-05
1.594697348674337036e+03 9.389118033563749498e-05
1.595597798899449572e+03 8.980397682799099314e-05
1.596498249124562108e+03 8.618877025967434360e-05
1.597398699349674871e+03 8.296516758866811115e-05
1.598299149574787407e+03 8.006987340901132921e-05
1.599199599799899943e+03 7.745240972478659961e-05
1.600100050025012479e+03 7.507205418153489837e-05
1.601000500250125015e+03 7.289561233785586225e-05
1.601900950475237551e+03 7.089577113559944498e-05
1.602801400700350086e+03 6.904986436839674569e-05
1.603701850925462622e+03 6.733893490369234278e-05
1.604602301150575158e+03 6.574701381418386582e-05
1.605502751375687694e+03 6.426056020765559876e-05
1.606403201600800230e+03 6.286802158935257451e-05
1.607303651825912766e+03 6.155948565956365602e-05
1.608204102051025529e+03 6.032640219916589715e-05
1.609104552276138065e+03 5.916135919810107765e-05
1.610005002501250601e+03 5.805790133843211027e-05
1.610905452726363137e+03 5.701038182298295804e-05
1.611805902951475673e+03 5.601384065907554855e-05
1.612706353176588209e+03 5.506390408167377370e-05
1.613606803401700745e+03 5.415670098204569888e-05
1.614507253626813281e+03 5.328879310287585599e-05
1.615407703851925817e+03 5.245711644392244603e-05
1.616308154077038353e+03 5.165893184799901796e-05
1.617208604302150889e+03 5.089178314451121339e-05
1.618109054527263652e+03 5.015346154578027903e-05
1.619009504752376188e+03 4.944197524123611863e-05
1.619909954977488724e+03 4.875552333199562136e-05
1.620810405202601260e+03 4.809247340537831360e-05
1.621710855427713796e+03 4.745134217439818755e-05
1.622611305652826331e+03 4.683077870816112180e-05
1.623511755877938867e+03 4.622954986057414026e-05
1.624412206103051403e+03 4.564652757089626060e-05
1.625312656328163939e+03 4.508067776358093089e-05
1.626213106553276475e+03 4.453105061899931911e-05
1.627113556778389011e+03 4.399677202293944322e-05
1.628014007003501774e+03 4.347703603274711615e-05
1.628914457228614310e+03 4.297109822280114136e-05
1.629814907453726846e+03 4.247826979267905790e-05
1.630715357678839382e+03 4.199791233862023090e-05
1.631615807903951918e+03 4.152943320331890141e-05
1.632516258129064454e+03 4.107228133122614670e-05
1.633416708354176990e+03 4.062594356677508593e-05
1.634317158579289526e+03 4.018994134157432169e-05
1.635217608804402062e+03 3.976382770397032340e-05
1.636118059029514598e+03 3.934718465060652639e-05
1.637018509254627133e+03 3.893962072491530978e-05
1.637918959479739897e+03 3.854076885205268930e-05
1.638819409704852433e+03 3.815028438365623056e-05
1.639719859929964969e+03 3.776784332916869111e-05
1.640620310155077505e+03 3.739314075335686539e-05
1.641520760380190040e+03 3.702588932213494153e-05
1.642421210605302576e+03 3.666581798096956823e-05
1.643321660830415112e+03 3.631267075199604038e-05
1.644222111055527648e+03 3.596620563762200983e-05
1.645122561280640184e+03 3.562619361977671331e-05
1.646023011505752720e+03 3.529241774523549183e-05
1.646923461730865256e+03 3.496467228849027819e-05
1.647823911955978019e+03 3.464276198461325600e-05
1.648724362181090555e+03 3.432650132536609056e-05
1.649624812406203091e+03 3.401571391254826486e-05
1.650525262631315627e+03 3.371023186321675790e-05
1.651425712856428163e+03 3.340989526197549962e-05
1.652326163081540699e+03 3.311455165602723686e-05
1.653226613306653235e+03 3.282405558913517910e-05
1.654127063531765771e+03 3.253826817101959662e-05
1.655027513756878307e+03 3.225705667907273721e-05
1.655927963981990843e+03 3.198029418958120630e-05
1.656828414207103378e+03 3.170785923591944806e-05
1.657728864432216142e+03 3.143963549142440476e-05
1.658629314657328678e+03 3.117551147488369236e-05
1.659529764882441214e+03 3.091538027675783497e-05
1.660430215107553749e+03 3.065913930444182122e-05
1.661330665332666285e+03 3.040669004502208550e-05
1.662231115557778821e+03 3.015793784412755234e-05
1.663131565782891357e+03 2.991279169960168709e-05
1.664032016008003893e+03 2.967116406883650717e-05
1.664932466233116429e+03 2.943297068870745850e-05
1.665832916458228965e+03 2.919813040715004839e-05
1.666733366683341501e+03 2.896656502549011048e-05
1.667633816908454037e+03 2.873819915073174506e-05
1.668534267133566800e+03 2.851296005705448609e-05
1.669434717358679336e+03 2.829077755585590926e-05
1.670335167583791872e+03 2.807158387371037279e-05
1.671235617808904408e+03 2.785531353768366339e-05
1.672136068034016944e+03 2.764190326747732645e-05
1.673036518259129480e+03 2.743129187392561125e-05
1.673936968484242016e+03 2.722342016339984749e-05
1.674837418709354552e+03 2.701823084771894941e-05
1.675737868934467087e+03 2.681566845918766418e-05
1.676638319159579623e+03 2.661567927041704975e-05
1.677538769384692159e+03 2.641821121861131680e-05
1.678439219609804923e+03 2.622321383402179831e-05
1.679339669834917459e+03 2.603063817229924598e-05
1.680240120060029994e+03 2.584043675049051982e-05
1.681140570285142530e+03 2.565256348644566611e-05
1.682041020510255066e+03 2.546697364142056611e-05
1.682941470735367602e+03 2.528362376567349048e-05
1.683841920960480138e+03 2.510247164686747742e-05
1.684742371185592674e+03 2.492347626111033078e-05
1.685642821410705210e+03 2.474659772646606374e-05
1.686543271635817746e+03 2.457179725879204098e-05
1.687443721860930282e+03 2.439903712975948700e-05
1.688344172086043045e+03 2.422828062693211867e-05
1.689244622311155581e+03 2.405949201577733414e-05
1.690145072536268117e+03 2.389263650350075541e-05
1.691045522761380653e+03 2.372768020459703925e-05
1.691945972986493189e+03 2.356459010802124167e-05
1.692846423211605725e+03 2.340333404588485188e-05
1.693746873436718261e+03 2.324388066359768103e-05
1.694647323661830796e+03 2.308619939136661296e-05
1.695547773886943332e+03 2.293026041698514850e-05
1.696448224112055868e+03 2.277603465983681918e-05
1.697348674337168404e+03 2.262349374605022680e-05
1.698249124562281168e+03 2.247260998474382156e-05
1.699149574787393703e+03 2.232335634529978099e-05
1.700050025012506239e+03 2.217570643561771304e-05
1.700950475237618775e+03 2.202963448129139119e-05
1.701850925462731311e+03 2.188511530566555682e-05
1.702751375687843847e+03 2.174212431072524321e-05
1.703651825912956383e+03 2.160063745877593009e-05
1.704552276138068919e+03 2.146063125487304794e-05
1.705452726363181455e+03 2.132208272996833980e-05
1.706353176588293991e+03 2.118496942473091201e-05
1.707253626813406527e+03 2.104926937401443543e-05
1.708154077038519290e+03 2.091496109193844905e-05
1.709054527263631826e+03 2.078202355755224266e-05
1.709954977488744362e+03 2.065043620105551456e-05
1.710855427713856898e+03 2.052017889054818441e-05
1.711755877938969434e+03 2.039123191928486815e-05
1.712656328164081970e+03 2.026357599341084730e-05
1.713556778389194506e+03 2.013719222015611349e-05
1.714457228614307041e+03 2.001206209646788823e-05
1.715357678839419577e+03 1.988816749806031643e-05
1.716258129064532113e+03 1.976549066886414252e-05
1.717158579289644649e+03 1.964401421085660269e-05
1.718059029514757185e+03 1.952372107425606309e-05
1.718959479739869948e+03 1.940459454806439210e-05
1.719859929964982484e+03 1.928661825094310771e-05
1.720760380190095020e+03 1.916977612240707411e-05
1.721660830415207556e+03 1.905405241432410593e-05
1.722561280640320092e+03 1.893943168270490149e-05
1.723461730865432628e+03 1.882589877977494658e-05
1.724362181090545164e+03 1.871343884631132605e-05
1.725262631315657700e+03 1.860203730423825655e-05
1.726163081540770236e+03 1.849167984946804879e-05
1.727063531765882772e+03 1.838235244497730093e-05
1.727963981990995308e+03 1.827404131411044253e-05
1.728864432216108071e+03 1.816673293409997984e-05
1.729764882441220607e+03 1.806041402979531807e-05
1.730665332666333143e+03 1.795507156759189999e-05
1.731565782891445679e+03 1.785069274955295994e-05
1.732466233116558215e+03 1.774726500771374227e-05
1.733366683341670750e+03 1.764477599856843830e-05
1.734267133566783286e+03 1.754321359772155275e-05
1.735167583791895822e+03 1.744256589470879530e-05
1.736068034017008358e+03 1.734282118797251504e-05
1.736968484242120894e+03 1.724396797999108486e-05
1.737868934467233430e+03 1.714599497255335880e-05
1.738769384692346193e+03 1.704889106217521419e-05
1.739669834917458729e+03 1.695264533565074146e-05
1.740570285142571265e+03 1.685724706573466989e-05
1.741470735367683801e+03 1.676268570695046251e-05
1.742371185592796337e+03 1.666895089152024492e-05
1.743271635817908873e+03 1.657603242541134332e-05
1.744172086043021409e+03 1.648392028449642330e-05
1.745072536268133945e+03 1.639260461082143897e-05
1.745972986493246481e+03 1.630207570897926466e-05
1.746873436718359017e+03 1.621232404258529929e-05
1.747773886943471553e+03 1.612334023084972047e-05
1.748674337168584316e+03 1.603511504524578551e-05
1.749574787393696852e+03 1.594763940626782971e-05
1.750475237618809388e+03 1.586090438027834885e-05
1.751375687843921924e+03 1.577490117644132658e-05
1.752276138069034459e+03 1.568962114373526762e-05
1.753176588294146995e+03 1.560505576804862007e-05
1.754077038519259531e+03 1.552119666935099714e-05
1.754977488744372067e+03 1.543803559893843288e-05
1.755877938969484603e+03 1.535556443675212645e-05
1.756778389194597139e+03 1.527377518876545052e-05
1.757678839419709675e+03 1.519265998443909334e-05
1.758579289644822438e+03 1.511221107424206260e-05
1.759479739869934974e+03 1.503242082723504964e-05
1.760380190095047510e+03 1.495328172871567618e-05
1.761280640320160046e+03 1.487478637792272328e-05
1.762181090545272582e+03 1.479692748579797387e-05
1.763081540770385118e+03 1.471969787280441002e-05
1.763981990995497654e+03 1.464309046679710583e-05
1.764882441220610190e+03 1.456709830094766133e-05
1.765782891445722726e+03 1.449171451171918890e-05
1.766683341670835262e+03 1.441693233688982798e-05
1.767583791895947797e+03 1.434274511362496757e-05
1.768484242121060333e+03 1.426914627659547776e-05
1.769384692346173097e+03 1.419612935614035134e-05
1.770285142571285633e+03 1.412368797647393482e-05
1.771185592796398169e+03 1.405181585393508254e-05
1.772086043021510704e+03 1.398050679527721398e-05
1.772986493246623240e+03 1.390975469599842556e-05
1.773886943471735776e+03 1.383955353871109796e-05
1.774787393696848312e+03 1.376989739154805788e-05
1.775687843921960848e+03 1.370078040660617875e-05
1.776588294147073384e+03 1.363219681842522473e-05
1.777488744372185920e+03 1.356414094250159591e-05
1.778389194597298456e+03 1.349660717383510096e-05
1.779289644822411219e+03 1.342958998550891149e-05
1.780190095047523755e+03 1.336308392730140041e-05
1.781090545272636291e+03 1.329708362432840571e-05
1.781990995497748827e+03 1.323158377571574177e-05
1.782891445722861363e+03 1.316657915330138908e-05
1.783791895947973899e+03 1.310206460036488888e-05
1.784692346173086435e+03 1.303803503038716326e-05
1.785592796398198971e+03 1.297448542583302895e-05
1.786493246623311506e+03 1.291141083696448898e-05
1.787393696848424042e+03 1.284880638067590982e-05
1.788294147073536578e+03 1.278666723935672217e-05
1.789194597298649342e+03 1.272498865977651044e-05
1.790095047523761878e+03 1.266376595199498635e-05
1.790995497748874413e+03 1.260299448829353650e-05
1.791895947973986949e+03 1.254266970213109168e-05
1.792796398199099485e+03 1.248278708711993182e-05
1.793696848424212021e+03 1.242334219602379007e-05
1.794597298649324557e+03 1.236433063977636182e-05
1.795497748874437093e+03 1.230574808652028144e-05
1.796398199099549629e+03 1.224759026066534362e-05
1.797298649324662165e+03 1.218985294196637760e-05
1.798199099549774701e+03 1.213253196461951884e-05
1.799099549774887464e+03 1.207562321637688518e-05
1.800000000000000000e+03 1.201912263767915917e-05
