0.000000000000000000e+00 9.960357150956796520e-04
9.004502251125562351e-01 1.326921543532517175e-03
1.800900450225112470e+00 1.784534102860093870e-03
2.701350675337668594e+00 2.356955873114893740e-03
3.601800900450224940e+00 2.903031759894576010e-03
4.502251125562780842e+00 3.137324999122277896e-03
5.402701350675337189e+00 2.893932815270309697e-03
6.303151575787893535e+00 2.346451290068178944e-03
7.203601800900449881e+00 1.777608962935470259e-03
8.104052026013006227e+00 1.324245495842723804e-03
9.004502251125561685e+00 9.962287086416835719e-04
9.904952476238118919e+00 7.640126109893559002e-04
1.080540270135067438e+01 5.984931233686397031e-04
1.170585292646323161e+01 4.786050554432976878e-04
1.260630315157578707e+01 3.900555663906475363e-04
1.350675337668834430e+01 3.233120711984545999e-04
1.440720360180089976e+01 2.720292698343016792e-04
1.530765382691345522e+01 2.319435613077971698e-04
1.620810405202601245e+01 2.001459016694630407e-04
1.710855427713856969e+01 1.746125441811150608e-04
1.800900450225112337e+01 1.538733199942609697e-04
1.890945472736368060e+01 1.367404825342052963e-04
1.980990495247623784e+01 1.221792050945080105e-04
2.071035517758879507e+01 1.095010746673346735e-04
2.161080540270134875e+01 9.846362019827306405e-05
2.251125562781390599e+01 8.894422009193597625e-05
2.341170585292646322e+01 8.075424224421289541e-05
2.431215607803901690e+01 7.368010191184778870e-05
2.521260630315157414e+01 6.753077275576166829e-05
2.611305652826413137e+01 6.215068103452400154e-05
2.701350675337668861e+01 5.741693404773457100e-05
2.791395697848924229e+01 5.323284981861004894e-05
2.881440720360179952e+01 4.952203713550467078e-05
2.971485742871435676e+01 4.622322917217979653e-05
3.061530765382691044e+01 4.328311516146259274e-05
3.151575787893946767e+01 4.064449974671480767e-05
3.241620810405202491e+01 3.824028472589770499e-05
3.331665832916458214e+01 3.601575311388532778e-05
3.421710855427713938e+01 3.395550236713348413e-05
3.511755877938969661e+01 3.207275896997608045e-05
3.601800900450224674e+01 3.037658217231016479e-05
3.691845922961480397e+01 2.885356402500120323e-05
3.781890945472736121e+01 2.746035515007360023e-05
3.871935967983991844e+01 2.613078853396341144e-05
3.961980990495247568e+01 2.483240478314626705e-05
4.052026013006503291e+01 2.359402837722690709e-05
4.142071035517759015e+01 2.244825552704692902e-05
4.232116058029014027e+01 2.140083694477498805e-05
4.322161080540269751e+01 2.044315197860777607e-05
4.412206103051525474e+01 1.956445242166024242e-05
4.502251125562781198e+01 1.875592174800019818e-05
4.592296148074036921e+01 1.801126464560380257e-05
4.682341170585292645e+01 1.732650436229919532e-05
4.772386193096548368e+01 1.669945164607453391e-05
4.862431215607803381e+01 1.612774758092077224e-05
4.952476238119059104e+01 1.560295097907091582e-05
5.042521260630314828e+01 1.510278292992734169e-05
5.132566283141570551e+01 1.460273109243801481e-05
5.222611305652826275e+01 1.410785860070646001e-05
5.312656328164081998e+01 1.364387694208880329e-05
5.402701350675337721e+01 1.322210048401523099e-05
5.492746373186592734e+01 1.282996063791907587e-05
5.582791395697848458e+01 1.244533926433848051e-05
5.672836418209104181e+01 1.206260381448923352e-05
5.762881440720359905e+01 1.169190589133892764e-05
5.852926463231615628e+01 1.134326369646680569e-05
5.942971485742871351e+01 1.102659688753062194e-05
6.033016508254127075e+01 1.075085000142965667e-05
6.123061530765382088e+01 1.052208937264535568e-05
6.213106553276637811e+01 1.034297062174483160e-05
6.303151575787893535e+01 1.020493104475034569e-05
6.393196598299149258e+01 1.007529643389615154e-05
6.483241620810404982e+01 9.913006243545800596e-06
6.573286643321659994e+01 9.716836027131315739e-06
6.663331665832916428e+01 9.514525064542924819e-06
6.753376688344171441e+01 9.319258009889664441e-06
6.843421710855427875e+01 9.122903397117223298e-06
6.933466733366682888e+01 8.893073444260351932e-06
7.023511755877939322e+01 8.614704420155607807e-06
7.113556778389194335e+01 8.321697468767139116e-06
7.203601800900449348e+01 8.057780350275973750e-06
7.293646823411705782e+01 7.844013654475849947e-06
7.383691845922960795e+01 7.683043250355957912e-06
7.473736868434217229e+01 7.567155842649478457e-06
7.563781890945472242e+01 7.471590390180383120e-06
7.653826913456728676e+01 7.351274070814279443e-06
7.743871935967983688e+01 7.181708977177439902e-06
7.833916958479238701e+01 6.993065297670599178e-06
7.923961980990495135e+01 6.826942969681186578e-06
8.014007003501750148e+01 6.702826548307305848e-06
8.104052026013006582e+01 6.625286031419500430e-06
8.194097048524261595e+01 6.589722514174088058e-06
8.284142071035518029e+01 6.572912113301253615e-06
8.374187093546773042e+01 6.529419755227586202e-06
8.464232116058028055e+01 6.429771102632772823e-06
8.554277138569284489e+01 6.294250616525661482e-06
8.644322161080539502e+01 6.158771506239370652e-06
8.734367183591795936e+01 6.029048950663094774e-06
8.824412206103050949e+01 5.886607797158398454e-06
8.914457228614307382e+01 5.731709481342259426e-06
9.004502251125562395e+01 5.587045879554079109e-06
9.094547273636817408e+01 5.470421298275817785e-06
9.184592296148073842e+01 5.387691158893587999e-06
9.274637318659328855e+01 5.339076112589537479e-06
9.364682341170585289e+01 5.319827158883357027e-06
9.454727363681840302e+01 5.311499925417685004e-06
9.544772386193096736e+01 5.281042064304482975e-06
9.634817408704351749e+01 5.215168859895172651e-06
9.724862431215606762e+01 5.142536823455775465e-06
9.814907453726863196e+01 5.097595468673819140e-06
9.904952476238118209e+01 5.090576087020270544e-06
9.994997498749374643e+01 5.103590146060501210e-06
1.008504252126062966e+02 5.099736947591948916e-06
1.017508754377188609e+02 5.050373417801803492e-06
1.026513256628314110e+02 4.962483341394147248e-06
1.035517758879439612e+02 4.875214011739645722e-06
1.044522261130565255e+02 4.819381068733601163e-06
1.053526763381690756e+02 4.788664102312385755e-06
1.062531265632816400e+02 4.747570144007985179e-06
1.071535767883941901e+02 4.676716202318211384e-06
1.080540270135067544e+02 4.599800074274237550e-06
1.089544772386193046e+02 4.545911640804968279e-06
1.098549274637318547e+02 4.518846903055091271e-06
1.107553776888444190e+02 4.511023190560709700e-06
1.116558279139569692e+02 4.528090257582666787e-06
1.125562781390695335e+02 4.579982108686538928e-06
1.134567283641820836e+02 4.653422007303777450e-06
1.143571785892946480e+02 4.713765319216852885e-06
1.152576288144071981e+02 4.739579713990696410e-06
1.161580790395197482e+02 4.732833246087793620e-06
1.170585292646323126e+02 4.697200620121657462e-06
1.179589794897448627e+02 4.646053326152935786e-06
1.188594297148574270e+02 4.600397809344883044e-06
1.197598799399699772e+02 4.550618127926388396e-06
1.206603301650825415e+02 4.465366140300126692e-06
1.215607803901950916e+02 4.350689135048138354e-06
1.224612306153076418e+02 4.252215539198198364e-06
1.233616808404202061e+02 4.201476371425941817e-06
1.242621310655327562e+02 4.192823044951824539e-06
1.251625812906453206e+02 4.200049119969642243e-06
1.260630315157578707e+02 4.204299059613786122e-06
1.269634817408704350e+02 4.191287392835057603e-06
1.278639319659829852e+02 4.144513356202456588e-06
1.287643821910955353e+02 4.075796326493785078e-06
1.296648324162080996e+02 4.028097351100561284e-06
1.305652826413206640e+02 4.035999442169479722e-06
1.314657328664331999e+02 4.107490291513476130e-06
1.323661830915457642e+02 4.224851553780658497e-06
1.332666333166583286e+02 4.351261601049633694e-06
1.341670835417708929e+02 4.445378346362696803e-06
1.350675337668834288e+02 4.476323862475137392e-06
1.359679839919959932e+02 4.450743517358049934e-06
1.368684342171085575e+02 4.398297989695057556e-06
1.377688844422210934e+02 4.316958485669477466e-06
1.386693346673336578e+02 4.195008576154691348e-06
1.395697848924462221e+02 4.056308364408617037e-06
1.404702351175587864e+02 3.943259786504140913e-06
1.413706853426713224e+02 3.884356618886474609e-06
1.422711355677838867e+02 3.875593542616910482e-06
1.431715857928964510e+02 3.882574965226295468e-06
1.440720360180089870e+02 3.870558738361048514e-06
1.449724862431215513e+02 3.834953498787671398e-06
1.458729364682341156e+02 3.791331715398489168e-06
1.467733866933466800e+02 3.757920622222073936e-06
1.476738369184592159e+02 3.757611144106743102e-06
1.485742871435717802e+02 3.809807927197030019e-06
1.494747373686843446e+02 3.912181976302425753e-06
1.503751875937968805e+02 4.034870396482343632e-06
1.512756378189094448e+02 4.126640710927392750e-06
1.521760880440220092e+02 4.139700901950166121e-06
1.530765382691345735e+02 4.071376996474073840e-06
1.539769884942471094e+02 3.966370426152546316e-06
1.548774387193596738e+02 3.881713598928999502e-06
1.557778889444722381e+02 3.844332047934420147e-06
1.566783391695847740e+02 3.850269049872874299e-06
1.575787893946973384e+02 3.892576826288069354e-06
1.584792396198099027e+02 3.956246500825006738e-06
1.593796898449224670e+02 4.014810948383964681e-06
1.602801400700350030e+02 4.057167727770689252e-06
1.611805902951475673e+02 4.070328208435300883e-06
1.620810405202601316e+02 4.037638950563495595e-06
1.629814907453726676e+02 3.983640476758856118e-06
1.638819409704852319e+02 3.955400300521600445e-06
1.647823911955977962e+02 3.981187054849330885e-06
1.656828414207103606e+02 4.059285332803092248e-06
1.665832916458228965e+02 4.162491333500002877e-06
1.674837418709354608e+02 4.262798377406794790e-06
1.683841920960480252e+02 4.343360933655639341e-06
1.692846423211605611e+02 4.391344415942559273e-06
1.701850925462731254e+02 4.394836914524027640e-06
1.710855427713856898e+02 4.347239297357375270e-06
1.719859929964982541e+02 4.273549704969467034e-06
1.728864432216107900e+02 4.227136054860610321e-06
1.737868934467233544e+02 4.222767374517534652e-06
1.746873436718359187e+02 4.229876166110887714e-06
1.755877938969484546e+02 4.234388132924318140e-06
1.764882441220610190e+02 4.254128093162634358e-06
1.773886943471735833e+02 4.309840780652998797e-06
1.782891445722861476e+02 4.393417788897627799e-06
1.791895947973986836e+02 4.452637728890331581e-06
1.800900450225112479e+02 4.435523481653785852e-06
1.809904952476238122e+02 4.365784204958922259e-06
1.818909454727363482e+02 4.325350133436002132e-06
1.827913956978489125e+02 4.367576875582588822e-06
1.836918459229614768e+02 4.488490910406806789e-06
1.845922961480740412e+02 4.630155380495776510e-06
1.854927463731865771e+02 4.716013243551535451e-06
1.863931965982991414e+02 4.723614760963989713e-06
1.872936468234117058e+02 4.682812779791487238e-06
1.881940970485242417e+02 4.620363488442293032e-06
1.890945472736368060e+02 4.539009308662245473e-06
1.899949974987493704e+02 4.454494119840946836e-06
1.908954477238619347e+02 4.393950670285515937e-06
1.917958979489744706e+02 4.363760418910484855e-06
1.926963481740870350e+02 4.361173032802126082e-06
1.935967983991995993e+02 4.400023226459326894e-06
1.944972486243121352e+02 4.503148732307674857e-06
1.953976988494246996e+02 4.656925785429737171e-06
1.962981490745372639e+02 4.802510416500220239e-06
1.971985992996498283e+02 4.876420733731018390e-06
1.980990495247623642e+02 4.855285226358637458e-06
1.989994997498749285e+02 4.775799797270523776e-06
1.998999499749874929e+02 4.699116085256828271e-06
2.008004002001000288e+02 4.669200843535107031e-06
2.017008504252125931e+02 4.697885590986047974e-06
2.026013006503251574e+02 4.762688890042213035e-06
2.035017508754377218e+02 4.828117591139122151e-06
2.044022011005502577e+02 4.873762764528661064e-06
2.053026513256628220e+02 4.895499693303591452e-06
2.062031015507753864e+02 4.881787302167435009e-06
2.071035517758879223e+02 4.817577619878548994e-06
2.080040020010004866e+02 4.733049944810856331e-06
2.089044522261130510e+02 4.673338865249293294e-06
2.098049024512256153e+02 4.637225864172011274e-06
2.107053526763381512e+02 4.600790678336418111e-06
2.116058029014507156e+02 4.559574131876908443e-06
2.125062531265632799e+02 4.533276832639678536e-06
2.134067033516758158e+02 4.562135743513029721e-06
2.143071535767883802e+02 4.674238831228233034e-06
2.152076038019009445e+02 4.839137026148042961e-06
2.161080540270135089e+02 4.982123079467686369e-06
2.170085042521260448e+02 5.074053371900651605e-06
2.179089544772386091e+02 5.162769794432712975e-06
2.188094047023511735e+02 5.276891866273294510e-06
2.197098549274637094e+02 5.361777506589681884e-06
2.206103051525762737e+02 5.345640011477342548e-06
2.215107553776888381e+02 5.218563069860390730e-06
2.224112056028014024e+02 5.027266296038833762e-06
2.233116558279139383e+02 4.832279998113343129e-06
2.242121060530265027e+02 4.668955321622699369e-06
2.251125562781390670e+02 4.551047406692703907e-06
2.260130065032516029e+02 4.492769846344071228e-06
2.269134567283641672e+02 4.503710911972459100e-06
2.278139069534767316e+02 4.564207276170249378e-06
2.287143571785892959e+02 4.639059687076050178e-06
2.296148074037018318e+02 4.729740176992349763e-06
2.305152576288143962e+02 4.881903605663729996e-06
2.314157078539269605e+02 5.116928810595108605e-06
2.323161580790394964e+02 5.383774010973744392e-06
2.332166083041520608e+02 5.620998179193111137e-06
2.341170585292646251e+02 5.832432082545964791e-06
2.350175087543771895e+02 6.059848481189427893e-06
2.359179589794897254e+02 6.285001628533169488e-06
2.368184092046022897e+02 6.409596782428192924e-06
2.377188594297148541e+02 6.360044891362038386e-06
2.386193096548273900e+02 6.153854807486334692e-06
2.395197598799399543e+02 5.864608541421026301e-06
2.404202101050525187e+02 5.571628254448578850e-06
2.413206603301650830e+02 5.317382021985892152e-06
2.422211105552776189e+02 5.104678574941492377e-06
2.431215607803901833e+02 4.940415979764935764e-06
2.440220110055027476e+02 4.832657463534083793e-06
2.449224612306152835e+02 4.762681344855040195e-06
2.458229114557278479e+02 4.714973045477769054e-06
2.467233616808404122e+02 4.699744172937905833e-06
2.476238119059529765e+02 4.712647996410335403e-06
2.485242621310655124e+02 4.730322415224805874e-06
2.494247123561780768e+02 4.756625846197270866e-06
2.503251625812906411e+02 4.813640595965158406e-06
2.512256128064031770e+02 4.899597021658917683e-06
2.521260630315157414e+02 4.988521431438272735e-06
2.530265132566283057e+02 5.055439165458416348e-06
2.539269634817408701e+02 5.081513082063870720e-06
2.548274137068534060e+02 5.062949142329151935e-06
2.557278639319659703e+02 5.014716967283571235e-06
2.566283141570785347e+02 4.950285595981691076e-06
2.575287643821910706e+02 4.883103037919360028e-06
2.584292146073036633e+02 4.828208972170301622e-06
2.593296648324161993e+02 4.792456290140885200e-06
2.602301150575287352e+02 4.781058867523501756e-06
2.611305652826413279e+02 4.793515458403635651e-06
2.620310155077538639e+02 4.807704935685626106e-06
2.629314657328663998e+02 4.815585441948056155e-06
2.638319159579789925e+02 4.865076192795656425e-06
2.647323661830915285e+02 5.010991148490478281e-06
2.656328164082040644e+02 5.260554854044967290e-06
2.665332666333166571e+02 5.565218186487760744e-06
2.674337168584291931e+02 5.843904199915140911e-06
2.683341670835417858e+02 6.045304157884449040e-06
2.692346173086543217e+02 6.166901647536148911e-06
2.701350675337668577e+02 6.214320782986093893e-06
2.710355177588794504e+02 6.194743547543196145e-06
2.719359679839919863e+02 6.113236718158915001e-06
2.728364182091045222e+02 5.965537291177237152e-06
2.737368684342171150e+02 5.766312532115326391e-06
2.746373186593296509e+02 5.556718019226678640e-06
2.755377688844421868e+02 5.377868579988033705e-06
2.764382191095547796e+02 5.248823815655070011e-06
2.773386693346673155e+02 5.167513907407894452e-06
2.782391195597798514e+02 5.126047884832358293e-06
2.791395697848924442e+02 5.128095302446345896e-06
2.800400200100049801e+02 5.202711099506903368e-06
2.809404702351175729e+02 5.378403165347706580e-06
2.818409204602301088e+02 5.633215242361910641e-06
2.827413706853426447e+02 5.897196110051651775e-06
2.836418209104552375e+02 6.119990405075395763e-06
2.845422711355677734e+02 6.295774154115968956e-06
2.854427213606803093e+02 6.436378608940674365e-06
2.863431715857929021e+02 6.557417771910904610e-06
2.872436218109054380e+02 6.685611644381649631e-06
2.881440720360179739e+02 6.829370152356469087e-06
2.890445222611305667e+02 6.960085173461846378e-06
2.899449724862431026e+02 7.052312414185989529e-06
2.908454227113556385e+02 7.123416865087799134e-06
2.917458729364682313e+02 7.192271364542477631e-06
2.926463231615807672e+02 7.230302772211767913e-06
2.935467733866933600e+02 7.205898155818582900e-06
2.944472236118058959e+02 7.130914980948484107e-06
2.953476738369184318e+02 7.042318606165495254e-06
2.962481240620310246e+02 6.995300628553977249e-06
2.971485742871435605e+02 7.031832448160543371e-06
2.980490245122560964e+02 7.117670575809334200e-06
2.989494747373686891e+02 7.187039475188784283e-06
2.998499249624812251e+02 7.251416437983974409e-06
3.007503751875937610e+02 7.360010832266275984e-06
3.016508254127063537e+02 7.507446227155877336e-06
3.025512756378188897e+02 7.645336683687266088e-06
3.034517258629314256e+02 7.748085317465451782e-06
3.043521760880440183e+02 7.822704641190268034e-06
3.052526263131565543e+02 7.871064237220057132e-06
3.061530765382691470e+02 7.891386088369712823e-06
3.070535267633816829e+02 7.872048158783266368e-06
3.079539769884942189e+02 7.795046020636282235e-06
3.088544272136068116e+02 7.683602220308627056e-06
3.097548774387193475e+02 7.610647059948535610e-06
3.106553276638318835e+02 7.639255290135152666e-06
3.115557778889444762e+02 7.785455494966864347e-06
3.124562281140570121e+02 8.027464653189518760e-06
3.133566783391695481e+02 8.339060607359680954e-06
3.142571285642821408e+02 8.685603175055464230e-06
3.151575787893946767e+02 9.014414473755106921e-06
3.160580290145072127e+02 9.255983906316552138e-06
3.169584792396198054e+02 9.347105493445304029e-06
3.178589294647323413e+02 9.296897327124882329e-06
3.187593796898449341e+02 9.191802971740316647e-06
3.196598299149574700e+02 9.123894011565116229e-06
3.205602801400700059e+02 9.120136307613820877e-06
3.214607303651825987e+02 9.149560825461220572e-06
3.223611805902951346e+02 9.191646983522404265e-06
3.232616308154076705e+02 9.243710948808028368e-06
3.241620810405202633e+02 9.320987057223715112e-06
3.250625312656327992e+02 9.453496444778863324e-06
3.259629814907453351e+02 9.642098956863172737e-06
3.268634317158579279e+02 9.846920533159530563e-06
3.277638819409704638e+02 1.003072273881560003e-05
3.286643321660829997e+02 1.020531515808235497e-05
3.295647823911955925e+02 1.041733857843427988e-05
3.304652326163081284e+02 1.070323178492380501e-05
3.313656828414207212e+02 1.106707691331143781e-05
3.322661330665332571e+02 1.145335895752053095e-05
3.331665832916457930e+02 1.176891778015062258e-05
3.340670335167583858e+02 1.196452619817955312e-05
3.349674837418709217e+02 1.204608175444721587e-05
3.358679339669834576e+02 1.203459708962044641e-05
3.367683841920960504e+02 1.196431744441039945e-05
3.376688344172085863e+02 1.187965925637482516e-05
3.385692846423211222e+02 1.182564464227158657e-05
3.394697348674337150e+02 1.182975942344666047e-05
3.403701850925462509e+02 1.187102482348246603e-05
3.412706353176587868e+02 1.191908418631660309e-05
3.421710855427713796e+02 1.197853593898410775e-05
3.430715357678839155e+02 1.207898340316840702e-05
3.439719859929965082e+02 1.224790416592796001e-05
3.448724362181090441e+02 1.244267793917471666e-05
3.457728864432215801e+02 1.257448629288736049e-05
3.466733366683341728e+02 1.263696458157613110e-05
3.475737868934467087e+02 1.268349863194936342e-05
3.484742371185592447e+02 1.275350076128213276e-05
3.493746873436718374e+02 1.289638997039844825e-05
3.502751375687843733e+02 1.310303119095250339e-05
3.511755877938969093e+02 1.326398393509131633e-05
3.520760380190095020e+02 1.324584246200305309e-05
3.529764882441220379e+02 1.298816113699825719e-05
3.538769384692345739e+02 1.256053323943316951e-05
3.547773886943471666e+02 1.210317886843788259e-05
3.556778389194597025e+02 1.172728513522509764e-05
3.565782891445722953e+02 1.146067178084429442e-05
3.574787393696848312e+02 1.124621475434504983e-05
3.583791895947973671e+02 1.102135327121983179e-05
3.592796398199099599e+02 1.079716080433762421e-05
3.601800900450224958e+02 1.063138803047319280e-05
3.610805402701350317e+02 1.057976476281874097e-05
3.619809904952476245e+02 1.065798661496004684e-05
3.628814407203601604e+02 1.082706667100314331e-05
3.637818909454726963e+02 1.102977324340733335e-05
3.646823411705852891e+02 1.120146688628218032e-05
3.655827913956978250e+02 1.126970222789131794e-05
3.664832416208103609e+02 1.119621598711311715e-05
3.673836918459229537e+02 1.100897593263832944e-05
3.682841420710354896e+02 1.076370715295116937e-05
3.691845922961480824e+02 1.052582236407218108e-05
3.700850425212606183e+02 1.037506570132406546e-05
3.709854927463731542e+02 1.033927943103900235e-05
3.718859429714857470e+02 1.034683209811206495e-05
3.727863931965982829e+02 1.030897722953166245e-05
3.736868434217108188e+02 1.022164435574591559e-05
3.745872936468234116e+02 1.014916437606360848e-05
3.754877438719359475e+02 1.013035500907504392e-05
3.763881940970484834e+02 1.015406589126809350e-05
3.772886443221610762e+02 1.020655576446391304e-05
3.781890945472736121e+02 1.030196037028753701e-05
3.790895447723861480e+02 1.041914869062641911e-05
3.799899949974987408e+02 1.047900171440289719e-05
3.808904452226112767e+02 1.044047429041952011e-05
3.817908954477238694e+02 1.032768241095477020e-05
3.826913456728364054e+02 1.016669953172899604e-05
3.835917958979489413e+02 9.975700426967790737e-06
3.844922461230615340e+02 9.789720553402315203e-06
3.853926963481740700e+02 9.652046752244997774e-06
3.862931465732866059e+02 9.577796565059115431e-06
3.871935967983991986e+02 9.552492694253060822e-06
3.880940470235117346e+02 9.543733915901781017e-06
3.889944972486242705e+02 9.514987556919072808e-06
3.898949474737368632e+02 9.445734498954886112e-06
3.907953976988493991e+02 9.352872818803007699e-06
3.916958479239619351e+02 9.289505154756837931e-06
3.925962981490745278e+02 9.308205377183045097e-06
3.934967483741870637e+02 9.398999366597446807e-06
3.943971985992996565e+02 9.495541137823827223e-06
3.952976488244121924e+02 9.553926852186686607e-06
3.961980990495247283e+02 9.563435100470440032e-06
3.970985492746373211e+02 9.506376214450704172e-06
3.979989994997498570e+02 9.390039102868121161e-06
3.988994497248623929e+02 9.243289453446509865e-06
3.997998999499749857e+02 9.092483203144330106e-06
4.007003501750875216e+02 8.979684645377187019e-06
4.016008004002000575e+02 8.942079547060790637e-06
4.025012506253126503e+02 8.985284392889301901e-06
4.034017008504251862e+02 9.097772225755313568e-06
4.043021510755377221e+02 9.257978437795888829e-06
4.052026013006503149e+02 9.419272136769442510e-06
4.061030515257628508e+02 9.512773055922244377e-06
4.070035017508754436e+02 9.507822293974237099e-06
4.079039519759879795e+02 9.442228304661895436e-06
4.088044022011005154e+02 9.377008038324692192e-06
4.097048524262131082e+02 9.353221720376549017e-06
4.106053026513256441e+02 9.361635491254471957e-06
4.115057528764381800e+02 9.363889759631898490e-06
4.124062031015507728e+02 9.340267821878364923e-06
4.133066533266633087e+02 9.273754711714148492e-06
4.142071035517758446e+02 9.169953659792368840e-06
4.151075537768884374e+02 9.086306602571645339e-06
4.160080040020009733e+02 9.073388043627703250e-06
4.169084542271135092e+02 9.130408252258036454e-06
4.178089044522261020e+02 9.217490083749176895e-06
4.187093546773386379e+02 9.296828360272079729e-06
4.196098049024512306e+02 9.345234079425298172e-06
4.205102551275637666e+02 9.341579242282693367e-06
4.214107053526763025e+02 9.269921331762728974e-06
4.223111555777888952e+02 9.135791658284782505e-06
4.232116058029014312e+02 8.972140927146225791e-06
4.241120560280139671e+02 8.823441286238793975e-06
4.250125062531265598e+02 8.728265415170114228e-06
4.259129564782390958e+02 8.710739737768364687e-06
4.268134067033516317e+02 8.748915545681394126e-06
4.277138569284642244e+02 8.777004441706873884e-06
4.286143071535767604e+02 8.769591140169900740e-06
4.295147573786892963e+02 8.763063492682981434e-06
4.304152076038018890e+02 8.772500273155756556e-06
4.313156578289144250e+02 8.796332080797424207e-06
4.322161080540270177e+02 8.844731359956795006e-06
4.331165582791395536e+02 8.908215084627474998e-06
4.340170085042520896e+02 8.959819634520727936e-06
4.349174587293646823e+02 8.987218167713109890e-06
4.358179089544772182e+02 8.973204460053399068e-06
4.367183591795897541e+02 8.906624425138214146e-06
4.376188094047023469e+02 8.817277620441264330e-06
4.385192596298148828e+02 8.751497944056360872e-06
4.394197098549274187e+02 8.734877792287114437e-06
4.403201600800400115e+02 8.767854910739342517e-06
4.412206103051525474e+02 8.821245987786007170e-06
4.421210605302650833e+02 8.866039876903338324e-06
4.430215107553776761e+02 8.911507341180625950e-06
4.439219609804902120e+02 8.971091712504792641e-06
4.448224112056028048e+02 9.043956065432502131e-06
4.457228614307153407e+02 9.114994790101875962e-06
4.466233116558278766e+02 9.174665220274437884e-06
4.475237618809404694e+02 9.252037381260547829e-06
4.484242121060530053e+02 9.360075311002954748e-06
4.493246623311655412e+02 9.452337016732499406e-06
4.502251125562781340e+02 9.489246453434617242e-06
4.511255627813906699e+02 9.477079086229233391e-06
4.520260130065032058e+02 9.430232523508866337e-06
4.529264632316157986e+02 9.363588224094546739e-06
4.538269134567283345e+02 9.299387574479393848e-06
4.547273636818408704e+02 9.239349416398446308e-06
4.556278139069534632e+02 9.176364962434287016e-06
4.565282641320659991e+02 9.134419310156296329e-06
4.574287143571785919e+02 9.141730061708438622e-06
4.583291645822911278e+02 9.180191265615372586e-06
4.592296148074036637e+02 9.216573053984125613e-06
4.601300650325162565e+02 9.260320569579531108e-06
4.610305152576287924e+02 9.333242909850740800e-06
4.619309654827413283e+02 9.406424382911978338e-06
4.628314157078539210e+02 9.439060254018070601e-06
4.637318659329664570e+02 9.452001159487445395e-06
4.646323161580789929e+02 9.503660085790690968e-06
4.655327663831915856e+02 9.601937934130692196e-06
4.664332166083041216e+02 9.688882725679272579e-06
4.673336668334167143e+02 9.725387450869354055e-06
4.682341170585292502e+02 9.743172595574483113e-06
4.691345672836417862e+02 9.782036067393279274e-06
4.700350175087543789e+02 9.821905318991046288e-06
4.709354677338669148e+02 9.830958032940119958e-06
4.718359179589794508e+02 9.827848400471502982e-06
4.727363681840920435e+02 9.824033079643436418e-06
4.736368184092045794e+02 9.796318693064484261e-06
4.745372686343171154e+02 9.735289371784132571e-06
4.754377188594297081e+02 9.650816253536537327e-06
4.763381690845422440e+02 9.560297595654052195e-06
4.772386193096547800e+02 9.500735561713259423e-06
4.781390695347673727e+02 9.506238393475506055e-06
4.790395197598799086e+02 9.571084184804095103e-06
4.799399699849925014e+02 9.660066234593538188e-06
4.808404202101050373e+02 9.729401976599411274e-06
4.817408704352175732e+02 9.755785373926095883e-06
4.826413206603301660e+02 9.755347050805791555e-06
4.835417708854427019e+02 9.743770089455655462e-06
4.844422211105552378e+02 9.719210232473288874e-06
4.853426713356678306e+02 9.698879811844842667e-06
4.862431215607803665e+02 9.740907816599008747e-06
4.871435717858929024e+02 9.886472141121090742e-06
4.880440220110054952e+02 1.010495399057760023e-05
4.889444722361180311e+02 1.032362350774269582e-05
4.898449224612305670e+02 1.049516044316537607e-05
4.907453726863431598e+02 1.061317880136362950e-05
4.916458229114556957e+02 1.067237044907923775e-05
4.925462731365682885e+02 1.067238081064150817e-05
4.934467233616808244e+02 1.063362494646189278e-05
4.943471735867933603e+02 1.057901101370644484e-05
4.952476238119059531e+02 1.053090357111238748e-05
4.961480740370184890e+02 1.049530745309672942e-05
4.970485242621310249e+02 1.046020201638200925e-05
4.979489744872436177e+02 1.043597896025340814e-05
4.988494247123561536e+02 1.044485377627630614e-05
4.997498749374686895e+02 1.049068194432102457e-05
5.006503251625812823e+02 1.056865842739120830e-05
5.015507753876938182e+02 1.066771474300114621e-05
5.024512256128063541e+02 1.077030386107307476e-05
5.033516758379189469e+02 1.084231949177609734e-05
5.042521260630314828e+02 1.085592344502912346e-05
5.051525762881440755e+02 1.083079717435688022e-05
5.060530265132566115e+02 1.081621439805411081e-05
5.069534767383691474e+02 1.083893328156138593e-05
5.078539269634817401e+02 1.089919542550175987e-05
5.087543771885942760e+02 1.098399503893723708e-05
5.096548274137068120e+02 1.106791219903410519e-05
5.105552776388194047e+02 1.113456414386560513e-05
5.114557278639319406e+02 1.117998362764372271e-05
5.123561780890445334e+02 1.120920319466085057e-05
5.132566283141570693e+02 1.123643966459484540e-05
5.141570785392696052e+02 1.127360201754123283e-05
5.150575287643821412e+02 1.131284735814297024e-05
5.159579789894946771e+02 1.134424281207879485e-05
5.168584292146073267e+02 1.137495274276021401e-05
5.177588794397198626e+02 1.143468423089383802e-05
5.186593296648323985e+02 1.155909631144038245e-05
5.195597798899449344e+02 1.173817160641359881e-05
5.204602301150574704e+02 1.192226419738134589e-05
5.213606803401700063e+02 1.209223813462562751e-05
5.222611305652826559e+02 1.227005963960785061e-05
5.231615807903951918e+02 1.247847831387271799e-05
5.240620310155077277e+02 1.271244933926139942e-05
5.249624812406202636e+02 1.292680408556570021e-05
5.258629314657327996e+02 1.307134400313469450e-05
5.267633816908454492e+02 1.316133526254907630e-05
5.276638319159579851e+02 1.325059716692754927e-05
5.285642821410705210e+02 1.335305834239279880e-05
5.294647323661830569e+02 1.345923879904284934e-05
5.303651825912955928e+02 1.355384452674255026e-05
5.312656328164081287e+02 1.362627814126489229e-05
5.321660830415207784e+02 1.368395437125649974e-05
5.330665332666333143e+02 1.375417046924338040e-05
5.339669834917458502e+02 1.386860274676364857e-05
5.348674337168583861e+02 1.402837067803190260e-05
5.357678839419709220e+02 1.419120105330116265e-05
5.366683341670835716e+02 1.431598729650151751e-05
5.375687843921961075e+02 1.441940175092347530e-05
5.384692346173086435e+02 1.455872733041873230e-05
5.393696848424211794e+02 1.477286732587225547e-05
5.402701350675337153e+02 1.502321043399283744e-05
5.411705852926462512e+02 1.524345267776309538e-05
5.420710355177589008e+02 1.542572371950808141e-05
5.429714857428714367e+02 1.557025903787181902e-05
5.438719359679839727e+02 1.566002266098638133e-05
5.447723861930965086e+02 1.573600592040927030e-05
5.456728364182090445e+02 1.584483717708487098e-05
5.465732866433215804e+02 1.597385529279927267e-05
5.474737368684342300e+02 1.610927978722013001e-05
5.483741870935467659e+02 1.626816535347804204e-05
5.492746373186593019e+02 1.644423895991893716e-05
5.501750875437718378e+02 1.660391403503488225e-05
5.510755377688843737e+02 1.671748538180858765e-05
5.519759879939970233e+02 1.676291708709308118e-05
5.528764382191095592e+02 1.673432952192120663e-05
5.537768884442220951e+02 1.665912155858173031e-05
5.546773386693346310e+02 1.658539118752759645e-05
5.555777888944471670e+02 1.652915615176672230e-05
5.564782391195597029e+02 1.649240942988008932e-05
5.573786893446723525e+02 1.649900472037965467e-05
5.582791395697848884e+02 1.655389725593584596e-05
5.591795897948974243e+02 1.663343977495444385e-05
5.600800400200099602e+02 1.672225069324000820e-05
5.609804902451224962e+02 1.681588461584138832e-05
5.618809404702351458e+02 1.688834349796792516e-05
5.627813906953476817e+02 1.693232115073886550e-05
5.636818409204602176e+02 1.698389663087998590e-05
5.645822911455727535e+02 1.704746441659478519e-05
5.654827413706852894e+02 1.708893954603505453e-05
5.663831915957978254e+02 1.707291376561037311e-05
5.672836418209104750e+02 1.699832491468080179e-05
5.681840920460230109e+02 1.692263134651265523e-05
5.690845422711355468e+02 1.687610759960339347e-05
5.699849924962480827e+02 1.680604459576302061e-05
5.708854427213606186e+02 1.666975118649470346e-05
5.717858929464731546e+02 1.649789367369531269e-05
5.726863431715858042e+02 1.634669468037600035e-05
5.735867933966983401e+02 1.625647600079206421e-05
5.744872436218108760e+02 1.621940825000145705e-05
5.753876938469234119e+02 1.618817819951710480e-05
5.762881440720359478e+02 1.613310155443823884e-05
5.771885942971485974e+02 1.605967310131398780e-05
5.780890445222611334e+02 1.598307505615086891e-05
5.789894947473736693e+02 1.590845797215344662e-05
5.798899449724862052e+02 1.581266652566263879e-05
5.807903951975987411e+02 1.566615707992717230e-05
5.816908454227112770e+02 1.549422901399398800e-05
5.825912956478239266e+02 1.534627759099089911e-05
5.834917458729364625e+02 1.523705469407057856e-05
5.843921960980489985e+02 1.514864346423557195e-05
5.852926463231615344e+02 1.507239802413908316e-05
5.861930965482740703e+02 1.501537596510379055e-05
5.870935467733867199e+02 1.497623234701927465e-05
5.879939969984992558e+02 1.494052198090128122e-05
5.888944472236117917e+02 1.489744006926057810e-05
5.897948974487243277e+02 1.485684294689458404e-05
5.906953476738368636e+02 1.482321115515466454e-05
5.915957978989493995e+02 1.474830066845183129e-05
5.924962481240620491e+02 1.458164154314977395e-05
5.933966983491745850e+02 1.435340063309229329e-05
5.942971485742871209e+02 1.413638414125769606e-05
5.951975987993996569e+02 1.396996540464060291e-05
5.960980490245121928e+02 1.386966001313104622e-05
5.969984992496247287e+02 1.383200973757082899e-05
5.978989494747373783e+02 1.381699037485309351e-05
5.987993996998499142e+02 1.377807395248319652e-05
5.996998499249624501e+02 1.370625536380175854e-05
6.006003001500749860e+02 1.363258881141116070e-05
6.015007503751875220e+02 1.358111104512784990e-05
6.024012006003001716e+02 1.354657866836766920e-05
6.033016508254127075e+02 1.352747367330710638e-05
6.042021010505252434e+02 1.352682018392418227e-05
6.051025512756377793e+02 1.353560203300327348e-05
6.060030015007503152e+02 1.354300473738825397e-05
6.069034517258628512e+02 1.353121742374823707e-05
6.078039019509755008e+02 1.346427166994953370e-05
6.087043521760880367e+02 1.332068433247716979e-05
6.096048024012005726e+02 1.312909091589297726e-05
6.105052526263131085e+02 1.294613896310019850e-05
6.114057028514256444e+02 1.281034997537857852e-05
6.123061530765382940e+02 1.273489984438415453e-05
6.132066033016508300e+02 1.270223493160602231e-05
6.141070535267633659e+02 1.268172791183100982e-05
6.150075037518759018e+02 1.265049652760206683e-05
6.159079539769884377e+02 1.259646065024646943e-05
6.168084042021009736e+02 1.252633093953650001e-05
6.177088544272136232e+02 1.244926393691959742e-05
6.186093046523261592e+02 1.236023572489488548e-05
6.195097548774386951e+02 1.223756747462191945e-05
6.204102051025512310e+02 1.206714935679221969e-05
6.213106553276637669e+02 1.187609481495768142e-05
6.222111055527763028e+02 1.172111015416241146e-05
6.231115557778889524e+02 1.164515918301275861e-05
6.240120060030014884e+02 1.164701227361039522e-05
6.249124562281140243e+02 1.169658018643262364e-05
6.258129064532265602e+02 1.177499863633292339e-05
6.267133566783390961e+02 1.187648721479642539e-05
6.276138069034517457e+02 1.198027221587715767e-05
6.285142571285642816e+02 1.203124678399025529e-05
6.294147073536768175e+02 1.196763264757944925e-05
6.303151575787893535e+02 1.179827464703512838e-05
6.312156078039018894e+02 1.160402168460844545e-05
6.321160580290144253e+02 1.146530817806320556e-05
6.330165082541270749e+02 1.142457445328639987e-05
6.339169584792396108e+02 1.150733793463218356e-05
6.348174087043521467e+02 1.171576588037979732e-05
6.357178589294646827e+02 1.200382686559372234e-05
6.366183091545772186e+02 1.228894340719019596e-05
6.375187593796898682e+02 1.248850776828599492e-05
6.384192096048024041e+02 1.256606776890854853e-05
6.393196598299149400e+02 1.255740796964645029e-05
6.402201100550274759e+02 1.252026976874377521e-05
6.411205602801400119e+02 1.249229122399259201e-05
6.420210105052525478e+02 1.248099759106485886e-05
6.429214607303651974e+02 1.245012310340234581e-05
6.438219109554777333e+02 1.234909978786366638e-05
6.447223611805902692e+02 1.216254269710760474e-05
6.456228114057028051e+02 1.194454608351059245e-05
6.465232616308153411e+02 1.178017923914673751e-05
6.474237118559278770e+02 1.169593610302820821e-05
6.483241620810405266e+02 1.166263770789263597e-05
6.492246123061530625e+02 1.165853307330521844e-05
6.501250625312655984e+02 1.167667922829764820e-05
6.510255127563781343e+02 1.169093067937152915e-05
6.519259629814906702e+02 1.168361557990736383e-05
6.528264132066033198e+02 1.168361389679363921e-05
6.537268634317158558e+02 1.172778050775588234e-05
6.546273136568283917e+02 1.181522173989086283e-05
6.555277638819409276e+02 1.191037719216638076e-05
6.564282141070534635e+02 1.197194174832907900e-05
6.573286643321659994e+02 1.199583644196089867e-05
6.582291145572786490e+02 1.200464719368698755e-05
6.591295647823911850e+02 1.201329540132040077e-05
6.600300150075037209e+02 1.203506545159419987e-05
6.609304652326162568e+02 1.206942996127027610e-05
6.618309154577287927e+02 1.210123135414460746e-05
6.627313656828414423e+02 1.212109215116432173e-05
6.636318159079539782e+02 1.210766564174324548e-05
6.645322661330665142e+02 1.204237403441072091e-05
6.654327163581790501e+02 1.195771103538300648e-05
6.663331665832915860e+02 1.190553125238493503e-05
6.672336168084041219e+02 1.187932457759584324e-05
6.681340670335167715e+02 1.181710603542719417e-05
6.690345172586293074e+02 1.168691243740337655e-05
6.699349674837418434e+02 1.153827913587365301e-05
6.708354177088543793e+02 1.144355150074584538e-05
6.717358679339669152e+02 1.142713318609387341e-05
6.726363181590794511e+02 1.145663921222761646e-05
6.735367683841921007e+02 1.146154112606678747e-05
6.744372186093046366e+02 1.138189555819025674e-05
6.753376688344171725e+02 1.121945221328069241e-05
6.762381190595297085e+02 1.102851656542531918e-05
6.771385692846422444e+02 1.087245837928976953e-05
6.780390195097548940e+02 1.077931865402728418e-05
6.789394697348674299e+02 1.074737109493971886e-05
6.798399199599799658e+02 1.077755786915119062e-05
6.807403701850925017e+02 1.086480673142318666e-05
6.816408204102050377e+02 1.098857029687417861e-05
6.825412706353175736e+02 1.112341898914707313e-05
6.834417208604302232e+02 1.123366244258434562e-05
6.843421710855427591e+02 1.128017293205335341e-05
6.852426213106552950e+02 1.125921535952349521e-05
6.861430715357678309e+02 1.121058457269560825e-05
6.870435217608803669e+02 1.116962455390225546e-05
6.879439719859930165e+02 1.113688337492341677e-05
6.888444222111055524e+02 1.110094313457856487e-05
6.897448724362180883e+02 1.107036668217391024e-05
6.906453226613306242e+02 1.106231011026666756e-05
6.915457728864431601e+02 1.108080260658110462e-05
6.924462231115556961e+02 1.111303025585938724e-05
6.933466733366683457e+02 1.113489865954699546e-05
6.942471235617808816e+02 1.114240828757573457e-05
6.951475737868934175e+02 1.115159512938040302e-05
6.960480240120059534e+02 1.116307186677501409e-05
6.969484742371184893e+02 1.116815662799111025e-05
6.978489244622311389e+02 1.117721334987347344e-05
6.987493746873436749e+02 1.120770634380127549e-05
6.996498249124562108e+02 1.127170020142082227e-05
7.005502751375687467e+02 1.136323868082871546e-05
7.014507253626812826e+02 1.144121966700670608e-05
7.023511755877938185e+02 1.147670276962376855e-05
7.032516258129064681e+02 1.148011735980710590e-05
7.041520760380190040e+02 1.144716726235677398e-05
7.050525262631315400e+02 1.136137403984841925e-05
7.059529764882440759e+02 1.125913081349230845e-05
7.068534267133566118e+02 1.121431734045583009e-05
7.077538769384691477e+02 1.127477547068778502e-05
7.086543271635817973e+02 1.142196941311066229e-05
7.095547773886943332e+02 1.157494906353399383e-05
7.104552276138068692e+02 1.165460257620303825e-05
7.113556778389194051e+02 1.164474200766387657e-05
7.122561280640319410e+02 1.158310619488917657e-05
7.131565782891445906e+02 1.152960049713550252e-05
7.140570285142571265e+02 1.152690471525851612e-05
7.149574787393696624e+02 1.157429018842167234e-05
7.158579289644821984e+02 1.165265037404291325e-05
7.167583791895947343e+02 1.173126104446529844e-05
7.176588294147072702e+02 1.177133565843837409e-05
7.185592796398199198e+02 1.177086624634518031e-05
7.194597298649324557e+02 1.176016042948914035e-05
7.203601800900449916e+02 1.174611487602374174e-05
7.212606303151575275e+02 1.171312919901417453e-05
7.221610805402700635e+02 1.165792295435401981e-05
7.230615307653827131e+02 1.158657283907003141e-05
7.239619809904952490e+02 1.151943953980901869e-05
7.248624312156077849e+02 1.149391904995321630e-05
7.257628814407203208e+02 1.152422262820654989e-05
7.266633316658328567e+02 1.158333410826634970e-05
7.275637818909453927e+02 1.163100555689199551e-05
7.284642321160580423e+02 1.163859513490793734e-05
7.293646823411705782e+02 1.161097270174420596e-05
7.302651325662831141e+02 1.159365145416701281e-05
7.311655827913956500e+02 1.162676988850642177e-05
7.320660330165081859e+02 1.171293539484744585e-05
7.329664832416207219e+02 1.183541295723093220e-05
7.338669334667333715e+02 1.198347583569240224e-05
7.347673836918459074e+02 1.214486421540713048e-05
7.356678339169584433e+02 1.228715918415924476e-05
7.365682841420709792e+02 1.237170963450236727e-05
7.374687343671835151e+02 1.237595233520182017e-05
7.383691845922961647e+02 1.229750300334930240e-05
7.392696348174087007e+02 1.218752852724753651e-05
7.401700850425212366e+02 1.212299857634659459e-05
7.410705352676337725e+02 1.213122455923480329e-05
7.419709854927463084e+02 1.219713290555281511e-05
7.428714357178588443e+02 1.229458182706768495e-05
7.437718859429714939e+02 1.239937999641424410e-05
7.446723361680840299e+02 1.250520182854554300e-05
7.455727863931965658e+02 1.261411071403829920e-05
7.464732366183091017e+02 1.271788553753383677e-05
7.473736868434216376e+02 1.280066864768059392e-05
7.482741370685342872e+02 1.284570666325725642e-05
7.491745872936468231e+02 1.285135222194051543e-05
7.500750375187593590e+02 1.282508070178160009e-05
7.509754877438718950e+02 1.277865874144020587e-05
7.518759379689844309e+02 1.274659146297067669e-05
7.527763881940969668e+02 1.276829793154883205e-05
7.536768384192096164e+02 1.286309762526248693e-05
7.545772886443221523e+02 1.301087883769694592e-05
7.554777388694346882e+02 1.315691149378805262e-05
7.563781890945472242e+02 1.325107235913941428e-05
7.572786393196597601e+02 1.330452189297920953e-05
7.581790895447722960e+02 1.338455273583386317e-05
7.590795397698849456e+02 1.349192105649839131e-05
7.599799899949974815e+02 1.353078926369279738e-05
7.608804402201100174e+02 1.343811336575638033e-05
7.617808904452225534e+02 1.326173700267320716e-05
7.626813406703350893e+02 1.310639326511630950e-05
7.635817908954477389e+02 1.301958503768145545e-05
7.644822411205602748e+02 1.297328955727342824e-05
7.653826913456728107e+02 1.293991607760310711e-05
7.662831415707853466e+02 1.291963745972980229e-05
7.671835917958978825e+02 1.291324318767863639e-05
7.680840420210104185e+02 1.290704242621249664e-05
7.689844922461230681e+02 1.288155528136581101e-05
7.698849424712356040e+02 1.285466336573003898e-05
7.707853926963481399e+02 1.286027418333315964e-05
7.716858429214606758e+02 1.289476722229469852e-05
7.725862931465732117e+02 1.292687538772331577e-05
7.734867433716858613e+02 1.293422143700764142e-05
7.743871935967983973e+02 1.291679159426862077e-05
7.752876438219109332e+02 1.289078438933821466e-05
7.761880940470234691e+02 1.286572428843301799e-05
7.770885442721360050e+02 1.284557485233976453e-05
7.779889944972485409e+02 1.285233614356437222e-05
7.788894447223611905e+02 1.292303729380749541e-05
7.797898949474737265e+02 1.306604134293116552e-05
7.806903451725862624e+02 1.323082044199906642e-05
7.815907953976987983e+02 1.334370814520338790e-05
7.824912456228113342e+02 1.337786525452315361e-05
7.833916958479238701e+02 1.337513719862059786e-05
7.842921460730365197e+02 1.339470433315301332e-05
7.851925962981490557e+02 1.346364729149957650e-05
7.860930465232615916e+02 1.355477331110960656e-05
7.869934967483741275e+02 1.362905496994852116e-05
7.878939469734866634e+02 1.367941195076661923e-05
7.887943971985993130e+02 1.371897217991101977e-05
7.896948474237118489e+02 1.375283717618031640e-05
7.905952976488243849e+02 1.379719136931427563e-05
7.914957478739369208e+02 1.385844172043632773e-05
7.923961980990494567e+02 1.389933509491117504e-05
7.932966483241619926e+02 1.385852833760639189e-05
7.941970985492746422e+02 1.372868031121920344e-05
7.950975487743871781e+02 1.358883961650835948e-05
7.959979989994997140e+02 1.351692692304701251e-05
7.968984492246122500e+02 1.350993872343560871e-05
7.977988994497247859e+02 1.353416482045015123e-05
7.986993496748374355e+02 1.356788567479023564e-05
7.995997998999499714e+02 1.357502136877039685e-05
8.005002501250625073e+02 1.353304678162999943e-05
8.014007003501750432e+02 1.346428506965633527e-05
8.023011505752875792e+02 1.339766083165913432e-05
8.032016008004001151e+02 1.332627247181854933e-05
8.041020510255127647e+02 1.322112448387422388e-05
8.050025012506253006e+02 1.309755011336863589e-05
8.059029514757378365e+02 1.302273284677056936e-05
8.068034017008503724e+02 1.302357761992854244e-05
8.077038519259629084e+02 1.307525340943850119e-05
8.086043021510754443e+02 1.316931259850926799e-05
8.095047523761880939e+02 1.329792244804420357e-05
8.104052026013006298e+02 1.342590562566703594e-05
8.113056528264131657e+02 1.351444973462080732e-05
8.122061030515257016e+02 1.353692573406005411e-05
8.131065532766382375e+02 1.350524000167996463e-05
8.140070035017508872e+02 1.346355525674539455e-05
8.149074537268634231e+02 1.343497056346181947e-05
8.158079039519759590e+02 1.340566457227608875e-05
8.167083541770884949e+02 1.336457805706485756e-05
8.176088044022010308e+02 1.331718959675132850e-05
8.185092546273135667e+02 1.327687273664839619e-05
8.194097048524262163e+02 1.327843603037335798e-05
8.203101550775387523e+02 1.335798465278841198e-05
8.212106053026512882e+02 1.350822083113148617e-05
8.221110555277638241e+02 1.367675100386873510e-05
8.230115057528763600e+02 1.380905980761412859e-05
8.239119559779890096e+02 1.388534007732353045e-05
8.248124062031015455e+02 1.389797096163366172e-05
8.257128564282140815e+02 1.385219729941426069e-05
8.266133066533266174e+02 1.379902900086265107e-05
8.275137568784391533e+02 1.377746363300618707e-05
8.284142071035516892e+02 1.376644277194383639e-05
8.293146573286643388e+02 1.374132776247786185e-05
8.302151075537768747e+02 1.371074461086298989e-05
8.311155577788894107e+02 1.368469449789094851e-05
8.320160080040019466e+02 1.366443859953855787e-05
8.329164582291144825e+02 1.363945793005899424e-05
8.338169084542270184e+02 1.356350818525111157e-05
8.347173586793396680e+02 1.340824823159521085e-05
8.356178089044522039e+02 1.323801194529624274e-05
8.365182591295647399e+02 1.314642512035622616e-05
8.374187093546772758e+02 1.314961401084766998e-05
8.383191595797898117e+02 1.320443387714364590e-05
8.392196098049024613e+02 1.328005950803299722e-05
8.401200600300149972e+02 1.336603352020858701e-05
8.410205102551275331e+02 1.346227488659582373e-05
8.419209604802400690e+02 1.357017280712081680e-05
8.428214107053526050e+02 1.366672045494014794e-05
8.437218609304651409e+02 1.372873038142896664e-05
8.446223111555777905e+02 1.377480332594666934e-05
8.455227613806903264e+02 1.385073290741444840e-05
8.464232116058028623e+02 1.398188943566426338e-05
8.473236618309153982e+02 1.414752317302619255e-05
8.482241120560279342e+02 1.430168521062662580e-05
8.491245622811405838e+02 1.440962802419201483e-05
8.500250125062531197e+02 1.448079369645060069e-05
8.509254627313656556e+02 1.454388151860601467e-05
8.518259129564781915e+02 1.460605162606491605e-05
8.527263631815907274e+02 1.466725462728715433e-05
8.536268134067032634e+02 1.474505710733335322e-05
8.545272636318159130e+02 1.484789033841173262e-05
8.554277138569284489e+02 1.493833891823101438e-05
8.563281640820409848e+02 1.499285008443054159e-05
8.572286143071535207e+02 1.503126079403316415e-05
8.581290645322660566e+02 1.504814938505607683e-05
8.590295147573785925e+02 1.501153368925305098e-05
8.599299649824912422e+02 1.494025265118113906e-05
8.608304152076037781e+02 1.489996561972007581e-05
8.617308654327163140e+02 1.491556115967347272e-05
8.626313156578288499e+02 1.494556993557029245e-05
8.635317658829413858e+02 1.494755839532898315e-05
8.644322161080540354e+02 1.493932287321418638e-05
8.653326663331665713e+02 1.493987100996916416e-05
8.662331165582791073e+02 1.492550277818569439e-05
8.671335667833916432e+02 1.488065384641701821e-05
8.680340170085041791e+02 1.481345242656088122e-05
8.689344672336167150e+02 1.474414219518026710e-05
8.698349174587293646e+02 1.468334752914784243e-05
8.707353676838419005e+02 1.461365696018680644e-05
8.716358179089544365e+02 1.451262262049178232e-05
8.725362681340669724e+02 1.437968231816920178e-05
8.734367183591795083e+02 1.424733684578059728e-05
8.743371685842921579e+02 1.414498890683957681e-05
8.752376188094046938e+02 1.408570493866968331e-05
8.761380690345172297e+02 1.407749098852232480e-05
8.770385192596297657e+02 1.410726095917427190e-05
8.779389694847423016e+02 1.415785293212963707e-05
8.788394197098548375e+02 1.426729071273429704e-05
8.797398699349674871e+02 1.447466697251152291e-05
8.806403201600800230e+02 1.473102795208355116e-05
8.815407703851925589e+02 1.492795399649588150e-05
8.824412206103050949e+02 1.499619289363332065e-05
8.833416708354176308e+02 1.494445074451581328e-05
8.842421210605301667e+02 1.482572761280359031e-05
8.851425712856428163e+02 1.469695752843940781e-05
8.860430215107553522e+02 1.459630806832926495e-05
8.869434717358678881e+02 1.454402331540711535e-05
8.878439219609804240e+02 1.453811992096188726e-05
8.887443721860929600e+02 1.455814127438892959e-05
8.896448224112056096e+02 1.457750308852778280e-05
8.905452726363181455e+02 1.458182208385109494e-05
8.914457228614306814e+02 1.461127637641471584e-05
8.923461730865432173e+02 1.474370846237675895e-05
8.932466233116557532e+02 1.499494321977513125e-05
8.941470735367682892e+02 1.529128088662472655e-05
8.950475237618809388e+02 1.554177995332188398e-05
8.959479739869934747e+02 1.568181490837092739e-05
8.968484242121060106e+02 1.569710553603714641e-05
8.977488744372185465e+02 1.561058757976411523e-05
8.986493246623310824e+02 1.546601525991688966e-05
8.995497748874437320e+02 1.534690029433266709e-05
9.004502251125562680e+02 1.532621268417702116e-05
9.013506753376688039e+02 1.538936961359753196e-05
9.022511255627813398e+02 1.546034730924682668e-05
9.031515757878938757e+02 1.548373957626320116e-05
9.040520260130064116e+02 1.547231573373667162e-05
9.049524762381190612e+02 1.548592406758316905e-05
9.058529264632315972e+02 1.555461158805459065e-05
9.067533766883441331e+02 1.566994726185992300e-05
9.076538269134566690e+02 1.581128745956550467e-05
9.085542771385692049e+02 1.594266372062069426e-05
9.094547273636817408e+02 1.602737021235302640e-05
9.103551775887943904e+02 1.605308364400751577e-05
9.112556278139069263e+02 1.605874103167189486e-05
9.121560780390194623e+02 1.608067614321084980e-05
9.130565282641319982e+02 1.611889825679969183e-05
9.139569784892445341e+02 1.617262806488368418e-05
9.148574287143571837e+02 1.625782305094843378e-05
9.157578789394697196e+02 1.640429661582634322e-05
9.166583291645822555e+02 1.660482002160792097e-05
9.175587793896947915e+02 1.677726124104300448e-05
9.184592296148073274e+02 1.685715413012743821e-05
9.193596798399198633e+02 1.687481290947379965e-05
9.202601300650325129e+02 1.687323077668425727e-05
9.211605802901450488e+02 1.685289500872579684e-05
9.220610305152575847e+02 1.682570476587744813e-05
9.229614807403701207e+02 1.683093380211782110e-05
9.238619309654826566e+02 1.690073361149586567e-05
9.247623811905953062e+02 1.705293746706634925e-05
9.256628314157078421e+02 1.728851445289332505e-05
9.265632816408203780e+02 1.759157254574698998e-05
9.274637318659329139e+02 1.794040328167398638e-05
9.283641820910454499e+02 1.828342741848899665e-05
9.292646323161579858e+02 1.855163708010950464e-05
9.301650825412706354e+02 1.872329140901868091e-05
9.310655327663831713e+02 1.883651211952597909e-05
9.319659829914957072e+02 1.894955111802872346e-05
9.328664332166082431e+02 1.909956633171786466e-05
9.337668834417207790e+02 1.927685101910393467e-05
9.346673336668334287e+02 1.944394250659790035e-05
9.355677838919459646e+02 1.956737744010395588e-05
9.364682341170585005e+02 1.964187913868498396e-05
9.373686843421710364e+02 1.971399601703243025e-05
9.382691345672835723e+02 1.985781054425760387e-05
9.391695847923961082e+02 2.011446707684564283e-05
9.400700350175087578e+02 2.046018766687146068e-05
9.409704852426212938e+02 2.083556694289952080e-05
9.418709354677338297e+02 2.119224622189976159e-05
9.427713856928463656e+02 2.149737847812101672e-05
9.436718359179589015e+02 2.169895139558042856e-05
9.445722861430714374e+02 2.176322497469459287e-05
9.454727363681840870e+02 2.178466410436014083e-05
9.463731865932966230e+02 2.189307193865825909e-05
9.472736368184091589e+02 2.213400019341226060e-05
9.481740870435216948e+02 2.249159408547999025e-05
9.490745372686342307e+02 2.288652684823667217e-05
9.499749874937468803e+02 2.321340388504056099e-05
9.508754377188594162e+02 2.344315263137784538e-05
9.517758879439719522e+02 2.359137320623686809e-05
9.526763381690844881e+02 2.367551972245613478e-05
9.535767883941970240e+02 2.374687900252334891e-05
9.544772386193095599e+02 2.384386390418870373e-05
9.553776888444222095e+02 2.396246055717310948e-05
9.562781390695347454e+02 2.409064137050417279e-05
9.571785892946472813e+02 2.423913940650956628e-05
9.580790395197598173e+02 2.442985361183514658e-05
9.589794897448723532e+02 2.466929165456744418e-05
9.598799399699850028e+02 2.492681611560378547e-05
9.607803901950975387e+02 2.517488770074349926e-05
9.616808404202100746e+02 2.542328429792738362e-05
9.625812906453226105e+02 2.565691840153533593e-05
9.634817408704351465e+02 2.580366405386927593e-05
9.643821910955476824e+02 2.580059546540519844e-05
9.652826413206603320e+02 2.565215002568631617e-05
9.661830915457728679e+02 2.542421387358880422e-05
9.670835417708854038e+02 2.524273284655326804e-05
9.679839919959979397e+02 2.524230498221019482e-05
9.688844422211104757e+02 2.545679571176701645e-05
9.697848924462230116e+02 2.582811716375731754e-05
9.706853426713356612e+02 2.627595774456256339e-05
9.715857928964481971e+02 2.672320654477420868e-05
9.724862431215607330e+02 2.711100916271571331e-05
9.733866933466732689e+02 2.744142934084510308e-05
9.742871435717858049e+02 2.774585832850544510e-05
9.751875937968984545e+02 2.803584468161477559e-05
9.760880440220109904e+02 2.833655531852394727e-05
9.769884942471235263e+02 2.870184108794727746e-05
9.778889444722360622e+02 2.919094109152793487e-05
9.787893946973485981e+02 2.985026740710947004e-05
9.796898449224611340e+02 3.069157537740198842e-05
9.805902951475737837e+02 3.165658612512456025e-05
9.814907453726863196e+02 3.258335470234352928e-05
9.823911955977988555e+02 3.329740516127936023e-05
9.832916458229113914e+02 3.374375506965536541e-05
9.841920960480239273e+02 3.399121596203671974e-05
9.850925462731365769e+02 3.410666004967422737e-05
9.859929964982491128e+02 3.412859504915823148e-05
9.868934467233616488e+02 3.412343714256572182e-05
9.877938969484741847e+02 3.415349582723000528e-05
9.886943471735867206e+02 3.428415577061292636e-05
9.895947973986992565e+02 3.457763161892617892e-05
9.904952476238119061e+02 3.500495387029511392e-05
9.913956978489244420e+02 3.546000061725116661e-05
9.922961480740369780e+02 3.584676079289242508e-05
9.931965982991495139e+02 3.608328318848045760e-05
9.940970485242620498e+02 3.608676298960787501e-05
9.949974987493745857e+02 3.586780436457482539e-05
9.958979489744872353e+02 3.563086247426503037e-05
9.967983991995997712e+02 3.560668952418186947e-05
9.976988494247123072e+02 3.587154219387974155e-05
9.985992996498248431e+02 3.635042735861653544e-05
9.994997498749373790e+02 3.686387044980187362e-05
1.000400200100050029e+03 3.723656443870106733e-05
1.001300650325162565e+03 3.745618338945480797e-05
1.002201100550275100e+03 3.765369901913559128e-05
1.003101550775387636e+03 3.796133388932609735e-05
1.004002001000500172e+03 3.840398185283864146e-05
1.004902451225612708e+03 3.887694130257105066e-05
1.005802901450725358e+03 3.932752455322230845e-05
1.006703351675837894e+03 3.982252196576258996e-05
1.007603801900950430e+03 4.039609067861470670e-05
1.008504252126062966e+03 4.091438428736582616e-05
1.009404702351175501e+03 4.120605182196009205e-05
1.010305152576288151e+03 4.127708718915780808e-05
1.011205602801400687e+03 4.127421695852704953e-05
1.012106053026513223e+03 4.130501768016920316e-05
1.013006503251625759e+03 4.148463640099865602e-05
1.013906953476738295e+03 4.197224446588966080e-05
1.014807403701850831e+03 4.277408192341335282e-05
1.015707853926963480e+03 4.367726922141991941e-05
1.016608304152076016e+03 4.440512192726555149e-05
1.017508754377188552e+03 4.485854067397685905e-05
1.018409204602301088e+03 4.518928840181153048e-05
1.019309654827413624e+03 4.553601351607377765e-05
1.020210105052526160e+03 4.592856803272347651e-05
1.021110555277638809e+03 4.634252334748512438e-05
1.022011005502751345e+03 4.672233445309822980e-05
1.022911455727863881e+03 4.706124205802640967e-05
1.023811905952976417e+03 4.737851761058620755e-05
1.024712356178089067e+03 4.771656329684747562e-05
1.025612806403201603e+03 4.818301482069839572e-05
1.026513256628314139e+03 4.882032748385485002e-05
1.027413706853426675e+03 4.954690273748656621e-05
1.028314157078539210e+03 5.026373860808664877e-05
1.029214607303651746e+03 5.083737132423136730e-05
1.030115057528764282e+03 5.117436779109720777e-05
1.031015507753876818e+03 5.139626216984933415e-05
1.031915957978989354e+03 5.165457847233424673e-05
1.032816408204101890e+03 5.202088953615309740e-05
1.033716858429214653e+03 5.251776820229165396e-05
1.034617308654327189e+03 5.312384345968044244e-05
1.035517758879439725e+03 5.377263673745408983e-05
1.036418209104552261e+03 5.435222380533017529e-05
1.037318659329664797e+03 5.486841810698059389e-05
1.038219109554777333e+03 5.541810851605938939e-05
1.039119559779889869e+03 5.600178234524579832e-05
1.040020010005002405e+03 5.654594484441135708e-05
1.040920460230114941e+03 5.700537547491532023e-05
1.041820910455227477e+03 5.728763191567904685e-05
1.042721360680340013e+03 5.728937825695948653e-05
1.043621810905452776e+03 5.708656638025708840e-05
1.044522261130565312e+03 5.685565920411204971e-05
1.045422711355677848e+03 5.671877938179066742e-05
1.046323161580790384e+03 5.671029736871368920e-05
1.047223611805902920e+03 5.679754138171895359e-05
1.048124062031015455e+03 5.691729097891378569e-05
1.049024512256127991e+03 5.709953235929749024e-05
1.049924962481240527e+03 5.753139284226217400e-05
1.050825412706353063e+03 5.836538959457813683e-05
1.051725862931465599e+03 5.952922828011252422e-05
1.052626313156578135e+03 6.071163421650927470e-05
1.053526763381690898e+03 6.151007521705659470e-05
1.054427213606803434e+03 6.179643691913466372e-05
1.055327663831915970e+03 6.180231996396615883e-05
1.056228114057028506e+03 6.193123374644856185e-05
1.057128564282141042e+03 6.245880068321548004e-05
1.058029014507253578e+03 6.323524136921202530e-05
1.058929464732366114e+03 6.384148951278084271e-05
1.059829914957478650e+03 6.410753380122082403e-05
1.060730365182591186e+03 6.418673224013141543e-05
1.061630815407703722e+03 6.426585196427794344e-05
1.062531265632816257e+03 6.440547924838922809e-05
1.063431715857929021e+03 6.459713377031697215e-05
1.064332166083041557e+03 6.475464566862538737e-05
1.065232616308154093e+03 6.477234861469759793e-05
1.066133066533266629e+03 6.464316789058825665e-05
1.067033516758379164e+03 6.444900230000979785e-05
1.067933966983491700e+03 6.418963480343970460e-05
1.068834417208604236e+03 6.389793066080639661e-05
1.069734867433716772e+03 6.378513944536989681e-05
1.070635317658829308e+03 6.387449912658796640e-05
1.071535767883941844e+03 6.398044721007068640e-05
1.072436218109054380e+03 6.398345099182171480e-05
1.073336668334167143e+03 6.379885204153514693e-05
1.074237118559279679e+03 6.334286110846486565e-05
1.075137568784392215e+03 6.267965880721697845e-05
1.076038019009504751e+03 6.200458598744324574e-05
1.076938469234617287e+03 6.143113149506489287e-05
1.077838919459729823e+03 6.091001022972618946e-05
1.078739369684842359e+03 6.046473553113165014e-05
1.079639819909954895e+03 6.018783910857986600e-05
1.080540270135067431e+03 6.002750964654011187e-05
1.081440720360179967e+03 6.000783568856088982e-05
1.082341170585292502e+03 6.025546511223251969e-05
1.083241620810405038e+03 6.070658132056258740e-05
1.084142071035517802e+03 6.118367074540842076e-05
1.085042521260630338e+03 6.167469572698275814e-05
1.085942971485742873e+03 6.228981326379925336e-05
1.086843421710855409e+03 6.301799888689946086e-05
1.087743871935967945e+03 6.376027791245925320e-05
1.088644322161080481e+03 6.450283098644205178e-05
1.089544772386193017e+03 6.522724854176116429e-05
1.090445222611305553e+03 6.575903097266984148e-05
1.091345672836418089e+03 6.595498368473886100e-05
1.092246123061530625e+03 6.589360996075463537e-05
1.093146573286643161e+03 6.579190235432879794e-05
1.094047023511755924e+03 6.583967745610684174e-05
1.094947473736868460e+03 6.613070002054603801e-05
1.095847923961980996e+03 6.668728636531273614e-05
1.096748374187093532e+03 6.734738324083684247e-05
1.097648824412206068e+03 6.780331879302651046e-05
1.098549274637318604e+03 6.800788647139013703e-05
1.099449724862431140e+03 6.820034542736649723e-05
1.100350175087543676e+03 6.866976021221478247e-05
1.101250625312656211e+03 6.957409000619856120e-05
1.102151075537768747e+03 7.079793778042275379e-05
1.103051525762881283e+03 7.208513128648881313e-05
1.103951975987994047e+03 7.318392267805149645e-05
1.104852426213106583e+03 7.399846353065575870e-05
1.105752876438219118e+03 7.465789084788859438e-05
1.106653326663331654e+03 7.526669569174659544e-05
1.107553776888444190e+03 7.574619906343721854e-05
1.108454227113556726e+03 7.611833303700997597e-05
1.109354677338669262e+03 7.664524560343808171e-05
1.110255127563781798e+03 7.746533797935150083e-05
1.111155577788894334e+03 7.839482912307890467e-05
1.112056028014006870e+03 7.917498542357741156e-05
1.112956478239119406e+03 7.982020589317200985e-05
1.113856928464232169e+03 8.055572264532093326e-05
1.114757378689344705e+03 8.145202024225514322e-05
1.115657828914457241e+03 8.237495080726388958e-05
1.116558279139569777e+03 8.322773690718708031e-05
1.117458729364682313e+03 8.401967118192116778e-05
1.118359179589794849e+03 8.469014981205897534e-05
1.119259629814907385e+03 8.508808809663049092e-05
1.120160080040019920e+03 8.528978318528415226e-05
1.121060530265132456e+03 8.545880881709659821e-05
1.121960980490244992e+03 8.550076036290578114e-05
1.122861430715357528e+03 8.524926815428523152e-05
1.123761880940470292e+03 8.481049960312053455e-05
1.124662331165582827e+03 8.449709759206061371e-05
1.125562781390695363e+03 8.461700117003629663e-05
1.126463231615807899e+03 8.529946924630081703e-05
1.127363681840920435e+03 8.648183012348865354e-05
1.128264132066032971e+03 8.815076341677153182e-05
1.129164582291145507e+03 9.042940733271149004e-05
1.130065032516258043e+03 9.330328339446601344e-05
1.130965482741370579e+03 9.634329886968007140e-05
1.131865932966483115e+03 9.899843922828560877e-05
1.132766383191595651e+03 1.010738097694160174e-04
1.133666833416708187e+03 1.027012108666078169e-04
1.134567283641820950e+03 1.041571119492148170e-04
1.135467733866933486e+03 1.058469932823340984e-04
1.136368184092046022e+03 1.080407459296365966e-04
1.137268634317158558e+03 1.107092552962680396e-04
1.138169084542271094e+03 1.136831242875677210e-04
1.139069534767383630e+03 1.168684792871868495e-04
1.139969984992496165e+03 1.200354405462238756e-04
1.140870435217608701e+03 1.230029976691599176e-04
1.141770885442721237e+03 1.260782259971865763e-04
1.142671335667833773e+03 1.296638349536911427e-04
1.143571785892946309e+03 1.339181868106571001e-04
1.144472236118059072e+03 1.389489471772912285e-04
1.145372686343171608e+03 1.449343465183892509e-04
1.146273136568284144e+03 1.518870740378842400e-04
1.147173586793396680e+03 1.597645092885152337e-04
1.148074037018509216e+03 1.686808599308710225e-04
1.148974487243621752e+03 1.789109961581097832e-04
1.149874937468734288e+03 1.911105574999335654e-04
1.150775387693846824e+03 2.064105863897964176e-04
1.151675837918959360e+03 2.262153732564770113e-04
1.152576288144071896e+03 2.518648141917711591e-04
1.153476738369184432e+03 2.840356586522223086e-04
1.154377188594297195e+03 3.224988633335463639e-04
1.155277638819409731e+03 3.676417296289181415e-04
1.156178089044522267e+03 4.211456042687585595e-04
1.157078539269634803e+03 4.836528295157112170e-04
1.157978989494747339e+03 5.557203584343260554e-04
1.158879439719859874e+03 6.425709288836614717e-04
1.159779889944972410e+03 7.511504220268878452e-04
1.160680340170084946e+03 8.833221402290701877e-04
1.161580790395197482e+03 1.038268591931213207e-03
1.162481240620310018e+03 1.216891063003383870e-03
1.163381690845422554e+03 1.416109533534930893e-03
1.164282141070535317e+03 1.608867669015253722e-03
1.165182591295647853e+03 1.729903273522442626e-03
1.166083041520760389e+03 1.713905358824748286e-03
1.166983491745872925e+03 1.559914986470565959e-03
1.167883941970985461e+03 1.332133772351383905e-03
1.168784392196097997e+03 1.101116415420784001e-03
1.169684842421210533e+03 9.049643575478105500e-04
1.170585292646323069e+03 7.520267635599956531e-04
1.171485742871435605e+03 6.383979769132633580e-04
1.172386193096548141e+03 5.565784151760904026e-04
1.173286643321660677e+03 4.960284481251536585e-04
1.174187093546773440e+03 4.457487484874881234e-04
1.175087543771885976e+03 3.985291215463674860e-04
1.175987993996998512e+03 3.544645090320166516e-04
1.176888444222111048e+03 3.184665552345210086e-04
1.177788894447223583e+03 2.939607617110659237e-04
1.178689344672336119e+03 2.800077327555058264e-04
1.179589794897448655e+03 2.726344990009259804e-04
1.180490245122561191e+03 2.683198200267450655e-04
1.181390695347673727e+03 2.655575814073786543e-04
1.182291145572786263e+03 2.632630588130038004e-04
1.183191595797898799e+03 2.620472397155457602e-04
1.184092046023011562e+03 2.653750938436360272e-04
1.184992496248124098e+03 2.762759155731372507e-04
1.185892946473236634e+03 2.966128086055793301e-04
1.186793396698349170e+03 3.275331648790441976e-04
1.187693846923461706e+03 3.677925925890860692e-04
1.188594297148574242e+03 4.134033249242380272e-04
1.189494747373686778e+03 4.579839936628520014e-04
1.190395197598799314e+03 4.904130325462563618e-04
1.191295647823911850e+03 4.994125434762748022e-04
1.192196098049024386e+03 4.842216966447505239e-04
1.193096548274136921e+03 4.518830673573929211e-04
1.193996998499249457e+03 4.104145213740263134e-04
1.194897448724362221e+03 3.674052068220505442e-04
1.195797898949474757e+03 3.276745981758496401e-04
1.196698349174587293e+03 2.929500825573851824e-04
1.197598799399699828e+03 2.641300152303193999e-04
1.198499249624812364e+03 2.417433989786628716e-04
1.199399699849924900e+03 2.254787760530869306e-04
1.200300150075037436e+03 2.139714034651328870e-04
1.201200600300149972e+03 2.049682638921954288e-04
1.202101050525262508e+03 1.966249504715590765e-04
1.203001500750375044e+03 1.878432781949268494e-04
1.203901950975487580e+03 1.787166702500559920e-04
1.204802401200600343e+03 1.706132698581465043e-04
1.205702851425712879e+03 1.650546629883653071e-04
1.206603301650825415e+03 1.629515830307634171e-04
1.207503751875937951e+03 1.643434714810737009e-04
1.208404202101050487e+03 1.679560916714413553e-04
1.209304652326163023e+03 1.716179450157259581e-04
1.210205102551275559e+03 1.730043817457544591e-04
1.211105552776388095e+03 1.703189825135422364e-04
1.212006003001500630e+03 1.640623705572839429e-04
1.212906453226613166e+03 1.565596916020707140e-04
1.213806903451725702e+03 1.492942550214302266e-04
1.214707353676838466e+03 1.422426184559981086e-04
1.215607803901951002e+03 1.357791266172033644e-04
1.216508254127063537e+03 1.312654762021910266e-04
1.217408704352176073e+03 1.294942747433821151e-04
1.218309154577288609e+03 1.302285755017411253e-04
1.219209604802401145e+03 1.326855451793407259e-04
1.220110055027513681e+03 1.359968596976004519e-04
1.221010505252626217e+03 1.399488706979314340e-04
1.221910955477738753e+03 1.445872857310836264e-04
1.222811405702851289e+03 1.485071132479767850e-04
1.223711855927963825e+03 1.488930104299166543e-04
1.224612306153076588e+03 1.453379476531256706e-04
1.225512756378189124e+03 1.407425683647831776e-04
1.226413206603301660e+03 1.370665151975906763e-04
1.227313656828414196e+03 1.343371794183181183e-04
1.228214107053526732e+03 1.328431044868880022e-04
1.229114557278639268e+03 1.334706743501199962e-04
1.230015007503751804e+03 1.366335454838064987e-04
1.230915457728864340e+03 1.424072696919165249e-04
1.231815907953976875e+03 1.504131535156101747e-04
1.232716358179089411e+03 1.593131479326296445e-04
1.233616808404201947e+03 1.678541299030234738e-04
1.234517258629314711e+03 1.763002924822302511e-04
1.235417708854427246e+03 1.853826110498129297e-04
1.236318159079539782e+03 1.947094755855764497e-04
1.237218609304652318e+03 2.033415460271680096e-04
1.238119059529764854e+03 2.108540715371105020e-04
1.239019509754877390e+03 2.172009965365598902e-04
1.239919959979989926e+03 2.220603214809623190e-04
1.240820410205102462e+03 2.246505420752280334e-04
1.241720860430214998e+03 2.250970633584174470e-04
1.242621310655327534e+03 2.245686782339684673e-04
1.243521760880440070e+03 2.237078426759770843e-04
1.244422211105552606e+03 2.228207129838167459e-04
1.245322661330665369e+03 2.220715532881388922e-04
1.246223111555777905e+03 2.213187003811743596e-04
1.247123561780890441e+03 2.202901228029690943e-04
1.248024012006002977e+03 2.188799652242508708e-04
1.248924462231115513e+03 2.171698461452974854e-04
1.249824912456228049e+03 2.156094119774804388e-04
1.250725362681340584e+03 2.151604956407331744e-04
1.251625812906453120e+03 2.164421515326915178e-04
1.252526263131565656e+03 2.188168853380677910e-04
1.253426713356678192e+03 2.209842046023887123e-04
1.254327163581790728e+03 2.225289009581729973e-04
1.255227613806903491e+03 2.239816125420113853e-04
1.256128064032016027e+03 2.259028607082160911e-04
1.257028514257128563e+03 2.287220933519892212e-04
1.257928964482241099e+03 2.327838624910825386e-04
1.258829414707353635e+03 2.382810102351792044e-04
1.259729864932466171e+03 2.450624272844893043e-04
1.260630315157578707e+03 2.528514679224046083e-04
1.261530765382691243e+03 2.622201933325949081e-04
1.262431215607803779e+03 2.744664518392515178e-04
1.263331665832916315e+03 2.903401141558880727e-04
1.264232116058028851e+03 3.100168276669940039e-04
1.265132566283141614e+03 3.329253160601966521e-04
1.266033016508254150e+03 3.573649714178379769e-04
1.266933466733366686e+03 3.809910900871867458e-04
1.267833916958479222e+03 4.011244275917920962e-04
1.268734367183591758e+03 4.156268671084934548e-04
1.269634817408704293e+03 4.245051033420849866e-04
1.270535267633816829e+03 4.295423444716922612e-04
1.271435717858929365e+03 4.317529799763988939e-04
1.272336168084041901e+03 4.311704387870822779e-04
1.273236618309154437e+03 4.289250516436297249e-04
1.274137068534266973e+03 4.275148900859645552e-04
1.275037518759379736e+03 4.297764843259155136e-04
1.275937968984492272e+03 4.375108607252800076e-04
1.276838419209604808e+03 4.497590386837406061e-04
1.277738869434717344e+03 4.637743880024277352e-04
1.278639319659829880e+03 4.779853395096027757e-04
1.279539769884942416e+03 4.921608963205241537e-04
1.280440220110054952e+03 5.055433555459996594e-04
1.281340670335167488e+03 5.172286854339513528e-04
1.282241120560280024e+03 5.272773143572749522e-04
1.283141570785392560e+03 5.360349152235423633e-04
1.284042021010505096e+03 5.438739690263543316e-04
1.284942471235617859e+03 5.516153281100247014e-04
1.285842921460730395e+03 5.599567144020530483e-04
1.286743371685842931e+03 5.688612177829758306e-04
1.287643821910955467e+03 5.778652518935317468e-04
1.288544272136068003e+03 5.860631357784310902e-04
1.289444722361180538e+03 5.925857020531579778e-04
1.290345172586293074e+03 5.974665045508726008e-04
1.291245622811405610e+03 6.015108767434592784e-04
1.292146073036518146e+03 6.057905046594095700e-04
1.293046523261630682e+03 6.110852599460917054e-04
1.293946973486743218e+03 6.167522731870176377e-04
1.294847423711855754e+03 6.211042776093784459e-04
1.295747873936968517e+03 6.236752572940779376e-04
1.296648324162081053e+03 6.256197253682430114e-04
1.297548774387193589e+03 6.284014389187509569e-04
1.298449224612306125e+03 6.326675563166632606e-04
1.299349674837418661e+03 6.378249045756515228e-04
1.300250125062531197e+03 6.429809748345166305e-04
1.301150575287643733e+03 6.475222689918734651e-04
1.302051025512756269e+03 6.510718851812629521e-04
1.302951475737868805e+03 6.540230419261644675e-04
1.303851925962981340e+03 6.568362221797473081e-04
1.304752376188093876e+03 6.592876877156133436e-04
1.305652826413206640e+03 6.613707443537205797e-04
1.306553276638319176e+03 6.641397062555601163e-04
1.307453726863431712e+03 6.685778745972568732e-04
1.308354177088544247e+03 6.744707685854940075e-04
1.309254627313656783e+03 6.811498716542764608e-04
1.310155077538769319e+03 6.885651806835204778e-04
1.311055527763881855e+03 6.971826448627107230e-04
1.311955977988994391e+03 7.075680228283672338e-04
1.312856428214106927e+03 7.201711464350370835e-04
1.313756878439219463e+03 7.346880604258078547e-04
1.314657328664331999e+03 7.498833407393022416e-04
1.315557778889444762e+03 7.644725191733619434e-04
1.316458229114557298e+03 7.786891158794920350e-04
1.317358679339669834e+03 7.937007055985151023e-04
1.318259129564782370e+03 8.095576129172161409e-04
1.319159579789894906e+03 8.249344522791041828e-04
1.320060030015007442e+03 8.385963967629388475e-04
1.320960480240119978e+03 8.512661380565026900e-04
1.321860930465232514e+03 8.656612258891702074e-04
1.322761380690345050e+03 8.835650926999290061e-04
1.323661830915457585e+03 9.041748513973149473e-04
1.324562281140570121e+03 9.263348418025280865e-04
1.325462731365682885e+03 9.498336076839445849e-04
1.326363181590795421e+03 9.739406511061583175e-04
1.327263631815907956e+03 9.975811425765059286e-04
1.328164082041020492e+03 1.021281698815286638e-03
1.329064532266133028e+03 1.046517097840605473e-03
1.329964982491245564e+03 1.073807027583836447e-03
1.330865432716358100e+03 1.103346289451388913e-03
1.331765882941470636e+03 1.135824721903667175e-03
1.332666333166583172e+03 1.172412186142225829e-03
1.333566783391695708e+03 1.213115648130100007e-03
1.334467233616808244e+03 1.254931898190364027e-03
1.335367683841921007e+03 1.294901135253557697e-03
1.336268134067033543e+03 1.334342960016138497e-03
1.337168584292146079e+03 1.376894316766597796e-03
1.338069034517258615e+03 1.423433384885973126e-03
1.338969484742371151e+03 1.471738003071311864e-03
1.339869934967483687e+03 1.520575630442370105e-03
1.340770385192596223e+03 1.571226686430847062e-03
1.341670835417708759e+03 1.625784532701267989e-03
1.342571285642821294e+03 1.686443922707556988e-03
1.343471735867933830e+03 1.755372075230937851e-03
1.344372186093046366e+03 1.831884129227680626e-03
1.345272636318158902e+03 1.912661484450890390e-03
1.346173086543271666e+03 1.996711116818887435e-03
1.347073536768384201e+03 2.084721878351238847e-03
1.347973986993496737e+03 2.176073903155425603e-03
1.348874437218609273e+03 2.269466849510746401e-03
1.349774887443721809e+03 2.364068244129453183e-03
1.350675337668834345e+03 2.458733755616103380e-03
1.351575787893946881e+03 2.551109574162067038e-03
1.352476238119059417e+03 2.641559783035845287e-03
1.353376688344171953e+03 2.733992493153307446e-03
1.354277138569284489e+03 2.832087387963008566e-03
1.355177588794397025e+03 2.936465342691646409e-03
1.356078039019509788e+03 3.045892181765559332e-03
1.356978489244622324e+03 3.160940735533522214e-03
1.357878939469734860e+03 3.288108435341984340e-03
1.358779389694847396e+03 3.435898295970467916e-03
1.359679839919959932e+03 3.606033749201569081e-03
1.360580290145072468e+03 3.789253634710866570e-03
1.361480740370185003e+03 3.973632894282290093e-03
1.362381190595297539e+03 4.156368096816754829e-03
1.363281640820410075e+03 4.339915268673078322e-03
1.364182091045522611e+03 4.525933739491757105e-03
1.365082541270635147e+03 4.712007605974908968e-03
1.365982991495747910e+03 4.889771748984300150e-03
1.366883441720860446e+03 5.056447768969948853e-03
1.367783891945972982e+03 5.219307051200660318e-03
1.368684342171085518e+03 5.386865652647955006e-03
1.369584792396198054e+03 5.564160238757313685e-03
1.370485242621310590e+03 5.755136996622158170e-03
1.371385692846423126e+03 5.973288310032922287e-03
1.372286143071535662e+03 6.228288357527120116e-03
1.373186593296648198e+03 6.505736655825275841e-03
1.374087043521760734e+03 6.790148677669346176e-03
1.374987493746873270e+03 7.087618013151423049e-03
1.375887943971986033e+03 7.407812945646045574e-03
1.376788394197098569e+03 7.747722842949136129e-03
1.377688844422211105e+03 8.104850669807374744e-03
1.378589294647323641e+03 8.486458345185299290e-03
1.379489744872436177e+03 8.903293561498801939e-03
1.380390195097548713e+03 9.347648053426905329e-03
1.381290645322661248e+03 9.792221858032010284e-03
1.382191095547773784e+03 1.023167189170964657e-02
1.383091545772886320e+03 1.069654815581513700e-02
1.383991995997998856e+03 1.122365543978487250e-02
1.384892446223111392e+03 1.184529874617537559e-02
1.385792896448224155e+03 1.259661458548105850e-02
1.386693346673336691e+03 1.351829917896475372e-02
1.387593796898449227e+03 1.463635098358946098e-02
1.388494247123561763e+03 1.594006570932330821e-02
1.389394697348674299e+03 1.743026632014727656e-02
1.390295147573786835e+03 1.916756243093587636e-02
1.391195597798899371e+03 2.121455460743907132e-02
1.392096048024011907e+03 2.356848001859533984e-02
1.392996498249124443e+03 2.622976468806373015e-02
1.393896948474236979e+03 2.928837321210244274e-02
1.394797398699349515e+03 3.279997662407427295e-02
1.395697848924462278e+03 3.666325939436855530e-02
1.396598299149574814e+03 4.074710313331326300e-02
1.397498749374687350e+03 4.508493404479473055e-02
1.398399199599799886e+03 4.990760143500863610e-02
1.399299649824912422e+03 5.536260542923419209e-02
1.400200100050024957e+03 6.113018222191007878e-02
1.401100550275137493e+03 6.631765257098397315e-02
1.402001000500250029e+03 6.976727089595312348e-02
1.402901450725362565e+03 7.047429515262138011e-02
1.403801900950475101e+03 6.809163514715424470e-02
1.404702351175587637e+03 6.341366097704929927e-02
1.405602801400700173e+03 5.782661874282934295e-02
1.406503251625812936e+03 5.236944294558630586e-02
1.407403701850925472e+03 4.753109591302891179e-02
1.408304152076038008e+03 4.348226724432176227e-02
1.409204602301150544e+03 4.020766280698338802e-02
1.410105052526263080e+03 3.751762564153666296e-02
1.411005502751375616e+03 3.515933161716038036e-02
1.411905952976488152e+03 3.293636760143980879e-02
1.412806403201600688e+03 3.078683413530032206e-02
1.413706853426713224e+03 2.874077284289047393e-02
1.414607303651825760e+03 2.678378949326977454e-02
1.415507753876938295e+03 2.491837816780802586e-02
1.416408204102051059e+03 2.318736222829937549e-02
1.417308654327163595e+03 2.160032093756290850e-02
1.418209104552276131e+03 2.016445380943707871e-02
1.419109554777388666e+03 1.890055365626110845e-02
1.420010005002501202e+03 1.779492208367176864e-02
1.420910455227613738e+03 1.675303478160338616e-02
1.421810905452726274e+03 1.566295298406212774e-02
1.422711355677838810e+03 1.450713463303417161e-02
1.423611805902951346e+03 1.333670083639934903e-02
1.424512256128063882e+03 1.222403180810167564e-02
1.425412706353176418e+03 1.123272615219360338e-02
1.426313156578289181e+03 1.038754083498123586e-02
1.427213606803401717e+03 9.681612853811820754e-03
1.428114057028514253e+03 9.074769010564079016e-03
1.429014507253626789e+03 8.520870935523351328e-03
1.429914957478739325e+03 8.007655799199450350e-03
1.430815407703851861e+03 7.542696222780111842e-03
1.431715857928964397e+03 7.118147958397563584e-03
1.432616308154076933e+03 6.716347331635015572e-03
1.433516758379189469e+03 6.333764910764946507e-03
1.434417208604302004e+03 5.978394258921731867e-03
1.435317658829414540e+03 5.654554288502340077e-03
1.436218109054527304e+03 5.363501424731209957e-03
1.437118559279639840e+03 5.110807620114085278e-03
1.438019009504752376e+03 4.889715566411147359e-03
1.438919459729864911e+03 4.682490867320900953e-03
1.439819909954977447e+03 4.486721529239036214e-03
1.440720360180089983e+03 4.307274735454185224e-03
1.441620810405202519e+03 4.145425665876421167e-03
1.442521260630315055e+03 4.002055760702934693e-03
1.443421710855427591e+03 3.873776836592600966e-03
1.444322161080540127e+03 3.752658877533092061e-03
1.445222611305652663e+03 3.631125150759711810e-03
1.446123061530765426e+03 3.503011798913379347e-03
1.447023511755877962e+03 3.366660315443435313e-03
1.447923961980990498e+03 3.228923850547002917e-03
1.448824412206103034e+03 3.101710113279276728e-03
1.449724862431215570e+03 2.995388508425808269e-03
1.450625312656328106e+03 2.912998779889690998e-03
1.451525762881440642e+03 2.847853400828588653e-03
1.452426213106553178e+03 2.786509257913700327e-03
1.453326663331665713e+03 2.712568744130677487e-03
1.454227113556778249e+03 2.620199303673051688e-03
1.455127563781890785e+03 2.518565277210999768e-03
1.456028014007003321e+03 2.420940970329325901e-03
1.456928464232116085e+03 2.334688188903684489e-03
1.457828914457228620e+03 2.256934770915770393e-03
1.458729364682341156e+03 2.179314376774367252e-03
1.459629814907453692e+03 2.101306944216062809e-03
1.460530265132566228e+03 2.031368092814518633e-03
1.461430715357678764e+03 1.975121867263529910e-03
1.462331165582791300e+03 1.929820479435209474e-03
1.463231615807903836e+03 1.887525560839213535e-03
1.464132066033016372e+03 1.840863569554516922e-03
1.465032516258128908e+03 1.786871142776090202e-03
1.465932966483241444e+03 1.726991880990943378e-03
1.466833416708354207e+03 1.662899415124975645e-03
1.467733866933466743e+03 1.595322947710511776e-03
1.468634317158579279e+03 1.528155159176301271e-03
1.469534767383691815e+03 1.464342858219345837e-03
1.470435217608804351e+03 1.403124132378195162e-03
1.471335667833916887e+03 1.344894048263180902e-03
1.472236118059029423e+03 1.290617952982483054e-03
1.473136568284141958e+03 1.241208375246309874e-03
1.474037018509254494e+03 1.197761363694324101e-03
1.474937468734367030e+03 1.160212907105713552e-03
1.475837918959479566e+03 1.128613651134543518e-03
1.476738369184592329e+03 1.102139461337184843e-03
1.477638819409704865e+03 1.077344745994337745e-03
1.478539269634817401e+03 1.051785444368145105e-03
1.479439719859929937e+03 1.026127740765793699e-03
1.480340170085042473e+03 1.001363468136811990e-03
1.481240620310155009e+03 9.766347142447185867e-04
1.482141070535267545e+03 9.493151360010137823e-04
1.483041520760380081e+03 9.175723208419730688e-04
1.483941970985492617e+03 8.833680476122720247e-04
1.484842421210605153e+03 8.509275442953427582e-04
1.485742871435717689e+03 8.230932500119251182e-04
1.486643321660830452e+03 8.001941674789723709e-04
1.487543771885942988e+03 7.806975619917563098e-04
1.488444222111055524e+03 7.623977490120484009e-04
1.489344672336168060e+03 7.431748691554831369e-04
1.490245122561280596e+03 7.213533305655636272e-04
1.491145572786393132e+03 6.978640827698724160e-04
1.492046023011505667e+03 6.759285291964705093e-04
1.492946473236618203e+03 6.578460710997146741e-04
1.493846923461730739e+03 6.438879761180939026e-04
1.494747373686843275e+03 6.336770267378512159e-04
1.495647823911955811e+03 6.268190750532123736e-04
1.496548274137068574e+03 6.220742293991681935e-04
1.497448724362181110e+03 6.173714349383597642e-04
1.498349174587293646e+03 6.109739804401249268e-04
1.499249624812406182e+03 6.022046377426419628e-04
1.500150075037518718e+03 5.911807666920569160e-04
1.501050525262631254e+03 5.783578065107583977e-04
1.501950975487743790e+03 5.642780424622102688e-04
1.502851425712856326e+03 5.503947433295202805e-04
1.503751875937968862e+03 5.388944822601875618e-04
1.504652326163081398e+03 5.300826958820251513e-04
1.505552776388193934e+03 5.227551758545226400e-04
1.506453226613306470e+03 5.167742158876120501e-04
1.507353676838419233e+03 5.130370538324500410e-04
1.508254127063531769e+03 5.115417364702617422e-04
1.509154577288644305e+03 5.110165026112760455e-04
1.510055027513756841e+03 5.103088785053225317e-04
1.510955477738869376e+03 5.094346354225690694e-04
1.511855927963981912e+03 5.091027247505335593e-04
1.512756378189094448e+03 5.088026045852547287e-04
1.513656828414206984e+03 5.064450091194640886e-04
1.514557278639319520e+03 5.004891486689283086e-04
1.515457728864432056e+03 4.918277063562827289e-04
1.516358179089544592e+03 4.828104519157411776e-04
1.517258629314657355e+03 4.750410221861214779e-04
1.518159079539769891e+03 4.685824607177734415e-04
1.519059529764882427e+03 4.625577552612784816e-04
1.519959979989994963e+03 4.563875510495858374e-04
1.520860430215107499e+03 4.507463258308150441e-04
1.521760880440220035e+03 4.469023807014500718e-04
1.522661330665332571e+03 4.456312932987447641e-04
1.523561780890445107e+03 4.469234449226411592e-04
1.524462231115557643e+03 4.501258366466889447e-04
1.525362681340670179e+03 4.544181006291478624e-04
1.526263131565782714e+03 4.578034556288118140e-04
1.527163581790895478e+03 4.578629525098917223e-04
1.528064032016008014e+03 4.543792208082958364e-04
1.528964482241120550e+03 4.494115808143035371e-04
1.529864932466233086e+03 4.458159740038847752e-04
1.530765382691345621e+03 4.451473015497256860e-04
1.531665832916458157e+03 4.469422818832025752e-04
1.532566283141570693e+03 4.498068243168091705e-04
1.533466733366683229e+03 4.521628280388163184e-04
1.534367183591795765e+03 4.533233693123010603e-04
1.535267633816908301e+03 4.539439043823697206e-04
1.536168084042020837e+03 4.541410674476468881e-04
1.537068534267133600e+03 4.533406003887663111e-04
1.537968984492246136e+03 4.513440368362167557e-04
1.538869434717358672e+03 4.475791235403816788e-04
1.539769884942471208e+03 4.413103883387963292e-04
1.540670335167583744e+03 4.332591442070670438e-04
1.541570785392696280e+03 4.255821697934308672e-04
1.542471235617808816e+03 4.199837838277617236e-04
1.543371685842921352e+03 4.169321416191778770e-04
1.544272136068033888e+03 4.164764945815823825e-04
1.545172586293146423e+03 4.186127277688260614e-04
1.546073036518258959e+03 4.227418267146105840e-04
1.546973486743371723e+03 4.273987746438288491e-04
1.547873936968484259e+03 4.304598637311771365e-04
1.548774387193596795e+03 4.304389259551542955e-04
1.549674837418709330e+03 4.279756271602733479e-04
1.550575287643821866e+03 4.238746990939251387e-04
1.551475737868934402e+03 4.183249385557486649e-04
1.552376188094046938e+03 4.125657266202395002e-04
1.553276638319159474e+03 4.084887979380527460e-04
1.554177088544272010e+03 4.064185557243299137e-04
1.555077538769384546e+03 4.051895247364809102e-04
1.555977988994497082e+03 4.041159593364297697e-04
1.556878439219609618e+03 4.038717166960525853e-04
1.557778889444722381e+03 4.055993121538057646e-04
1.558679339669834917e+03 4.096376405931811699e-04
1.559579789894947453e+03 4.151235966815769126e-04
1.560480240120059989e+03 4.206448989691455092e-04
1.561380690345172525e+03 4.254703406056955075e-04
1.562281140570285061e+03 4.307133677205885109e-04
1.563181590795397597e+03 4.383830251706278777e-04
1.564082041020510133e+03 4.480101503359130316e-04
1.564982491245622668e+03 4.567644027225344853e-04
1.565882941470735204e+03 4.629827999363947053e-04
1.566783391695847740e+03 4.667662551255104221e-04
1.567683841920960504e+03 4.692646548014575204e-04
1.568584292146073039e+03 4.732433047310852367e-04
1.569484742371185575e+03 4.818373923806073232e-04
1.570385192596298111e+03 4.971946454095930220e-04
1.571285642821410647e+03 5.214830496707148011e-04
1.572186093046523183e+03 5.577224627463573704e-04
1.573086543271635719e+03 6.100340157608243616e-04
1.573986993496748255e+03 6.818526697175259464e-04
1.574887443721860791e+03 7.674745799840740909e-04
1.575787893946973327e+03 8.489075212650354580e-04
1.576688344172085863e+03 9.073850363437679749e-04
1.577588794397198626e+03 9.286148126346992476e-04
1.578489244622311162e+03 8.957162372751223617e-04
1.579389694847423698e+03 7.991806592456057257e-04
1.580290145072536234e+03 6.643462029852193569e-04
1.581190595297648770e+03 5.334266573896434115e-04
1.582091045522761306e+03 4.273726147649301249e-04
1.582991495747873842e+03 3.465671326004237415e-04
1.583891945972986377e+03 2.863066955658917826e-04
1.584792396198098913e+03 2.419083937397506717e-04
1.585692846423211449e+03 2.090178663437247946e-04
1.586593296648323985e+03 1.839737871464494027e-04
1.587493746873436749e+03 1.642019762437966807e-04
1.588394197098549284e+03 1.482912595477613963e-04
1.589294647323661820e+03 1.354259760377666936e-04
1.590195097548774356e+03 1.249501696566171797e-04
1.591095547773886892e+03 1.163184079812155767e-04
1.591995997998999428e+03 1.091107428956301754e-04
1.592896448224111964e+03 1.030163528290279886e-04
1.593796898449224500e+03 9.780700271735759627e-05
1.594697348674337036e+03 9.331457207661975376e-05
1.595597798899449572e+03 8.941509768761998008e-05
1.596498249124562108e+03 8.601832669068935466e-05
1.597398699349674871e+03 8.306155019233896393e-05
1.598299149574787407e+03 8.050694241034552618e-05
1.599199599799899943e+03 7.834187718903202428e-05
1.600100050025012479e+03 7.658063449078032520e-05
1.601000500250125015e+03 7.525988935314222939e-05
1.601900950475237551e+03 7.439953449367886669e-05
1.602801400700350086e+03 7.386302032572980851e-05
1.603701850925462622e+03 7.313600597261315020e-05
1.604602301150575158e+03 7.153742671762536266e-05
1.605502751375687694e+03 6.908609111635851297e-05
1.606403201600800230e+03 6.644999089919579932e-05
1.607303651825912766e+03 6.408621599142286327e-05
1.608204102051025529e+03 6.208224894244195708e-05
1.609104552276138065e+03 6.037949601960205262e-05
1.610005002501250601e+03 5.890256301285595394e-05
1.610905452726363137e+03 5.759261913386230883e-05
1.611805902951475673e+03 5.640863777639489398e-05
1.612706353176588209e+03 5.532257491291783981e-05
1.613606803401700745e+03 5.431501342925716805e-05
1.614507253626813281e+03 5.337216481390307486e-05
1.615407703851925817e+03 5.248394668349290790e-05
1.616308154077038353e+03 5.164276730025874231e-05
1.617208604302150889e+03 5.084275094696941502e-05
1.618109054527263652e+03 5.007923560037567462e-05
1.619009504752376188e+03 4.934844012720147823e-05
1.619909954977488724e+03 4.864723868317884985e-05
1.620810405202601260e+03 4.797300421185828891e-05
1.621710855427713796e+03 4.732349740254468353e-05
1.622611305652826331e+03 4.669678618057832882e-05
1.623511755877938867e+03 4.609118612749129126e-05
1.624412206103051403e+03 4.550521553566042423e-05
1.625312656328163939e+03 4.493756089228001624e-05
1.626213106553276475e+03 4.438704993201871165e-05
1.627113556778389011e+03 4.385263027778071756e-05
1.628014007003501774e+03 4.333335227490975013e-05
1.628914457228614310e+03 4.282835502070571533e-05
1.629814907453726846e+03 4.233685486376469263e-05
1.630715357678839382e+03 4.185813583802374966e-05
1.631615807903951918e+03 4.139154163121466182e-05
1.632516258129064454e+03 4.093646878431326369e-05
1.633416708354176990e+03 4.049236088910340275e-05
1.634317158579289526e+03 4.005870360297600726e-05
1.635217608804402062e+03 3.963502033891572803e-05
1.636118059029514598e+03 3.922086851796016780e-05
1.637018509254627133e+03 3.881583629379404903e-05
1.637918959479739897e+03 3.841953967644024101e-05
1.638819409704852433e+03 3.803161999546923934e-05
1.639719859929964969e+03 3.765174165375325885e-05
1.640620310155077505e+03 3.727959013121298680e-05
1.641520760380190040e+03 3.691487020473156912e-05
1.642421210605302576e+03 3.655730435586237401e-05
1.643321660830415112e+03 3.620663134237404922e-05
1.644222111055527648e+03 3.586260491329401259e-05
1.645122561280640184e+03 3.552499265010489632e-05
1.646023011505752720e+03 3.519357491922294650e-05
1.646923461730865256e+03 3.486814392294554778e-05
1.647823911955978019e+03 3.454850283780113021e-05
1.648724362181090555e+03 3.423446503068635353e-05
1.649624812406203091e+03 3.392585334441638111e-05
1.650525262631315627e+03 3.362249944537358553e-05
1.651425712856428163e+03 3.332424322682946643e-05
1.652326163081540699e+03 3.303093226230094690e-05
1.653226613306653235e+03 3.274242130395747926e-05
1.654127063531765771e+03 3.245857182167735672e-05
1.655027513756878307e+03 3.217925157884897166e-05
1.655927963981990843e+03 3.190433424144671973e-05
1.656828414207103378e+03 3.163369901729220368e-05
1.657728864432216142e+03 3.136723032274180839e-05
1.658629314657328678e+03 3.110481747433145795e-05
1.659529764882441214e+03 3.084635440317206104e-05
1.660430215107553749e+03 3.059173939010417537e-05
1.661330665332666285e+03 3.034087481983150571e-05
1.662231115557778821e+03 3.009366695242279559e-05
1.663131565782891357e+03 2.985002571072667969e-05
1.664032016008003893e+03 2.960986448239544215e-05
1.664932466233116429e+03 2.937309993532105038e-05
1.665832916458228965e+03 2.913965184541151697e-05
1.666733366683341501e+03 2.890944293573223471e-05
1.667633816908454037e+03 2.868239872611640505e-05
1.668534267133566800e+03 2.845844739244400207e-05
1.669434717358679336e+03 2.823751963484771494e-05
1.670335167583791872e+03 2.801954855417295538e-05
1.671235617808904408e+03 2.780446953608220535e-05
1.672136068034016944e+03 2.759222014223706364e-05
1.673036518259129480e+03 2.738274000804571254e-05
1.673936968484242016e+03 2.717597074650541684e-05
1.674837418709354552e+03 2.697185585770489692e-05
1.675737868934467087e+03 2.677034064359261082e-05
1.676638319159579623e+03 2.657137212764280445e-05
1.677538769384692159e+03 2.637489897908551760e-05
1.678439219609804923e+03 2.618087144138801434e-05
1.679339669834917459e+03 2.598924126470716144e-05
1.680240120060029994e+03 2.579996164204384907e-05
1.681140570285142530e+03 2.561298714885972298e-05
1.682041020510255066e+03 2.542827368593026014e-05
1.682941470735367602e+03 2.524577842522626511e-05
1.683841920960480138e+03 2.506545975863229644e-05
1.684742371185592674e+03 2.488727724931904056e-05
1.685642821410705210e+03 2.471119158561210509e-05
1.686543271635817746e+03 2.453716453719470989e-05
1.687443721860930282e+03 2.436515891350801184e-05
1.688344172086043045e+03 2.419513852421426991e-05
1.689244622311155581e+03 2.402706814159838076e-05
1.690145072536268117e+03 2.386091346479359473e-05
1.691045522761380653e+03 2.369664108572611911e-05
1.691945972986493189e+03 2.353421845667671744e-05
1.692846423211605725e+03 2.337361385936646680e-05
1.693746873436718261e+03 2.321479637548143080e-05
1.694647323661830796e+03 2.305773585855419477e-05
1.695547773886943332e+03 2.290240290712427154e-05
1.696448224112055868e+03 2.274876883911221739e-05
1.697348674337168404e+03 2.259680566733440323e-05
1.698249124562281168e+03 2.244648607610080882e-05
1.699149574787393703e+03 2.229778339883660545e-05
1.700050025012506239e+03 2.215067159667240550e-05
1.700950475237618775e+03 2.200512523795172663e-05
1.701850925462731311e+03 2.186111947860891455e-05
1.702751375687843847e+03 2.171863004337228593e-05
1.703651825912956383e+03 2.157763320774854055e-05
1.704552276138068919e+03 2.143810578074960128e-05
1.705452726363181455e+03 2.130002508832662495e-05
1.706353176588293991e+03 2.116336895747064162e-05
1.707253626813406527e+03 2.102811570095283592e-05
1.708154077038519290e+03 2.089424410266812931e-05
1.709054527263631826e+03 2.076173340355598473e-05
1.709954977488744362e+03 2.063056328806792369e-05
1.710855427713856898e+03 2.050071387115852655e-05
1.711755877938969434e+03 2.037216568577305848e-05
1.712656328164081970e+03 2.024489967080797688e-05
1.713556778389194506e+03 2.011889715952384938e-05
1.714457228614307041e+03 1.999413986838970622e-05
1.715357678839419577e+03 1.987060988633763457e-05
1.716258129064532113e+03 1.974828966440963029e-05
1.717158579289644649e+03 1.962716200577980735e-05
1.718059029514757185e+03 1.950721005613478351e-05
1.718959479739869948e+03 1.938841729439490539e-05
1.719859929964982484e+03 1.927076752376483712e-05
1.720760380190095020e+03 1.915424486309425119e-05
1.721660830415207556e+03 1.903883373853984960e-05
1.722561280640320092e+03 1.892451887551367191e-05
1.723461730865432628e+03 1.881128529090492723e-05
1.724362181090545164e+03 1.869911828556551433e-05
1.725262631315657700e+03 1.858800343704596194e-05
1.726163081540770236e+03 1.847792659257470809e-05
1.727063531765882772e+03 1.836887386226690840e-05
1.727963981990995308e+03 1.826083161255668831e-05
1.728864432216108071e+03 1.815378645984071985e-05
1.729764882441220607e+03 1.804772526432741738e-05
1.730665332666333143e+03 1.794263512408282785e-05
1.731565782891445679e+03 1.783850336926339020e-05
1.732466233116558215e+03 1.773531755653076948e-05
1.733366683341670750e+03 1.763306546364118316e-05
1.734267133566783286e+03 1.753173508420023774e-05
1.735167583791895822e+03 1.743131462258113424e-05
1.736068034017008358e+03 1.733179248899574280e-05
1.736968484242120894e+03 1.723315729471503293e-05
1.737868934467233430e+03 1.713539784743332660e-05
1.738769384692346193e+03 1.703850314676972995e-05
1.739669834917458729e+03 1.694246237990364355e-05
1.740570285142571265e+03 1.684726491733654497e-05
1.741470735367683801e+03 1.675290030877902382e-05
1.742371185592796337e+03 1.665935827915476485e-05
1.743271635817908873e+03 1.656662872472177068e-05
1.744172086043021409e+03 1.647470170930093403e-05
1.745072536268133945e+03 1.638356746061351470e-05
1.745972986493246481e+03 1.629321636672117867e-05
1.746873436718359017e+03 1.620363897256434722e-05
1.747773886943471553e+03 1.611482597659744670e-05
1.748674337168584316e+03 1.602676822751625436e-05
1.749574787393696852e+03 1.593945672107478925e-05
1.750475237618809388e+03 1.585288259698845129e-05
1.751375687843921924e+03 1.576703713592061355e-05
1.752276138069034459e+03 1.568191175655010938e-05
1.753176588294146995e+03 1.559749801271660273e-05
1.754077038519259531e+03 1.551378759064101558e-05
1.754977488744372067e+03 1.543077230622002681e-05
1.755877938969484603e+03 1.534844410238947885e-05
1.756778389194597139e+03 1.526679504655733595e-05
1.757678839419709675e+03 1.518581732810264484e-05
1.758579289644822438e+03 1.510550325593786209e-05
1.759479739869934974e+03 1.502584525613386344e-05
1.760380190095047510e+03 1.494683586960418455e-05
1.761280640320160046e+03 1.486846774984811359e-05
1.762181090545272582e+03 1.479073366075010467e-05
1.763081540770385118e+03 1.471362647443292377e-05
1.763981990995497654e+03 1.463713916916501145e-05
1.764882441220610190e+03 1.456126482731756814e-05
1.765782891445722726e+03 1.448599663337309668e-05
1.766683341670835262e+03 1.441132787198118388e-05
1.767583791895947797e+03 1.433725192606089598e-05
1.768484242121060333e+03 1.426376227494939166e-05
1.769384692346173097e+03 1.419085249259395049e-05
1.770285142571285633e+03 1.411851624578721036e-05
1.771185592796398169e+03 1.404674729244337912e-05
1.772086043021510704e+03 1.397553947991581713e-05
1.772986493246623240e+03 1.390488674335234488e-05
1.773886943471735776e+03 1.383478310408973953e-05
1.774787393696848312e+03 1.376522266808476725e-05
1.775687843921960848e+03 1.369619962438106716e-05
1.776588294147073384e+03 1.362770824361119560e-05
1.777488744372185920e+03 1.355974287653197741e-05
1.778389194597298456e+03 1.349229795259376222e-05
1.779289644822411219e+03 1.342536797854072118e-05
1.780190095047523755e+03 1.335894753704320893e-05
1.781090545272636291e+03 1.329303128536025107e-05
1.781990995497748827e+03 1.322761395403051076e-05
1.782891445722861363e+03 1.316269034559347216e-05
1.783791895947973899e+03 1.309825533333810685e-05
1.784692346173086435e+03 1.303430386007745259e-05
1.785592796398198971e+03 1.297083093695187441e-05
1.786493246623311506e+03 1.290783164225587988e-05
1.787393696848424042e+03 1.284530112029154822e-05
1.788294147073536578e+03 1.278323458024589656e-05
1.789194597298649342e+03 1.272162729509158534e-05
1.790095047523761878e+03 1.266047460051141343e-05
1.790995497748874413e+03 1.259977189384513776e-05
1.791895947973986949e+03 1.253951463305829874e-05
1.792796398199099485e+03 1.247969833573226900e-05
1.793696848424212021e+03 1.242031857807561861e-05
1.794597298649324557e+03 1.236137099395563957e-05
1.795497748874437093e+03 1.230285127394923355e-05
1.796398199099549629e+03 1.224475516441417756e-05
1.797298649324662165e+03 1.218707846657809256e-05
1.798199099549774701e+03 1.212981703564707172e-05
1.799099549774887464e+03 1.207296677993099186e-05
1.800000000000000000e+03 1.201652365998697848e-05
