0.000000000000000000e+00 9.382057152203508331e-04
9.004502251125562351e-01 1.234796821640077183e-03
1.800900450225112470e+00 1.542028312207682859e-03
2.701350675337668594e+00 1.743577541789530401e-03
3.601800900450224940e+00 1.777923999460011544e-03
4.502251125562780842e+00 1.705814179937442275e-03
5.402701350675337189e+00 1.581801735394097914e-03
6.303151575787893535e+00 1.387913939408069947e-03
7.203601800900449881e+00 1.133477749779429221e-03
8.104052026013006227e+00 8.865063922143822956e-04
9.004502251125561685e+00 6.886888779683431180e-04
9.904952476238118919e+00 5.387420838342492618e-04
1.080540270135067438e+01 4.246885358920464469e-04
1.170585292646323161e+01 3.386418279394967320e-04
1.260630315157578707e+01 2.744328710837014447e-04
1.350675337668834430e+01 2.262874429858703813e-04
1.440720360180089976e+01 1.896061808831524102e-04
1.530765382691345522e+01 1.612163165235227743e-04
1.620810405202601245e+01 1.389607449036679482e-04
1.710855427713856969e+01 1.212451621466948022e-04
1.800900450225112337e+01 1.067930211542948742e-04
1.890945472736368060e+01 9.466072790657547426e-05
1.980990495247623784e+01 8.431351854676881474e-05
2.071035517758879507e+01 7.547263096961683113e-05
2.161080540270134875e+01 6.793605190954749658e-05
2.251125562781390599e+01 6.151702590998639670e-05
2.341170585292646322e+01 5.604329009738492147e-05
2.431215607803901690e+01 5.136519296688212471e-05
2.521260630315157414e+01 4.736330853730380628e-05
2.611305652826413137e+01 4.394804569795515849e-05
2.701350675337668861e+01 4.104568191659604346e-05
2.791395697848924229e+01 3.856323636413338114e-05
2.881440720360179952e+01 3.635424428778700481e-05
2.971485742871435676e+01 3.427190039582169427e-05
3.061530765382691044e+01 3.228028133639646306e-05
3.151575787893946767e+01 3.041311187111233415e-05
3.241620810405202491e+01 2.866265462988190242e-05
3.331665832916458214e+01 2.701125303855013112e-05
3.421710855427713938e+01 2.547860874091973149e-05
3.511755877938969661e+01 2.410538284196069245e-05
3.601800900450224674e+01 2.290641063864637468e-05
3.691845922961480397e+01 2.183515828741317564e-05
3.781890945472736121e+01 2.080520634864395344e-05
3.871935967983991844e+01 1.978647544739081145e-05
3.961980990495247568e+01 1.883947147452180477e-05
4.052026013006503291e+01 1.802493470517932026e-05
4.142071035517759015e+01 1.735647442051541672e-05
4.232116058029014027e+01 1.681739216972135103e-05
4.322161080540269751e+01 1.638297500272907964e-05
4.412206103051525474e+01 1.601489528267736231e-05
4.502251125562781198e+01 1.566268127157084125e-05
4.592296148074036921e+01 1.533248251500164276e-05
4.682341170585292645e+01 1.505966455163199483e-05
4.772386193096548368e+01 1.481156313370940341e-05
4.862431215607803381e+01 1.452744788951814233e-05
4.952476238119059104e+01 1.419331208409409638e-05
5.042521260630314828e+01 1.383085361205069648e-05
5.132566283141570551e+01 1.345353307901276760e-05
5.222611305652826275e+01 1.307388104508029454e-05
5.312656328164081998e+01 1.271498140344366041e-05
5.402701350675337721e+01 1.237225010891213841e-05
5.492746373186592734e+01 1.202838995776496286e-05
5.582791395697848458e+01 1.170143895339103748e-05
5.672836418209104181e+01 1.144831092352054501e-05
5.762881440720359905e+01 1.130641498996810606e-05
5.852926463231615628e+01 1.124708273230092190e-05
5.942971485742871351e+01 1.118481328694689576e-05
6.033016508254127075e+01 1.105148304137436716e-05
6.123061530765382088e+01 1.087022968898709136e-05
6.213106553276637811e+01 1.068576731665900842e-05
6.303151575787893535e+01 1.049977227375812196e-05
6.393196598299149258e+01 1.033641236832325214e-05
6.483241620810404982e+01 1.022190889633591590e-05
6.573286643321659994e+01 1.011200106578723482e-05
6.663331665832916428e+01 9.943202646999786454e-06
6.753376688344171441e+01 9.712746051310152613e-06
6.843421710855427875e+01 9.479528735240903145e-06
6.933466733366682888e+01 9.323154794890645901e-06
7.023511755877939322e+01 9.277332743364972067e-06
7.113556778389194335e+01 9.311281605996643722e-06
7.203601800900449348e+01 9.383539915096771904e-06
7.293646823411705782e+01 9.461536546263713725e-06
7.383691845922960795e+01 9.525196669604227956e-06
7.473736868434217229e+01 9.588659702032148208e-06
7.563781890945472242e+01 9.702534221178622526e-06
7.653826913456728676e+01 9.882352047720591932e-06
7.743871935967983688e+01 1.004202094327368736e-05
7.833916958479238701e+01 1.005380057093527890e-05
7.923961980990495135e+01 9.877341234934299932e-06
8.014007003501750148e+01 9.583712842370890349e-06
8.104052026013006582e+01 9.282040727612953125e-06
8.194097048524261595e+01 9.045503880690692410e-06
8.284142071035518029e+01 8.889552376910466841e-06
8.374187093546773042e+01 8.792201716714935776e-06
8.464232116058028055e+01 8.719059484392328798e-06
8.554277138569284489e+01 8.654263884830496481e-06
8.644322161080539502e+01 8.589354364178400733e-06
8.734367183591795936e+01 8.539996770577512473e-06
8.824412206103050949e+01 8.554236153198829492e-06
8.914457228614307382e+01 8.655849211647326393e-06
9.004502251125562395e+01 8.847893640684306306e-06
9.094547273636817408e+01 9.151788804952233411e-06
9.184592296148073842e+01 9.579695681053021565e-06
9.274637318659328855e+01 1.010723307806444090e-05
9.364682341170585289e+01 1.069281801254991416e-05
9.454727363681840302e+01 1.127653528967256783e-05
9.544772386193096736e+01 1.176607958818123536e-05
9.634817408704351749e+01 1.213666673885985917e-05
9.724862431215606762e+01 1.250046640970854604e-05
9.814907453726863196e+01 1.294559003518508913e-05
9.904952476238118209e+01 1.338619537181150086e-05
9.994997498749374643e+01 1.373960942397544453e-05
1.008504252126062966e+02 1.402606675274848992e-05
1.017508754377188609e+02 1.413550690761622005e-05
1.026513256628314110e+02 1.390319984576711740e-05
1.035517758879439612e+02 1.342001223716806962e-05
1.044522261130565255e+02 1.291957027486301000e-05
1.053526763381690756e+02 1.258588944207495954e-05
1.062531265632816400e+02 1.249156701204208160e-05
1.071535767883941901e+02 1.252111502711286613e-05
1.080540270135067544e+02 1.250170186596192998e-05
1.089544772386193046e+02 1.243055304512447982e-05
1.098549274637318547e+02 1.246377761500601457e-05
1.107553776888444190e+02 1.268534814989923599e-05
1.116558279139569692e+02 1.299084657004196576e-05
1.125562781390695335e+02 1.325417943468706974e-05
1.134567283641820836e+02 1.344414756151370664e-05
1.143571785892946480e+02 1.357869136772986524e-05
1.152576288144071981e+02 1.369451695604142840e-05
1.161580790395197482e+02 1.374669258289886841e-05
1.170585292646323126e+02 1.363270704360629281e-05
1.179589794897448627e+02 1.338413288993743813e-05
1.188594297148574270e+02 1.316169187792297854e-05
1.197598799399699772e+02 1.302183521731738552e-05
1.206603301650825415e+02 1.290175979785203768e-05
1.215607803901950916e+02 1.278345170778207222e-05
1.224612306153076418e+02 1.270259377678285540e-05
1.233616808404202061e+02 1.272332508543696826e-05
1.242621310655327562e+02 1.289611708003506228e-05
1.251625812906453206e+02 1.316336851271634525e-05
1.260630315157578707e+02 1.333797075434592447e-05
1.269634817408704350e+02 1.330421883724489000e-05
1.278639319659829852e+02 1.319302149028401138e-05
1.287643821910955353e+02 1.317319305223210749e-05
1.296648324162080996e+02 1.328270499750809793e-05
1.305652826413206640e+02 1.344662326268607639e-05
1.314657328664331999e+02 1.360286585529035034e-05
1.323661830915457642e+02 1.383413124173981336e-05
1.332666333166583286e+02 1.426262944831373309e-05
1.341670835417708929e+02 1.489607551853549075e-05
1.350675337668834288e+02 1.559957187104321714e-05
1.359679839919959932e+02 1.616326464545185849e-05
1.368684342171085575e+02 1.646467454988027475e-05
1.377688844422210934e+02 1.656905352269173799e-05
1.386693346673336578e+02 1.659157464865864185e-05
1.395697848924462221e+02 1.652630727772164633e-05
1.404702351175587864e+02 1.637428136200960453e-05
1.413706853426713224e+02 1.617865052724012494e-05
1.422711355677838867e+02 1.597332860252375966e-05
1.431715857928964510e+02 1.587568029506780635e-05
1.440720360180089870e+02 1.598718603883559332e-05
1.449724862431215513e+02 1.618718930624846162e-05
1.458729364682341156e+02 1.629944509280994714e-05
1.467733866933466800e+02 1.638214442857644239e-05
1.476738369184592159e+02 1.656206661951618986e-05
1.485742871435717802e+02 1.677715302132378068e-05
1.494747373686843446e+02 1.686082832367999290e-05
1.503751875937968805e+02 1.675836324563813250e-05
1.512756378189094448e+02 1.655015242767688761e-05
1.521760880440220092e+02 1.633689999411370655e-05
1.530765382691345735e+02 1.617312975517679001e-05
1.539769884942471094e+02 1.610717600307794652e-05
1.548774387193596738e+02 1.617486855502325391e-05
1.557778889444722381e+02 1.627281915847114991e-05
1.566783391695847740e+02 1.622850726807555812e-05
1.575787893946973384e+02 1.601819136835026870e-05
1.584792396198099027e+02 1.575417219127270003e-05
1.593796898449224670e+02 1.556074410608389910e-05
1.602801400700350030e+02 1.548806973283411558e-05
1.611805902951475673e+02 1.549206648990242738e-05
1.620810405202601316e+02 1.551721288724735491e-05
1.629814907453726676e+02 1.553450212660818360e-05
1.638819409704852319e+02 1.554095705992719628e-05
1.647823911955977962e+02 1.558492043211034983e-05
1.656828414207103606e+02 1.569994113942592000e-05
1.665832916458228965e+02 1.585449488505443581e-05
1.674837418709354608e+02 1.601191526871183365e-05
1.683841920960480252e+02 1.623151488218376457e-05
1.692846423211605611e+02 1.658763821253716916e-05
1.701850925462731254e+02 1.706194951542196154e-05
1.710855427713856898e+02 1.756465878655910097e-05
1.719859929964982541e+02 1.788193733169660821e-05
1.728864432216107900e+02 1.789641275583778851e-05
1.737868934467233544e+02 1.777047701153119393e-05
1.746873436718359187e+02 1.769432884600160763e-05
1.755877938969484546e+02 1.763458249791137700e-05
1.764882441220610190e+02 1.747474229767483387e-05
1.773886943471735833e+02 1.722861845242430772e-05
1.782891445722861476e+02 1.702177426404237118e-05
1.791895947973986836e+02 1.697245661669048928e-05
1.800900450225112479e+02 1.710389042874800998e-05
1.809904952476238122e+02 1.729375505464504368e-05
1.818909454727363482e+02 1.732856096713562857e-05
1.827913956978489125e+02 1.707649696584297630e-05
1.836918459229614768e+02 1.654880922966619838e-05
1.845922961480740412e+02 1.586802629892882229e-05
1.854927463731865771e+02 1.518782272817263628e-05
1.863931965982991414e+02 1.463771549043541699e-05
1.872936468234117058e+02 1.428326586572459799e-05
1.881940970485242417e+02 1.412259956682880524e-05
1.890945472736368060e+02 1.416145362734386773e-05
1.899949974987493704e+02 1.440160883690476393e-05
1.908954477238619347e+02 1.475449172149777657e-05
1.917958979489744706e+02 1.507220268633849987e-05
1.926963481740870350e+02 1.527224820785488932e-05
1.935967983991995993e+02 1.543760641450331035e-05
1.944972486243121352e+02 1.568612203628201829e-05
1.953976988494246996e+02 1.600211510320590430e-05
1.962981490745372639e+02 1.623633252996678353e-05
1.971985992996498283e+02 1.623144611027255732e-05
1.980990495247623642e+02 1.605644750508976090e-05
1.989994997498749285e+02 1.597917653640469694e-05
1.998999499749874929e+02 1.615274838696050691e-05
2.008004002001000288e+02 1.654554561517382832e-05
2.017008504252125931e+02 1.705800033782489303e-05
2.026013006503251574e+02 1.752729001818559412e-05
2.035017508754377218e+02 1.771946622546478743e-05
2.044022011005502577e+02 1.750932386061737517e-05
2.053026513256628220e+02 1.703881954398373780e-05
2.062031015507753864e+02 1.660273332703490428e-05
2.071035517758879223e+02 1.637891280675427360e-05
2.080040020010004866e+02 1.638613191491708178e-05
2.089044522261130510e+02 1.658046072239835318e-05
2.098049024512256153e+02 1.683722193188876833e-05
2.107053526763381512e+02 1.703569218680015860e-05
2.116058029014507156e+02 1.716984099570259697e-05
2.125062531265632799e+02 1.723143239595833115e-05
2.134067033516758158e+02 1.719001402613839799e-05
2.143071535767883802e+02 1.708919414833507877e-05
2.152076038019009445e+02 1.703995263363351450e-05
2.161080540270135089e+02 1.714744636148530019e-05
2.170085042521260448e+02 1.741239382822261253e-05
2.179089544772386091e+02 1.768206189675688612e-05
2.188094047023511735e+02 1.786355397577133443e-05
2.197098549274637094e+02 1.802650829733019720e-05
2.206103051525762737e+02 1.821763543488077818e-05
2.215107553776888381e+02 1.848298618586863829e-05
2.224112056028014024e+02 1.890565789023448712e-05
2.233116558279139383e+02 1.944147737497833195e-05
2.242121060530265027e+02 1.989447525845884166e-05
2.251125562781390670e+02 2.010410644460561120e-05
2.260130065032516029e+02 2.010970024933730915e-05
2.269134567283641672e+02 2.015894805199434738e-05
2.278139069534767316e+02 2.043469232662284757e-05
2.287143571785892959e+02 2.082157618053474401e-05
2.296148074037018318e+02 2.101822510194233950e-05
2.305152576288143962e+02 2.085882924673880382e-05
2.314157078539269605e+02 2.042751673084794943e-05
2.323161580790394964e+02 1.996330228337324746e-05
2.332166083041520608e+02 1.965952310563979431e-05
2.341170585292646251e+02 1.954238995760126482e-05
2.350175087543771895e+02 1.956064928742032329e-05
2.359179589794897254e+02 1.967948836105775561e-05
2.368184092046022897e+02 1.987564857199726104e-05
2.377188594297148541e+02 2.009992085224631493e-05
2.386193096548273900e+02 2.024899063198862045e-05
2.395197598799399543e+02 2.028204063442382116e-05
2.404202101050525187e+02 2.024370322443061089e-05
2.413206603301650830e+02 2.017074322170837094e-05
2.422211105552776189e+02 2.007778204082001888e-05
2.431215607803901833e+02 1.996083022287330379e-05
2.440220110055027476e+02 1.986258917852952574e-05
2.449224612306152835e+02 1.988396750891329294e-05
2.458229114557278479e+02 2.005080614450718618e-05
2.467233616808404122e+02 2.024666735496618889e-05
2.476238119059529765e+02 2.038669530599705455e-05
2.485242621310655124e+02 2.053786380204393824e-05
2.494247123561780768e+02 2.082425172966851859e-05
2.503251625812906411e+02 2.125103385856110693e-05
2.512256128064031770e+02 2.162420507997902175e-05
2.521260630315157414e+02 2.173955669663488912e-05
2.530265132566283057e+02 2.159183462823410671e-05
2.539269634817408701e+02 2.134087323286025723e-05
2.548274137068534060e+02 2.118021570397362794e-05
2.557278639319659703e+02 2.121453537822765210e-05
2.566283141570785347e+02 2.142916242525066598e-05
2.575287643821910706e+02 2.178274813190061629e-05
2.584292146073036633e+02 2.226721128387424851e-05
2.593296648324161993e+02 2.287558147030620400e-05
2.602301150575287352e+02 2.352593280661777853e-05
2.611305652826413279e+02 2.407367916445245177e-05
2.620310155077538639e+02 2.436728638252510493e-05
2.629314657328663998e+02 2.434211866961707632e-05
2.638319159579789925e+02 2.411690603810470466e-05
2.647323661830915285e+02 2.394149654665478632e-05
2.656328164082040644e+02 2.400033052224739965e-05
2.665332666333166571e+02 2.422089413235057248e-05
2.674337168584291931e+02 2.444927667276773365e-05
2.683341670835417858e+02 2.479693326319378397e-05
2.692346173086543217e+02 2.547433967237495110e-05
2.701350675337668577e+02 2.645320814938461232e-05
2.710355177588794504e+02 2.752544767953598443e-05
2.719359679839919863e+02 2.856801524112663696e-05
2.728364182091045222e+02 2.965149070398576047e-05
2.737368684342171150e+02 3.071817740257582407e-05
2.746373186593296509e+02 3.139748694333338396e-05
2.755377688844421868e+02 3.159690465432845224e-05
2.764382191095547796e+02 3.170051431763295483e-05
2.773386693346673155e+02 3.190518025012781223e-05
2.782391195597798514e+02 3.197028451450691859e-05
2.791395697848924442e+02 3.164532680292131233e-05
2.800400200100049801e+02 3.096870688276096321e-05
2.809404702351175729e+02 3.022856467178171400e-05
2.818409204602301088e+02 2.967030018514122205e-05
2.827413706853426447e+02 2.925331772668982624e-05
2.836418209104552375e+02 2.884271057084569295e-05
2.845422711355677734e+02 2.844368440433096018e-05
2.854427213606803093e+02 2.811372619295708286e-05
2.863431715857929021e+02 2.787026151715252676e-05
2.872436218109054380e+02 2.774559555496739180e-05
2.881440720360179739e+02 2.784249919400877025e-05
2.890445222611305667e+02 2.824799177937332420e-05
2.899449724862431026e+02 2.878110773012433545e-05
2.908454227113556385e+02 2.907122165152133892e-05
2.917458729364682313e+02 2.901486489280745526e-05
2.926463231615807672e+02 2.887023580827873952e-05
2.935467733866933600e+02 2.895597834453492888e-05
2.944472236118058959e+02 2.937979808908145287e-05
2.953476738369184318e+02 2.995799294111229863e-05
2.962481240620310246e+02 3.049100457887663192e-05
2.971485742871435605e+02 3.097758518184267159e-05
2.980490245122560964e+02 3.144931885240522304e-05
2.989494747373686891e+02 3.184208158437574777e-05
2.998499249624812251e+02 3.220998242237235135e-05
3.007503751875937610e+02 3.273397110672701465e-05
3.016508254127063537e+02 3.348657284479114474e-05
3.025512756378188897e+02 3.434172813878274357e-05
3.034517258629314256e+02 3.501032516302653494e-05
3.043521760880440183e+02 3.522938840240054435e-05
3.052526263131565543e+02 3.499475053818425918e-05
3.061530765382691470e+02 3.460891047987983552e-05
3.070535267633816829e+02 3.441234007386762093e-05
3.079539769884942189e+02 3.456809586387052391e-05
3.088544272136068116e+02 3.510562983785321493e-05
3.097548774387193475e+02 3.605987797897295928e-05
3.106553276638318835e+02 3.742792750617331821e-05
3.115557778889444762e+02 3.891548553269486260e-05
3.124562281140570121e+02 4.009009075526402579e-05
3.133566783391695481e+02 4.081795838734630292e-05
3.142571285642821408e+02 4.129491131941292608e-05
3.151575787893946767e+02 4.170011017565652516e-05
3.160580290145072127e+02 4.215726054209270498e-05
3.169584792396198054e+02 4.277237511978320040e-05
3.178589294647323413e+02 4.347522511686611335e-05
3.187593796898449341e+02 4.400280264142852378e-05
3.196598299149574700e+02 4.425484631453638221e-05
3.205602801400700059e+02 4.446992817711125111e-05
3.214607303651825987e+02 4.487418971490506520e-05
3.223611805902951346e+02 4.545544678359251498e-05
3.232616308154076705e+02 4.592391839189047763e-05
3.241620810405202633e+02 4.595991105529739090e-05
3.250625312656327992e+02 4.546308583373403611e-05
3.259629814907453351e+02 4.452880450433718335e-05
3.268634317158579279e+02 4.344855613210414852e-05
3.277638819409704638e+02 4.257600094481049397e-05
3.286643321660829997e+02 4.222464677028807059e-05
3.295647823911955925e+02 4.249334111674189654e-05
3.304652326163081284e+02 4.305811139705163770e-05
3.313656828414207212e+02 4.346312435433839121e-05
3.322661330665332571e+02 4.354082730512682305e-05
3.331665832916457930e+02 4.329256737424635185e-05
3.340670335167583858e+02 4.266192658281833615e-05
3.349674837418709217e+02 4.176584633206137593e-05
3.358679339669834576e+02 4.094515249660318339e-05
3.367683841920960504e+02 4.040260068059559967e-05
3.376688344172085863e+02 4.004204416502803307e-05
3.385692846423211222e+02 3.975314145592748064e-05
3.394697348674337150e+02 3.960529398538900218e-05
3.403701850925462509e+02 3.968046394785552911e-05
3.412706353176587868e+02 3.993292107428194607e-05
3.421710855427713796e+02 4.036716337144107182e-05
3.430715357678839155e+02 4.091586394211645236e-05
3.439719859929965082e+02 4.137755268770923852e-05
3.448724362181090441e+02 4.178457585558303130e-05
3.457728864432215801e+02 4.227478494419180735e-05
3.466733366683341728e+02 4.265207603021134653e-05
3.475737868934467087e+02 4.264341302197189362e-05
3.484742371185592447e+02 4.228355786076997704e-05
3.493746873436718374e+02 4.191518135608992304e-05
3.502751375687843733e+02 4.181154041942411915e-05
3.511755877938969093e+02 4.183228528373943031e-05
3.520760380190095020e+02 4.169676568880798000e-05
3.529764882441220379e+02 4.132101844992783728e-05
3.538769384692345739e+02 4.081358532003335121e-05
3.547773886943471666e+02 4.034770353367500052e-05
3.556778389194597025e+02 3.993793827349911195e-05
3.565782891445722953e+02 3.937353906662317832e-05
3.574787393696848312e+02 3.860825863719924325e-05
3.583791895947973671e+02 3.793961568548105640e-05
3.592796398199099599e+02 3.757794103466870986e-05
3.601800900450224958e+02 3.753798960567254403e-05
3.610805402701350317e+02 3.779679559624046087e-05
3.619809904952476245e+02 3.822606670452773471e-05
3.628814407203601604e+02 3.870057084030598577e-05
3.637818909454726963e+02 3.923880976644812229e-05
3.646823411705852891e+02 3.983121687356926588e-05
3.655827913956978250e+02 4.041535638965865478e-05
3.664832416208103609e+02 4.087362656002067700e-05
3.673836918459229537e+02 4.098303700346691772e-05
3.682841420710354896e+02 4.062512691760489605e-05
3.691845922961480824e+02 3.992454854392238155e-05
3.700850425212606183e+02 3.917686386817181290e-05
3.709854927463731542e+02 3.863481606477662975e-05
3.718859429714857470e+02 3.835599916474542878e-05
3.727863931965982829e+02 3.819774310360982855e-05
3.736868434217108188e+02 3.803720283395597941e-05
3.745872936468234116e+02 3.791174641311011558e-05
3.754877438719359475e+02 3.788377057751708145e-05
3.763881940970484834e+02 3.797510504398065640e-05
3.772886443221610762e+02 3.812117309465081882e-05
3.781890945472736121e+02 3.816390585076825004e-05
3.790895447723861480e+02 3.800891894097912360e-05
3.799899949974987408e+02 3.774471842709047889e-05
3.808904452226112767e+02 3.738685255357006293e-05
3.817908954477238694e+02 3.691008207759691358e-05
3.826913456728364054e+02 3.645099583000222513e-05
3.835917958979489413e+02 3.605231968528949100e-05
3.844922461230615340e+02 3.562982746651656484e-05
3.853926963481740700e+02 3.512726207697105721e-05
3.862931465732866059e+02 3.459246869572381680e-05
3.871935967983991986e+02 3.421665862720390166e-05
3.880940470235117346e+02 3.403804681026969213e-05
3.889944972486242705e+02 3.386381989274946135e-05
3.898949474737368632e+02 3.363681606677904756e-05
3.907953976988493991e+02 3.343551193605991698e-05
3.916958479239619351e+02 3.330944128440158699e-05
3.925962981490745278e+02 3.331641399963038532e-05
3.934967483741870637e+02 3.350362627857488587e-05
3.943971985992996565e+02 3.392289619735192329e-05
3.952976488244121924e+02 3.462438962555885964e-05
3.961980990495247283e+02 3.553541520122477192e-05
3.970985492746373211e+02 3.642724172888913868e-05
3.979989994997498570e+02 3.700926678305899349e-05
3.988994497248623929e+02 3.710294881597305352e-05
3.997998999499749857e+02 3.679421558147328696e-05
4.007003501750875216e+02 3.634761188822635585e-05
4.016008004002000575e+02 3.588993432043324468e-05
4.025012506253126503e+02 3.541279074885654332e-05
4.034017008504251862e+02 3.495617448941135911e-05
4.043021510755377221e+02 3.449915473456815189e-05
4.052026013006503149e+02 3.392979599273191252e-05
4.061030515257628508e+02 3.323868335336123159e-05
4.070035017508754436e+02 3.260611307552485416e-05
4.079039519759879795e+02 3.223304260649000616e-05
4.088044022011005154e+02 3.215235591677014312e-05
4.097048524262131082e+02 3.221144538015107458e-05
4.106053026513256441e+02 3.220393292692394895e-05
4.115057528764381800e+02 3.202980199502272090e-05
4.124062031015507728e+02 3.177930148081462572e-05
4.133066533266633087e+02 3.165402753325020793e-05
4.142071035517758446e+02 3.174912469669979452e-05
4.151075537768884374e+02 3.197001677796950362e-05
4.160080040020009733e+02 3.220492975486472398e-05
4.169084542271135092e+02 3.245351877854003977e-05
4.178089044522261020e+02 3.272875188032507926e-05
4.187093546773386379e+02 3.295950108635349569e-05
4.196098049024512306e+02 3.313464768368724591e-05
4.205102551275637666e+02 3.340455870774268243e-05
4.214107053526763025e+02 3.388527584461602064e-05
4.223111555777888952e+02 3.452213442871973506e-05
4.232116058029014312e+02 3.514147625408957224e-05
4.241120560280139671e+02 3.546264722649703378e-05
4.250125062531265598e+02 3.528992814250933498e-05
4.259129564782390958e+02 3.480386743620593893e-05
4.268134067033516317e+02 3.435449451391876330e-05
4.277138569284642244e+02 3.403820034760332309e-05
4.286143071535767604e+02 3.378740901323178531e-05
4.295147573786892963e+02 3.365580751212739869e-05
4.304152076038018890e+02 3.370470831797828048e-05
4.313156578289144250e+02 3.383945040012118312e-05
4.322161080540270177e+02 3.394905347114546290e-05
4.331165582791395536e+02 3.401426048276539270e-05
4.340170085042520896e+02 3.408294178817308589e-05
4.349174587293646823e+02 3.411744645394581936e-05
4.358179089544772182e+02 3.403861155017482787e-05
4.367183591795897541e+02 3.381732435143417100e-05
4.376188094047023469e+02 3.347035591826410248e-05
4.385192596298148828e+02 3.316488562498699777e-05
4.394197098549274187e+02 3.307672614721003592e-05
4.403201600800400115e+02 3.319912237492444199e-05
4.412206103051525474e+02 3.349206412798524745e-05
4.421210605302650833e+02 3.396632215678592107e-05
4.430215107553776761e+02 3.448545765107251471e-05
4.439219609804902120e+02 3.479551002254711227e-05
4.448224112056028048e+02 3.489527398721960775e-05
4.457228614307153407e+02 3.507012383200316529e-05
4.466233116558278766e+02 3.552758895175794158e-05
4.475237618809404694e+02 3.626382898881941173e-05
4.484242121060530053e+02 3.715747253526330908e-05
4.493246623311655412e+02 3.800798165326008696e-05
4.502251125562781340e+02 3.862035001677306532e-05
4.511255627813906699e+02 3.887735524557484653e-05
4.520260130065032058e+02 3.881728238641673134e-05
4.529264632316157986e+02 3.861662719570390577e-05
4.538269134567283345e+02 3.836611399228192739e-05
4.547273636818408704e+02 3.806664028743360551e-05
4.556278139069534632e+02 3.779573638767224817e-05
4.565282641320659991e+02 3.759944796292756595e-05
4.574287143571785919e+02 3.741982610891218233e-05
4.583291645822911278e+02 3.722855155977963006e-05
4.592296148074036637e+02 3.710251394186433842e-05
4.601300650325162565e+02 3.708423157229228604e-05
4.610305152576287924e+02 3.704232393504087561e-05
4.619309654827413283e+02 3.691781899072499545e-05
4.628314157078539210e+02 3.683017878948582528e-05
4.637318659329664570e+02 3.685712006852997097e-05
4.646323161580789929e+02 3.694169304880892500e-05
4.655327663831915856e+02 3.701038587356695860e-05
4.664332166083041216e+02 3.717031463948207605e-05
4.673336668334167143e+02 3.750937626360133361e-05
4.682341170585292502e+02 3.786697860425173738e-05
4.691345672836417862e+02 3.807873729386137049e-05
4.700350175087543789e+02 3.818906936924784369e-05
4.709354677338669148e+02 3.833331816893260029e-05
4.718359179589794508e+02 3.856381153500255211e-05
4.727363681840920435e+02 3.883408009704380587e-05
4.736368184092045794e+02 3.907011171367752401e-05
4.745372686343171154e+02 3.925246739957148281e-05
4.754377188594297081e+02 3.946732203708975764e-05
4.763381690845422440e+02 3.978857057497055055e-05
4.772386193096547800e+02 4.010516921800535419e-05
4.781390695347673727e+02 4.024684336981335141e-05
4.790395197598799086e+02 4.026961887807254488e-05
4.799399699849925014e+02 4.034093057711063239e-05
4.808404202101050373e+02 4.051821648827844255e-05
4.817408704352175732e+02 4.077356450731130883e-05
4.826413206603301660e+02 4.099929875459092251e-05
4.835417708854427019e+02 4.117118329802386343e-05
4.844422211105552378e+02 4.131258577202974556e-05
4.853426713356678306e+02 4.134118390321018149e-05
4.862431215607803665e+02 4.128674137283564410e-05
4.871435717858929024e+02 4.126910678631280502e-05
4.880440220110054952e+02 4.132944887071942643e-05
4.889444722361180311e+02 4.151012120461325470e-05
4.898449224612305670e+02 4.185411258060907678e-05
4.907453726863431598e+02 4.226256312877404254e-05
4.916458229114556957e+02 4.258147595457999933e-05
4.925462731365682885e+02 4.278481922807897880e-05
4.934467233616808244e+02 4.290351300074692282e-05
4.943471735867933603e+02 4.289828248669609161e-05
4.952476238119059531e+02 4.278005017730692383e-05
4.961480740370184890e+02 4.273134278223564866e-05
4.970485242621310249e+02 4.287220220599112633e-05
4.979489744872436177e+02 4.315351001100561440e-05
4.988494247123561536e+02 4.352647494178023632e-05
4.997498749374686895e+02 4.402234691516374368e-05
5.006503251625812823e+02 4.459678016114054224e-05
5.015507753876938182e+02 4.510368782440813914e-05
5.024512256128063541e+02 4.542772016257692229e-05
5.033516758379189469e+02 4.553695812650361140e-05
5.042521260630314828e+02 4.549783130242966619e-05
5.051525762881440755e+02 4.552891751365574486e-05
5.060530265132566115e+02 4.591833068624188145e-05
5.069534767383691474e+02 4.674103657923381501e-05
5.078539269634817401e+02 4.771792909419383672e-05
5.087543771885942760e+02 4.847037130748781678e-05
5.096548274137068120e+02 4.893430728811363139e-05
5.105552776388194047e+02 4.934606611559205070e-05
5.114557278639319406e+02 4.992415172751506506e-05
5.123561780890445334e+02 5.059272131772606844e-05
5.132566283141570693e+02 5.113073677571216327e-05
5.141570785392696052e+02 5.153120585185014480e-05
5.150575287643821412e+02 5.192428899722478477e-05
5.159579789894946771e+02 5.223448240491606394e-05
5.168584292146073267e+02 5.227120151141665836e-05
5.177588794397198626e+02 5.215181941047199984e-05
5.186593296648323985e+02 5.226111634368735601e-05
5.195597798899449344e+02 5.285530027223086857e-05
5.204602301150574704e+02 5.379588848662944560e-05
5.213606803401700063e+02 5.469392534690038180e-05
5.222611305652826559e+02 5.535290812318872976e-05
5.231615807903951918e+02 5.585443451190435973e-05
5.240620310155077277e+02 5.633553435842694773e-05
5.249624812406202636e+02 5.681660438121452175e-05
5.258629314657327996e+02 5.716076801298674551e-05
5.267633816908454492e+02 5.730139982933572242e-05
5.276638319159579851e+02 5.730262027845489577e-05
5.285642821410705210e+02 5.722331870039958470e-05
5.294647323661830569e+02 5.709817736394738271e-05
5.303651825912955928e+02 5.698373366063747713e-05
5.312656328164081287e+02 5.692271644411287944e-05
5.321660830415207784e+02 5.693171403037762442e-05
5.330665332666333143e+02 5.708633482526451452e-05
5.339669834917458502e+02 5.744281062305035704e-05
5.348674337168583861e+02 5.796368714677100931e-05
5.357678839419709220e+02 5.857929827311892767e-05
5.366683341670835716e+02 5.935463207156677263e-05
5.375687843921961075e+02 6.039847589173515113e-05
5.384692346173086435e+02 6.157212536891097134e-05
5.393696848424211794e+02 6.256075731520496948e-05
5.402701350675337153e+02 6.311672723290507724e-05
5.411705852926462512e+02 6.322627650480861330e-05
5.420710355177589008e+02 6.323654020897397803e-05
5.429714857428714367e+02 6.359001258812545373e-05
5.438719359679839727e+02 6.425748206345860056e-05
5.447723861930965086e+02 6.473794601940376450e-05
5.456728364182090445e+02 6.468211406610188902e-05
5.465732866433215804e+02 6.420950983275615310e-05
5.474737368684342300e+02 6.368094781677898766e-05
5.483741870935467659e+02 6.333827599169651980e-05
5.492746373186593019e+02 6.324301649081383206e-05
5.501750875437718378e+02 6.337359154780807023e-05
5.510755377688843737e+02 6.358842255042378405e-05
5.519759879939970233e+02 6.360927426793084271e-05
5.528764382191095592e+02 6.328592370425413234e-05
5.537768884442220951e+02 6.279728408046856929e-05
5.546773386693346310e+02 6.245410623545074311e-05
5.555777888944471670e+02 6.231800965522408457e-05
5.564782391195597029e+02 6.208325721046638085e-05
5.573786893446723525e+02 6.148787031078238791e-05
5.582791395697848884e+02 6.068804819909900109e-05
5.591795897948974243e+02 6.002610154371166234e-05
5.600800400200099602e+02 5.958878013935830543e-05
5.609804902451224962e+02 5.922010845503486193e-05
5.618809404702351458e+02 5.872627786337032653e-05
5.627813906953476817e+02 5.805560588042731670e-05
5.636818409204602176e+02 5.738654923430839270e-05
5.645822911455727535e+02 5.678682514594445940e-05
5.654827413706852894e+02 5.611944858343328004e-05
5.663831915957978254e+02 5.548523212018542644e-05
5.672836418209104750e+02 5.519968256564574614e-05
5.681840920460230109e+02 5.543913115911731497e-05
5.690845422711355468e+02 5.619770842026764916e-05
5.699849924962480827e+02 5.732561489624936682e-05
5.708854427213606186e+02 5.858364176809749098e-05
5.717858929464731546e+02 5.976443389886972057e-05
5.726863431715858042e+02 6.054093222676526444e-05
5.735867933966983401e+02 6.051987888668209487e-05
5.744872436218108760e+02 5.966014914841851125e-05
5.753876938469234119e+02 5.847434428537775700e-05
5.762881440720359478e+02 5.755307940810663918e-05
5.771885942971485974e+02 5.698682745930163881e-05
5.780890445222611334e+02 5.656248603284644115e-05
5.789894947473736693e+02 5.623337376332919425e-05
5.798899449724862052e+02 5.606826297356225041e-05
5.807903951975987411e+02 5.595163313077479742e-05
5.816908454227112770e+02 5.569124766532300257e-05
5.825912956478239266e+02 5.529142212727598116e-05
5.834917458729364625e+02 5.490188361856877835e-05
5.843921960980489985e+02 5.461932457587134759e-05
5.852926463231615344e+02 5.447358413122170985e-05
5.861930965482740703e+02 5.444584462860412277e-05
5.870935467733867199e+02 5.453154388215563145e-05
5.879939969984992558e+02 5.483157072761118479e-05
5.888944472236117917e+02 5.542221482893304344e-05
5.897948974487243277e+02 5.611452210807199153e-05
5.906953476738368636e+02 5.658760948285275591e-05
5.915957978989493995e+02 5.663772158511574251e-05
5.924962481240620491e+02 5.624727490175056570e-05
5.933966983491745850e+02 5.549506392888166854e-05
5.942971485742871209e+02 5.462255889934746346e-05
5.951975987993996569e+02 5.396551667791188992e-05
5.960980490245121928e+02 5.367794715745533918e-05
5.969984992496247287e+02 5.380561781692393310e-05
5.978989494747373783e+02 5.432620362100584066e-05
5.987993996998499142e+02 5.506296205426934050e-05
5.996998499249624501e+02 5.570940575137493404e-05
6.006003001500749860e+02 5.590307577798798668e-05
6.015007503751875220e+02 5.553942749052460573e-05
6.024012006003001716e+02 5.492490466047738045e-05
6.033016508254127075e+02 5.443917129758568603e-05
6.042021010505252434e+02 5.420135159642741976e-05
6.051025512756377793e+02 5.419408392124070779e-05
6.060030015007503152e+02 5.440906315804731452e-05
6.069034517258628512e+02 5.475427905370602351e-05
6.078039019509755008e+02 5.499374889534024553e-05
6.087043521760880367e+02 5.489539656384908272e-05
6.096048024012005726e+02 5.448289259214844589e-05
6.105052526263131085e+02 5.397090822252648921e-05
6.114057028514256444e+02 5.345958289928981450e-05
6.123061530765382940e+02 5.290540737093952839e-05
6.132066033016508300e+02 5.228614653584334900e-05
6.141070535267633659e+02 5.166054860605543049e-05
6.150075037518759018e+02 5.104575439869497193e-05
6.159079539769884377e+02 5.038099946494318290e-05
6.168084042021009736e+02 4.970187106146413939e-05
6.177088544272136232e+02 4.921165530288930411e-05
6.186093046523261592e+02 4.905115960996885244e-05
6.195097548774386951e+02 4.918936476006109014e-05
6.204102051025512310e+02 4.945641671391944966e-05
6.213106553276637669e+02 4.961334538515277046e-05
6.222111055527763028e+02 4.963641461080894602e-05
6.231115557778889524e+02 4.969531164368647450e-05
6.240120060030014884e+02 4.966313479433325618e-05
6.249124562281140243e+02 4.924818056287911530e-05
6.258129064532265602e+02 4.847547990298369116e-05
6.267133566783390961e+02 4.761655385903601961e-05
6.276138069034517457e+02 4.694588313276168163e-05
6.285142571285642816e+02 4.653312417123382490e-05
6.294147073536768175e+02 4.619695085682321315e-05
6.303151575787893535e+02 4.567137243652060581e-05
6.312156078039018894e+02 4.488916309263071255e-05
6.321160580290144253e+02 4.407546570217778329e-05
6.330165082541270749e+02 4.347654191455770404e-05
6.339169584792396108e+02 4.315934573551879144e-05
6.348174087043521467e+02 4.315266312216194089e-05
6.357178589294646827e+02 4.367630684363309624e-05
6.366183091545772186e+02 4.491907965993314480e-05
6.375187593796898682e+02 4.665478202448955551e-05
6.384192096048024041e+02 4.836050373463166881e-05
6.393196598299149400e+02 4.962283956533725522e-05
6.402201100550274759e+02 5.023343681257659327e-05
6.411205602801400119e+02 5.010750065466862847e-05
6.420210105052525478e+02 4.934850238730950384e-05
6.429214607303651974e+02 4.830151781491750818e-05
6.438219109554777333e+02 4.739808170408003440e-05
6.447223611805902692e+02 4.702054359596847090e-05
6.456228114057028051e+02 4.729299975100219956e-05
6.465232616308153411e+02 4.792509498288315746e-05
6.474237118559278770e+02 4.843964569507337232e-05
6.483241620810405266e+02 4.860929844997532664e-05
6.492246123061530625e+02 4.855297738193067067e-05
6.501250625312655984e+02 4.843564510096887924e-05
6.510255127563781343e+02 4.840717851802987977e-05
6.519259629814906702e+02 4.857508941762587963e-05
6.528264132066033198e+02 4.890433620708312703e-05
6.537268634317158558e+02 4.922167060396674774e-05
6.546273136568283917e+02 4.929823692918358305e-05
6.555277638819409276e+02 4.893975568192359868e-05
6.564282141070534635e+02 4.817838419384376335e-05
6.573286643321659994e+02 4.735894567422866601e-05
6.582291145572786490e+02 4.679277742162558511e-05
6.591295647823911850e+02 4.647062873932170183e-05
6.600300150075037209e+02 4.625589517123688372e-05
6.609304652326162568e+02 4.608557720733867820e-05
6.618309154577287927e+02 4.592367695204594037e-05
6.627313656828414423e+02 4.577937919121354080e-05
6.636318159079539782e+02 4.557906048975846432e-05
6.645322661330665142e+02 4.522674816186349320e-05
6.654327163581790501e+02 4.484296065715573447e-05
6.663331665832915860e+02 4.463045504080220312e-05
6.672336168084041219e+02 4.460569389992121662e-05
6.681340670335167715e+02 4.449357713091362518e-05
6.690345172586293074e+02 4.401675955435394261e-05
6.699349674837418434e+02 4.331712868801878354e-05
6.708354177088543793e+02 4.286355807697575130e-05
6.717358679339669152e+02 4.293129637147366056e-05
6.726363181590794511e+02 4.336007638562387143e-05
6.735367683841921007e+02 4.390764977601741383e-05
6.744372186093046366e+02 4.449413695541110076e-05
6.753376688344171725e+02 4.513936557163872543e-05
6.762381190595297085e+02 4.583180413110344935e-05
6.771385692846422444e+02 4.637346903569137407e-05
6.780390195097548940e+02 4.650453374198846662e-05
6.789394697348674299e+02 4.610874072361253946e-05
6.798399199599799658e+02 4.532489638682240266e-05
6.807403701850925017e+02 4.453018691188617158e-05
6.816408204102050377e+02 4.396874286249323612e-05
6.825412706353175736e+02 4.354549973102429973e-05
6.834417208604302232e+02 4.317015909295847441e-05
6.843421710855427591e+02 4.292554007440350656e-05
6.852426213106552950e+02 4.289369179077663847e-05
6.861430715357678309e+02 4.303107193351432953e-05
6.870435217608803669e+02 4.322774101467010750e-05
6.879439719859930165e+02 4.344834921513064370e-05
6.888444222111055524e+02 4.369622780566002684e-05
6.897448724362180883e+02 4.388688453803186995e-05
6.906453226613306242e+02 4.406871867781169164e-05
6.915457728864431601e+02 4.457477638919203541e-05
6.924462231115556961e+02 4.555146799994515798e-05
6.933466733366683457e+02 4.665811405263040371e-05
6.942471235617808816e+02 4.738524207612718420e-05
6.951475737868934175e+02 4.748127199918998474e-05
6.960480240120059534e+02 4.694339203000640640e-05
6.969484742371184893e+02 4.588265811013090406e-05
6.978489244622311389e+02 4.463439296668403420e-05
6.987493746873436749e+02 4.363759402819191347e-05
6.996498249124562108e+02 4.312434899291982488e-05
7.005502751375687467e+02 4.300729014969875859e-05
7.014507253626812826e+02 4.312220758741267099e-05
7.023511755877938185e+02 4.349499666536255928e-05
7.032516258129064681e+02 4.419645253905732227e-05
7.041520760380190040e+02 4.514946724311931492e-05
7.050525262631315400e+02 4.617270733352041398e-05
7.059529764882440759e+02 4.700466095995348918e-05
7.068534267133566118e+02 4.743724262386509057e-05
7.077538769384691477e+02 4.758092789405702245e-05
7.086543271635817973e+02 4.774566769154901363e-05
7.095547773886943332e+02 4.795240660682469140e-05
7.104552276138068692e+02 4.792089049677934482e-05
7.113556778389194051e+02 4.759723029939447560e-05
7.122561280640319410e+02 4.724595158190805750e-05
7.131565782891445906e+02 4.713383497431750195e-05
7.140570285142571265e+02 4.743118914932090808e-05
7.149574787393696624e+02 4.822022484252743183e-05
7.158579289644821984e+02 4.935091351099363624e-05
7.167583791895947343e+02 5.036521429846224553e-05
7.176588294147072702e+02 5.074877620025470816e-05
7.185592796398199198e+02 5.029348241956938101e-05
7.194597298649324557e+02 4.926689285380684490e-05
7.203601800900449916e+02 4.812575906808614859e-05
7.212606303151575275e+02 4.710403812017769075e-05
7.221610805402700635e+02 4.631470059784626819e-05
7.230615307653827131e+02 4.588695161335034907e-05
7.239619809904952490e+02 4.579669288320969013e-05
7.248624312156077849e+02 4.586326544623024764e-05
7.257628814407203208e+02 4.587625074279092304e-05
7.266633316658328567e+02 4.576579348392189201e-05
7.275637818909453927e+02 4.565734584595853391e-05
7.284642321160580423e+02 4.569300670146240112e-05
7.293646823411705782e+02 4.584326259776556878e-05
7.302651325662831141e+02 4.590778917064822223e-05
7.311655827913956500e+02 4.582431571917932293e-05
7.320660330165081859e+02 4.587272073409088202e-05
7.329664832416207219e+02 4.626403512580190791e-05
7.338669334667333715e+02 4.676006099496367736e-05
7.347673836918459074e+02 4.691403092813349965e-05
7.356678339169584433e+02 4.665380846732439322e-05
7.365682841420709792e+02 4.632720156198957769e-05
7.374687343671835151e+02 4.615758275674004563e-05
7.383691845922961647e+02 4.615732787589220669e-05
7.392696348174087007e+02 4.635177777990004595e-05
7.401700850425212366e+02 4.673067744017916355e-05
7.410705352676337725e+02 4.711143869265504812e-05
7.419709854927463084e+02 4.735764740894381111e-05
7.428714357178588443e+02 4.755127437999578742e-05
7.437718859429714939e+02 4.779805538797175503e-05
7.446723361680840299e+02 4.815152856601264130e-05
7.455727863931965658e+02 4.869028378715783197e-05
7.464732366183091017e+02 4.948944015370365939e-05
7.473736868434216376e+02 5.047797621750980181e-05
7.482741370685342872e+02 5.137640323780561782e-05
7.491745872936468231e+02 5.190886887315551056e-05
7.500750375187593590e+02 5.202168424156237845e-05
7.509754877438718950e+02 5.190529978715161067e-05
7.518759379689844309e+02 5.181875830643251649e-05
7.527763881940969668e+02 5.181494048938513049e-05
7.536768384192096164e+02 5.179114058855172488e-05
7.545772886443221523e+02 5.177191648364218773e-05
7.554777388694346882e+02 5.185485067339112570e-05
7.563781890945472242e+02 5.203922194089803378e-05
7.572786393196597601e+02 5.227455142157058334e-05
7.581790895447722960e+02 5.247033817976127791e-05
7.590795397698849456e+02 5.264475658647763785e-05
7.599799899949974815e+02 5.300011977214970490e-05
7.608804402201100174e+02 5.361609353238505323e-05
7.617808904452225534e+02 5.426287442828478871e-05
7.626813406703350893e+02 5.465505751389591936e-05
7.635817908954477389e+02 5.475254449109619268e-05
7.644822411205602748e+02 5.458073993133324140e-05
7.653826913456728107e+02 5.406644836024565955e-05
7.662831415707853466e+02 5.317265311782387344e-05
7.671835917958978825e+02 5.202347939018075687e-05
7.680840420210104185e+02 5.092830546510457019e-05
7.689844922461230681e+02 5.018340145417041377e-05
7.698849424712356040e+02 4.991895032671126429e-05
7.707853926963481399e+02 5.016223680981473027e-05
7.716858429214606758e+02 5.066915524378113347e-05
7.725862931465732117e+02 5.092127757665589722e-05
7.734867433716858613e+02 5.074887595042648766e-05
7.743871935967983973e+02 5.046995268696438609e-05
7.752876438219109332e+02 5.035134470031648723e-05
7.761880940470234691e+02 5.043923979302162355e-05
7.770885442721360050e+02 5.083374179144802251e-05
7.779889944972485409e+02 5.164589837234121714e-05
7.788894447223611905e+02 5.282356570020891126e-05
7.797898949474737265e+02 5.411510843843873593e-05
7.806903451725862624e+02 5.505632671498923302e-05
7.815907953976987983e+02 5.528032328957806359e-05
7.824912456228113342e+02 5.498017255627031703e-05
7.833916958479238701e+02 5.476310272370578668e-05
7.842921460730365197e+02 5.494405449040372678e-05
7.851925962981490557e+02 5.533811288630327590e-05
7.860930465232615916e+02 5.576963033160706732e-05
7.869934967483741275e+02 5.641555368093870436e-05
7.878939469734866634e+02 5.743383145124987429e-05
7.887943971985993130e+02 5.868069241867698160e-05
7.896948474237118489e+02 5.986212664673179511e-05
7.905952976488243849e+02 6.055236388162007257e-05
7.914957478739369208e+02 6.045058950951840213e-05
7.923961980990494567e+02 5.976012500844547992e-05
7.932966483241619926e+02 5.899568444570643075e-05
7.941970985492746422e+02 5.855021692507616187e-05
7.950975487743871781e+02 5.838996480150190059e-05
7.959979989994997140e+02 5.817172478220920042e-05
7.968984492246122500e+02 5.757845165212270095e-05
7.977988994497247859e+02 5.661425170383444183e-05
7.986993496748374355e+02 5.558787493764216807e-05
7.995997998999499714e+02 5.477840360096520596e-05
8.005002501250625073e+02 5.417628576675741626e-05
8.014007003501750432e+02 5.373400975869237325e-05
8.023011505752875792e+02 5.359089741497367264e-05
8.032016008004001151e+02 5.382367516887322565e-05
8.041020510255127647e+02 5.433724763526789420e-05
8.050025012506253006e+02 5.500276587739198254e-05
8.059029514757378365e+02 5.584065443147723115e-05
8.068034017008503724e+02 5.684085781827960976e-05
8.077038519259629084e+02 5.775293038547928278e-05
8.086043021510754443e+02 5.818127306062407004e-05
8.095047523761880939e+02 5.781301798408361345e-05
8.104052026013006298e+02 5.681297535788433370e-05
8.113056528264131657e+02 5.576900805512092254e-05
8.122061030515257016e+02 5.516355430940061272e-05
8.131065532766382375e+02 5.510830825991480165e-05
8.140070035017508872e+02 5.545979047577395427e-05
8.149074537268634231e+02 5.608170355193147649e-05
8.158079039519759590e+02 5.679372255565119925e-05
8.167083541770884949e+02 5.744616788020632386e-05
8.176088044022010308e+02 5.812853578171997814e-05
8.185092546273135667e+02 5.889043716474417692e-05
8.194097048524262163e+02 5.961313346172582203e-05
8.203101550775387523e+02 6.025528087219931682e-05
8.212106053026512882e+02 6.095735217712068338e-05
8.221110555277638241e+02 6.178033687254270024e-05
8.230115057528763600e+02 6.232636252768308403e-05
8.239119559779890096e+02 6.214821441236163314e-05
8.248124062031015455e+02 6.146739176049467669e-05
8.257128564282140815e+02 6.080722771365809924e-05
8.266133066533266174e+02 6.035425550613106918e-05
8.275137568784391533e+02 6.001086290582156819e-05
8.284142071035516892e+02 5.983161001371389598e-05
8.293146573286643388e+02 5.996848637623527941e-05
8.302151075537768747e+02 6.034221215896988912e-05
8.311155577788894107e+02 6.075582793420136447e-05
8.320160080040019466e+02 6.110404498857244086e-05
8.329164582291144825e+02 6.130586567138946743e-05
8.338169084542270184e+02 6.116448425316618428e-05
8.347173586793396680e+02 6.059087575190202760e-05
8.356178089044522039e+02 5.971392119810679832e-05
8.365182591295647399e+02 5.871927802389799634e-05
8.374187093546772758e+02 5.784591979188528823e-05
8.383191595797898117e+02 5.730938850715881999e-05
8.392196098049024613e+02 5.710193856310875714e-05
8.401200600300149972e+02 5.711090060753972348e-05
8.410205102551275331e+02 5.735000070779737810e-05
8.419209604802400690e+02 5.783282450099614801e-05
8.428214107053526050e+02 5.841223948050584260e-05
8.437218609304651409e+02 5.891142967354574518e-05
8.446223111555777905e+02 5.922016530963139990e-05
8.455227613806903264e+02 5.933231756824689364e-05
8.464232116058028623e+02 5.930510536118161423e-05
8.473236618309153982e+02 5.916085783328989229e-05
8.482241120560279342e+02 5.900304019740218724e-05
8.491245622811405838e+02 5.913759701135666493e-05
8.500250125062531197e+02 5.976477912967899934e-05
8.509254627313656556e+02 6.085126510570088460e-05
8.518259129564781915e+02 6.227743146496320440e-05
8.527263631815907274e+02 6.387814962925604826e-05
8.536268134067032634e+02 6.544661461472334261e-05
8.545272636318159130e+02 6.682374513865468391e-05
8.554277138569284489e+02 6.792340591669924002e-05
8.563281640820409848e+02 6.856295162603322181e-05
8.572286143071535207e+02 6.860158051267794253e-05
8.581290645322660566e+02 6.801605764673197276e-05
8.590295147573785925e+02 6.675304981748671359e-05
8.599299649824912422e+02 6.490710577821501108e-05
8.608304152076037781e+02 6.275030003156128913e-05
8.617308654327163140e+02 6.075294953268437674e-05
8.626313156578288499e+02 5.945094097610309562e-05
8.635317658829413858e+02 5.918176044632406937e-05
8.644322161080540354e+02 5.990336636398325770e-05
8.653326663331665713e+02 6.114288762306256697e-05
8.662331165582791073e+02 6.232574815903689015e-05
8.671335667833916432e+02 6.318215306010468990e-05
8.680340170085041791e+02 6.374849273259422825e-05
8.689344672336167150e+02 6.392874612128945564e-05
8.698349174587293646e+02 6.335543005580636117e-05
8.707353676838419005e+02 6.208069183938230728e-05
8.716358179089544365e+02 6.080278469725315768e-05
8.725362681340669724e+02 6.017151923368690687e-05
8.734367183591795083e+02 6.038720503973570177e-05
8.743371685842921579e+02 6.136246579085513197e-05
8.752376188094046938e+02 6.290626309955182622e-05
8.761380690345172297e+02 6.492318375928245037e-05
8.770385192596297657e+02 6.741430902775499346e-05
8.779389694847423016e+02 7.011640804886001843e-05
8.788394197098548375e+02 7.244403469555220343e-05
8.797398699349674871e+02 7.395927988134759132e-05
8.806403201600800230e+02 7.456901603746783245e-05
8.815407703851925589e+02 7.432976599652888752e-05
8.824412206103050949e+02 7.342886199551163374e-05
8.833416708354176308e+02 7.222077643218956157e-05
8.842421210605301667e+02 7.108560480171089780e-05
8.851425712856428163e+02 7.027472021105732173e-05
8.860430215107553522e+02 6.988913645455600940e-05
8.869434717358678881e+02 6.997915986133765689e-05
8.878439219609804240e+02 7.049129193665306075e-05
8.887443721860929600e+02 7.118212894922972271e-05
8.896448224112056096e+02 7.164438895493049962e-05
8.905452726363181455e+02 7.177506721376298053e-05
8.914457228614306814e+02 7.205427332155093720e-05
8.923461730865432173e+02 7.289104814776723059e-05
8.932466233116557532e+02 7.431695584048407174e-05
8.941470735367682892e+02 7.606645556246688670e-05
8.950475237618809388e+02 7.776063059572606881e-05
8.959479739869934747e+02 7.923031652679491266e-05
8.968484242121060106e+02 8.059515569415473600e-05
8.977488744372185465e+02 8.197302585186883224e-05
8.986493246623310824e+02 8.309380575947392588e-05
8.995497748874437320e+02 8.370079718614457215e-05
9.004502251125562680e+02 8.385620494491232346e-05
9.013506753376688039e+02 8.377998714610906201e-05
9.022511255627813398e+02 8.370218656424124816e-05
9.031515757878938757e+02 8.376361966273829424e-05
9.040520260130064116e+02 8.390510975087486886e-05
9.049524762381190612e+02 8.418430970212060344e-05
9.058529264632315972e+02 8.487207147305472538e-05
9.067533766883441331e+02 8.609577654045193098e-05
9.076538269134566690e+02 8.766102961885462348e-05
9.085542771385692049e+02 8.926197423626055106e-05
9.094547273636817408e+02 9.084580152527048694e-05
9.103551775887943904e+02 9.242760011323064866e-05
9.112556278139069263e+02 9.378559670070628557e-05
9.121560780390194623e+02 9.453327338574830908e-05
9.130565282641319982e+02 9.428808297368715483e-05
9.139569784892445341e+02 9.325409439601735492e-05
9.148574287143571837e+02 9.251131885728997310e-05
9.157578789394697196e+02 9.313140928977263304e-05
9.166583291645822555e+02 9.525408933244395519e-05
9.175587793896947915e+02 9.803781818535775908e-05
9.184592296148073274e+02 1.003761953832737851e-04
9.193596798399198633e+02 1.017663194687576963e-04
9.202601300650325129e+02 1.022392067526236832e-04
9.211605802901450488e+02 1.017358293900101358e-04
9.220610305152575847e+02 1.003572844906550207e-04
9.229614807403701207e+02 9.876370660622577730e-05
9.238619309654826566e+02 9.769913383902336106e-05
9.247623811905953062e+02 9.734835218830014715e-05
9.256628314157078421e+02 9.729241160043123140e-05
9.265632816408203780e+02 9.693724970474644682e-05
9.274637318659329139e+02 9.615606377637534049e-05
9.283641820910454499e+02 9.523737250661847020e-05
9.292646323161579858e+02 9.430424859986853887e-05
9.301650825412706354e+02 9.337096252838529217e-05
9.310655327663831713e+02 9.261635436307750558e-05
9.319659829914957072e+02 9.226842244524446717e-05
9.328664332166082431e+02 9.231039468484085583e-05
9.337668834417207790e+02 9.263839391073564378e-05
9.346673336668334287e+02 9.325143936206470730e-05
9.355677838919459646e+02 9.407140934676156655e-05
9.364682341170585005e+02 9.490823239413783514e-05
9.373686843421710364e+02 9.564056811009328304e-05
9.382691345672835723e+02 9.628702556206568321e-05
9.391695847923961082e+02 9.704875275713011735e-05
9.400700350175087578e+02 9.806946756816900957e-05
9.409704852426212938e+02 9.928922665630950225e-05
9.418709354677338297e+02 1.006465505447166252e-04
9.427713856928463656e+02 1.020832618537195123e-04
9.436718359179589015e+02 1.035346021048599228e-04
9.445722861430714374e+02 1.052624231553125846e-04
9.454727363681840870e+02 1.075506959642558424e-04
9.463731865932966230e+02 1.102633196203001137e-04
9.472736368184091589e+02 1.129985645789513706e-04
9.481740870435216948e+02 1.153634097956510532e-04
9.490745372686342307e+02 1.171659389627411577e-04
9.499749874937468803e+02 1.187173558243026484e-04
9.508754377188594162e+02 1.205990508306383386e-04
9.517758879439719522e+02 1.225833676617121663e-04
9.526763381690844881e+02 1.239843245471935606e-04
9.535767883941970240e+02 1.247293281817155183e-04
9.544772386193095599e+02 1.251682846735290174e-04
9.553776888444222095e+02 1.255861640675854046e-04
9.562781390695347454e+02 1.258283951649436297e-04
9.571785892946472813e+02 1.252814661012451199e-04
9.580790395197598173e+02 1.236735730886170416e-04
9.589794897448723532e+02 1.216798670943041523e-04
9.598799399699850028e+02 1.201759640464159054e-04
9.607803901950975387e+02 1.195521815141767190e-04
9.616808404202100746e+02 1.198183578310586177e-04
9.625812906453226105e+02 1.208817074820276572e-04
9.634817408704351465e+02 1.224876450023787183e-04
9.643821910955476824e+02 1.243872371106938724e-04
9.652826413206603320e+02 1.264284622163530452e-04
9.661830915457728679e+02 1.280792539605606886e-04
9.670835417708854038e+02 1.287818584036166741e-04
9.679839919959979397e+02 1.288169663743471297e-04
9.688844422211104757e+02 1.292756247340769821e-04
9.697848924462230116e+02 1.310347301543086300e-04
9.706853426713356612e+02 1.339717260220424887e-04
9.715857928964481971e+02 1.370588033025370799e-04
9.724862431215607330e+02 1.391941764348784353e-04
9.733866933466732689e+02 1.401736234324555362e-04
9.742871435717858049e+02 1.406037179280076471e-04
9.751875937968984545e+02 1.417661765919569702e-04
9.760880440220109904e+02 1.446511171444929801e-04
9.769884942471235263e+02 1.486988429875193941e-04
9.778889444722360622e+02 1.523455940668616950e-04
9.787893946973485981e+02 1.543630758814508344e-04
9.796898449224611340e+02 1.544910684983040157e-04
9.805902951475737837e+02 1.534536338332060908e-04
9.814907453726863196e+02 1.526681003228581033e-04
9.823911955977988555e+02 1.534612609943606992e-04
9.832916458229113914e+02 1.559648787753758993e-04
9.841920960480239273e+02 1.592685379374852268e-04
9.850925462731365769e+02 1.623587003829979965e-04
9.859929964982491128e+02 1.645526558892142980e-04
9.868934467233616488e+02 1.654866831876914584e-04
9.877938969484741847e+02 1.651002338899529255e-04
9.886943471735867206e+02 1.639073991152483931e-04
9.895947973986992565e+02 1.624739164230961015e-04
9.904952476238119061e+02 1.615317430539679874e-04
9.913956978489244420e+02 1.621865287544111409e-04
9.922961480740369780e+02 1.648494328017800444e-04
9.931965982991495139e+02 1.686218813412123968e-04
9.940970485242620498e+02 1.722267267399201830e-04
9.949974987493745857e+02 1.754569249709642381e-04
9.958979489744872353e+02 1.788671368905133904e-04
9.967983991995997712e+02 1.820414343856371886e-04
9.976988494247123072e+02 1.842200583132187774e-04
9.985992996498248431e+02 1.855284731953421389e-04
9.994997498749373790e+02 1.862846955413886927e-04
1.000400200100050029e+03 1.862921955636827722e-04
1.001300650325162565e+03 1.851776545201730515e-04
1.002201100550275100e+03 1.829614341101194188e-04
1.003101550775387636e+03 1.800068123428735757e-04
1.004002001000500172e+03 1.771236653368672026e-04
1.004902451225612708e+03 1.754151067995143550e-04
1.005802901450725358e+03 1.753331082759778206e-04
1.006703351675837894e+03 1.764636099503317189e-04
1.007603801900950430e+03 1.782531505062823663e-04
1.008504252126062966e+03 1.803882732419272075e-04
1.009404702351175501e+03 1.829220913831911292e-04
1.010305152576288151e+03 1.859276616859113415e-04
1.011205602801400687e+03 1.891950702037626915e-04
1.012106053026513223e+03 1.928934305483810164e-04
1.013006503251625759e+03 1.971358588469565001e-04
1.013906953476738295e+03 2.012682188293212252e-04
1.014807403701850831e+03 2.045558906155508269e-04
1.015707853926963480e+03 2.068776744942763001e-04
1.016608304152076016e+03 2.088272870122206558e-04
1.017508754377188552e+03 2.109923612526209318e-04
1.018409204602301088e+03 2.134496524746115262e-04
1.019309654827413624e+03 2.161505510450935569e-04
1.020210105052526160e+03 2.190376139772996084e-04
1.021110555277638809e+03 2.219014338840395793e-04
1.022011005502751345e+03 2.245869695719544150e-04
1.022911455727863881e+03 2.274353906322850978e-04
1.023811905952976417e+03 2.306131701484436024e-04
1.024712356178089067e+03 2.336935142466579115e-04
1.025612806403201603e+03 2.368971025570547730e-04
1.026513256628314139e+03 2.404377439153497606e-04
1.027413706853426675e+03 2.436103274481539395e-04
1.028314157078539210e+03 2.455303418817875714e-04
1.029214607303651746e+03 2.459728225221378657e-04
1.030115057528764282e+03 2.452591499355632641e-04
1.031015507753876818e+03 2.442832000524532057e-04
1.031915957978989354e+03 2.440500995180471466e-04
1.032816408204101890e+03 2.445782201988185587e-04
1.033716858429214653e+03 2.453034881574161748e-04
1.034617308654327189e+03 2.464978928803235867e-04
1.035517758879439725e+03 2.488855138712287311e-04
1.036418209104552261e+03 2.523548931045542770e-04
1.037318659329664797e+03 2.560047070418919367e-04
1.038219109554777333e+03 2.590022138377271322e-04
1.039119559779889869e+03 2.609513624986437757e-04
1.040020010005002405e+03 2.617417022583676278e-04
1.040920460230114941e+03 2.612395133790224771e-04
1.041820910455227477e+03 2.594407912505168720e-04
1.042721360680340013e+03 2.573254089758944714e-04
1.043621810905452776e+03 2.565607002767541426e-04
1.044522261130565312e+03 2.585097488368316015e-04
1.045422711355677848e+03 2.630431144327972991e-04
1.046323161580790384e+03 2.681843673957635303e-04
1.047223611805902920e+03 2.719560904058118613e-04
1.048124062031015455e+03 2.739743901389336540e-04
1.049024512256127991e+03 2.746920445394801687e-04
1.049924962481240527e+03 2.744675534700245041e-04
1.050825412706353063e+03 2.740902502124734617e-04
1.051725862931465599e+03 2.743370694616877438e-04
1.052626313156578135e+03 2.750319691568785729e-04
1.053526763381690898e+03 2.754324883030558014e-04
1.054427213606803434e+03 2.750433553209171008e-04
1.055327663831915970e+03 2.739579958374489268e-04
1.056228114057028506e+03 2.730016632288331650e-04
1.057128564282141042e+03 2.734913754284942289e-04
1.058029014507253578e+03 2.759139755949052892e-04
1.058929464732366114e+03 2.793005654668823156e-04
1.059829914957478650e+03 2.821998499875374533e-04
1.060730365182591186e+03 2.841087164707701749e-04
1.061630815407703722e+03 2.853938187941424016e-04
1.062531265632816257e+03 2.863078639784556951e-04
1.063431715857929021e+03 2.867925270074461069e-04
1.064332166083041557e+03 2.869564223465252066e-04
1.065232616308154093e+03 2.870407768973058898e-04
1.066133066533266629e+03 2.870263635242299369e-04
1.067033516758379164e+03 2.870512246118966005e-04
1.067933966983491700e+03 2.876570380161341594e-04
1.068834417208604236e+03 2.889961583329522408e-04
1.069734867433716772e+03 2.905234905909541963e-04
1.070635317658829308e+03 2.913312565446937253e-04
1.071535767883941844e+03 2.908710931526633180e-04
1.072436218109054380e+03 2.902067185868093522e-04
1.073336668334167143e+03 2.908946510585418599e-04
1.074237118559279679e+03 2.933715969166739742e-04
1.075137568784392215e+03 2.968631250547305346e-04
1.076038019009504751e+03 3.001637937074077330e-04
1.076938469234617287e+03 3.028595563536308033e-04
1.077838919459729823e+03 3.055561328742781085e-04
1.078739369684842359e+03 3.088045916817850896e-04
1.079639819909954895e+03 3.127969398103872326e-04
1.080540270135067431e+03 3.173263751355378582e-04
1.081440720360179967e+03 3.210201452931310279e-04
1.082341170585292502e+03 3.223227971230425352e-04
1.083241620810405038e+03 3.215270469864394244e-04
1.084142071035517802e+03 3.199826103775821502e-04
1.085042521260630338e+03 3.183836781894139605e-04
1.085942971485742873e+03 3.168077480608565903e-04
1.086843421710855409e+03 3.151402026207685740e-04
1.087743871935967945e+03 3.139756198754625662e-04
1.088644322161080481e+03 3.146695485096803898e-04
1.089544772386193017e+03 3.178265899086939986e-04
1.090445222611305553e+03 3.226578356343434706e-04
1.091345672836418089e+03 3.267613149412252368e-04
1.092246123061530625e+03 3.278023657112922803e-04
1.093146573286643161e+03 3.261805104008517076e-04
1.094047023511755924e+03 3.240980346138780475e-04
1.094947473736868460e+03 3.232794656878259132e-04
1.095847923961980996e+03 3.245771354113772536e-04
1.096748374187093532e+03 3.278845370990498805e-04
1.097648824412206068e+03 3.324868143107645446e-04
1.098549274637318604e+03 3.379627866822849892e-04
1.099449724862431140e+03 3.442968685888633351e-04
1.100350175087543676e+03 3.512636860933009749e-04
1.101250625312656211e+03 3.579962798732642861e-04
1.102151075537768747e+03 3.640130466395188522e-04
1.103051525762881283e+03 3.693129514574435977e-04
1.103951975987994047e+03 3.737368752961171088e-04
1.104852426213106583e+03 3.773364463211529218e-04
1.105752876438219118e+03 3.802871639651340995e-04
1.106653326663331654e+03 3.821440242257635451e-04
1.107553776888444190e+03 3.815539451983984698e-04
1.108454227113556726e+03 3.787337059495534471e-04
1.109354677338669262e+03 3.751819532340760761e-04
1.110255127563781798e+03 3.714996313095921291e-04
1.111155577788894334e+03 3.680217103008026104e-04
1.112056028014006870e+03 3.649228416936279901e-04
1.112956478239119406e+03 3.620177806139416102e-04
1.113856928464232169e+03 3.598474837310064217e-04
1.114757378689344705e+03 3.594338118701843475e-04
1.115657828914457241e+03 3.604758038983111126e-04
1.116558279139569777e+03 3.609352605206249832e-04
1.117458729364682313e+03 3.596945339925768028e-04
1.118359179589794849e+03 3.584145267422604196e-04
1.119259629814907385e+03 3.590681445221301422e-04
1.120160080040019920e+03 3.615305761278565116e-04
1.121060530265132456e+03 3.645257123336550446e-04
1.121960980490244992e+03 3.677381765110938222e-04
1.122861430715357528e+03 3.719892371163289373e-04
1.123761880940470292e+03 3.772847035038120371e-04
1.124662331165582827e+03 3.822228877471282372e-04
1.125562781390695363e+03 3.858911352626205713e-04
1.126463231615807899e+03 3.893005591649349793e-04
1.127363681840920435e+03 3.932641063631516789e-04
1.128264132066032971e+03 3.977262579920335457e-04
1.129164582291145507e+03 4.031438935608726054e-04
1.130065032516258043e+03 4.098698234623732563e-04
1.130965482741370579e+03 4.182428442230750579e-04
1.131865932966483115e+03 4.285038127326997164e-04
1.132766383191595651e+03 4.407842274701653166e-04
1.133666833416708187e+03 4.544589265895929001e-04
1.134567283641820950e+03 4.675044366127333690e-04
1.135467733866933486e+03 4.788123867836072134e-04
1.136368184092046022e+03 4.895434415997903166e-04
1.137268634317158558e+03 5.019720352191211826e-04
1.138169084542271094e+03 5.164971609778014946e-04
1.139069534767383630e+03 5.307558893966479599e-04
1.139969984992496165e+03 5.424971485747439454e-04
1.140870435217608701e+03 5.522438056822667838e-04
1.141770885442721237e+03 5.637403135339303381e-04
1.142671335667833773e+03 5.820357857600275261e-04
1.143571785892946309e+03 6.105869602911692673e-04
1.144472236118059072e+03 6.503378951793516161e-04
1.145372686343171608e+03 7.013625623343038755e-04
1.146273136568284144e+03 7.620542108436811294e-04
1.147173586793396680e+03 8.271204801697558265e-04
1.148074037018509216e+03 8.910369326511995407e-04
1.148974487243621752e+03 9.528100005897337807e-04
1.149874937468734288e+03 1.012881034245091552e-03
1.150775387693846824e+03 1.072649965142854480e-03
1.151675837918959360e+03 1.136985119028624709e-03
1.152576288144071896e+03 1.208330611263915000e-03
1.153476738369184432e+03 1.287967388871388754e-03
1.154377188594297195e+03 1.383998931099184081e-03
1.155277638819409731e+03 1.504714812151637703e-03
1.156178089044522267e+03 1.644867522299534078e-03
1.157078539269634803e+03 1.788935889685295448e-03
1.157978989494747339e+03 1.922876026108651928e-03
1.158879439719859874e+03 2.038747462326147460e-03
1.159779889944972410e+03 2.133528574961037535e-03
1.160680340170084946e+03 2.205517665727233911e-03
1.161580790395197482e+03 2.263491199399628173e-03
1.162481240620310018e+03 2.325127623745807358e-03
1.163381690845422554e+03 2.397469477517531755e-03
1.164282141070535317e+03 2.472719445673846744e-03
1.165182591295647853e+03 2.535167232273453138e-03
1.166083041520760389e+03 2.564187003134146478e-03
1.166983491745872925e+03 2.543775981682539367e-03
1.167883941970985461e+03 2.478819499819841926e-03
1.168784392196097997e+03 2.388811984130669551e-03
1.169684842421210533e+03 2.288117154602725255e-03
1.170585292646323069e+03 2.184927265244207811e-03
1.171485742871435605e+03 2.084865516581971626e-03
1.172386193096548141e+03 1.988458740565256493e-03
1.173286643321660677e+03 1.894680960719666079e-03
1.174187093546773440e+03 1.798135254383316029e-03
1.175087543771885976e+03 1.696315022685857639e-03
1.175987993996998512e+03 1.596412427411790166e-03
1.176888444222111048e+03 1.509202634735462827e-03
1.177788894447223583e+03 1.439395810528532093e-03
1.178689344672336119e+03 1.384809379717389776e-03
1.179589794897448655e+03 1.344817290236853752e-03
1.180490245122561191e+03 1.315374050352524247e-03
1.181390695347673727e+03 1.287925062818227060e-03
1.182291145572786263e+03 1.257965472326051746e-03
1.183191595797898799e+03 1.224990843135351703e-03
1.184092046023011562e+03 1.189667586795462636e-03
1.184992496248124098e+03 1.154475294958634416e-03
1.185892946473236634e+03 1.125113058330789485e-03
1.186793396698349170e+03 1.105921460764181094e-03
1.187693846923461706e+03 1.097595818504237515e-03
1.188594297148574242e+03 1.098905980179969806e-03
1.189494747373686778e+03 1.107421982775681508e-03
1.190395197598799314e+03 1.118839426089383339e-03
1.191295647823911850e+03 1.129165783501298245e-03
1.192196098049024386e+03 1.136995741714458318e-03
1.193096548274136921e+03 1.142394371614592749e-03
1.193996998499249457e+03 1.145261253162866170e-03
1.194897448724362221e+03 1.145101199663457791e-03
1.195797898949474757e+03 1.140378295896589400e-03
1.196698349174587293e+03 1.131821357885474597e-03
1.197598799399699828e+03 1.121087082532422298e-03
1.198499249624812364e+03 1.107142935840902797e-03
1.199399699849924900e+03 1.090508516544657974e-03
1.200300150075037436e+03 1.073698738297266739e-03
1.201200600300149972e+03 1.057245469647818308e-03
1.202101050525262508e+03 1.040418794537845658e-03
1.203001500750375044e+03 1.023427812175843003e-03
1.203901950975487580e+03 1.005031920281468198e-03
1.204802401200600343e+03 9.837109513509338481e-04
1.205702851425712879e+03 9.615885530264418977e-04
1.206603301650825415e+03 9.432438374814061319e-04
1.207503751875937951e+03 9.302368956385198128e-04
1.208404202101050487e+03 9.179858604800827633e-04
1.209304652326163023e+03 9.013805819721047502e-04
1.210205102551275559e+03 8.815754283737628960e-04
1.211105552776388095e+03 8.639242529190751868e-04
1.212006003001500630e+03 8.519511137725583119e-04
1.212906453226613166e+03 8.456175433137157454e-04
1.213806903451725702e+03 8.434562421372858313e-04
1.214707353676838466e+03 8.401671672699822157e-04
1.215607803901951002e+03 8.276522965760422720e-04
1.216508254127063537e+03 8.054214070552507924e-04
1.217408704352176073e+03 7.804823766527739515e-04
1.218309154577288609e+03 7.583605404246848442e-04
1.219209604802401145e+03 7.418248455869480952e-04
1.220110055027513681e+03 7.327128364568434062e-04
1.221010505252626217e+03 7.333644563479033889e-04
1.221910955477738753e+03 7.456662317342877639e-04
1.222811405702851289e+03 7.676897764398893809e-04
1.223711855927963825e+03 7.935123496394590019e-04
1.224612306153076588e+03 8.146563901456169588e-04
1.225512756378189124e+03 8.221581199450587931e-04
1.226413206603301660e+03 8.150577599490450983e-04
1.227313656828414196e+03 8.002454191943450274e-04
1.228214107053526732e+03 7.844605276298961078e-04
1.229114557278639268e+03 7.750984981434739509e-04
1.230015007503751804e+03 7.754364503065929110e-04
1.230915457728864340e+03 7.764730547359438226e-04
1.231815907953976875e+03 7.663201928191124782e-04
1.232716358179089411e+03 7.464503321295385633e-04
1.233616808404201947e+03 7.271283751315824355e-04
1.234517258629314711e+03 7.146320905214213976e-04
1.235417708854427246e+03 7.078144660814404470e-04
1.236318159079539782e+03 7.026825592393261179e-04
1.237218609304652318e+03 6.969940758941276134e-04
1.238119059529764854e+03 6.922034018227691361e-04
1.239019509754877390e+03 6.915534318995830709e-04
1.239919959979989926e+03 6.962034257115990582e-04
1.240820410205102462e+03 7.058211850096464141e-04
1.241720860430214998e+03 7.209520610723973207e-04
1.242621310655327534e+03 7.417384627206474214e-04
1.243521760880440070e+03 7.654256760492009117e-04
1.244422211105552606e+03 7.867240799310401241e-04
1.245322661330665369e+03 8.012956636558403976e-04
1.246223111555777905e+03 8.098887415055542596e-04
1.247123561780890441e+03 8.164227509155332291e-04
1.248024012006002977e+03 8.227842445058771489e-04
1.248924462231115513e+03 8.300967986103060343e-04
1.249824912456228049e+03 8.404556765760955389e-04
1.250725362681340584e+03 8.543157965398625198e-04
1.251625812906453120e+03 8.701567977993751417e-04
1.252526263131565656e+03 8.859865830276715624e-04
1.253426713356678192e+03 8.999511774184179190e-04
1.254327163581790728e+03 9.118776798173956928e-04
1.255227613806903491e+03 9.229746232475132938e-04
1.256128064032016027e+03 9.336336734803485403e-04
1.257028514257128563e+03 9.430058575724127286e-04
1.257928964482241099e+03 9.492648548659248040e-04
1.258829414707353635e+03 9.517233682104114020e-04
1.259729864932466171e+03 9.528312984962101833e-04
1.260630315157578707e+03 9.561371692548835703e-04
1.261530765382691243e+03 9.637532652687888415e-04
1.262431215607803779e+03 9.761094212297257572e-04
1.263331665832916315e+03 9.920822470608397017e-04
1.264232116058028851e+03 1.010245545847539370e-03
1.265132566283141614e+03 1.030816153730243967e-03
1.266033016508254150e+03 1.053909733202697350e-03
1.266933466733366686e+03 1.078710568999390659e-03
1.267833916958479222e+03 1.103977404109877198e-03
1.268734367183591758e+03 1.127656586579384992e-03
1.269634817408704293e+03 1.150442694519399891e-03
1.270535267633816829e+03 1.177217414109017844e-03
1.271435717858929365e+03 1.211799823249178846e-03
1.272336168084041901e+03 1.252947032440467328e-03
1.273236618309154437e+03 1.294986999745730786e-03
1.274137068534266973e+03 1.331443439254188874e-03
1.275037518759379736e+03 1.360183864960519276e-03
1.275937968984492272e+03 1.383644812245742517e-03
1.276838419209604808e+03 1.404285967712236207e-03
1.277738869434717344e+03 1.422330224916395049e-03
1.278639319659829880e+03 1.438303061541422066e-03
1.279539769884942416e+03 1.455019996024908488e-03
1.280440220110054952e+03 1.476174220754005589e-03
1.281340670335167488e+03 1.503943116301079651e-03
1.282241120560280024e+03 1.537317149510170370e-03
1.283141570785392560e+03 1.572214260404393308e-03
1.284042021010505096e+03 1.604333178638981533e-03
1.284942471235617859e+03 1.631765141356974818e-03
1.285842921460730395e+03 1.653374545529677844e-03
1.286743371685842931e+03 1.670091159705966400e-03
1.287643821910955467e+03 1.684622534794861593e-03
1.288544272136068003e+03 1.698628765300243303e-03
1.289444722361180538e+03 1.714025729239021479e-03
1.290345172586293074e+03 1.732646762024548292e-03
1.291245622811405610e+03 1.752367901005127395e-03
1.292146073036518146e+03 1.768493421871534773e-03
1.293046523261630682e+03 1.780948153432267839e-03
1.293946973486743218e+03 1.794257979137781327e-03
1.294847423711855754e+03 1.811547212066405609e-03
1.295747873936968517e+03 1.831994445156517968e-03
1.296648324162081053e+03 1.851675976103728553e-03
1.297548774387193589e+03 1.868392166526724237e-03
1.298449224612306125e+03 1.883370664756465465e-03
1.299349674837418661e+03 1.896823826769582656e-03
1.300250125062531197e+03 1.908670745885718972e-03
1.301150575287643733e+03 1.923053711123433665e-03
1.302051025512756269e+03 1.944962583531744576e-03
1.302951475737868805e+03 1.973846391790913968e-03
1.303851925962981340e+03 2.004672091334672775e-03
1.304752376188093876e+03 2.031616948759431673e-03
1.305652826413206640e+03 2.050586739650865371e-03
1.306553276638319176e+03 2.062312159528719834e-03
1.307453726863431712e+03 2.074266767692525826e-03
1.308354177088544247e+03 2.096277582279522465e-03
1.309254627313656783e+03 2.131529430058799832e-03
1.310155077538769319e+03 2.174660030892412027e-03
1.311055527763881855e+03 2.217678233961055227e-03
1.311955977988994391e+03 2.254399495335564912e-03
1.312856428214106927e+03 2.282407533705803696e-03
1.313756878439219463e+03 2.306149054389974255e-03
1.314657328664331999e+03 2.333205175745469481e-03
1.315557778889444762e+03 2.366892498327120668e-03
1.316458229114557298e+03 2.406572803466238038e-03
1.317358679339669834e+03 2.449454563012442871e-03
1.318259129564782370e+03 2.490059610516810046e-03
1.319159579789894906e+03 2.525333048760709711e-03
1.320060030015007442e+03 2.556621740240028803e-03
1.320960480240119978e+03 2.587002257282209564e-03
1.321860930465232514e+03 2.617625178201574317e-03
1.322761380690345050e+03 2.651871103636989704e-03
1.323661830915457585e+03 2.696376908610218209e-03
1.324562281140570121e+03 2.755332517120360949e-03
1.325462731365682885e+03 2.830819472811962369e-03
1.326363181590795421e+03 2.922196538028643941e-03
1.327263631815907956e+03 3.023850121545850443e-03
1.328164082041020492e+03 3.128094393138227802e-03
1.329064532266133028e+03 3.231300167133129703e-03
1.329964982491245564e+03 3.329769683425338675e-03
1.330865432716358100e+03 3.416727927942054838e-03
1.331765882941470636e+03 3.490891235180237570e-03
1.332666333166583172e+03 3.556305413464238598e-03
1.333566783391695708e+03 3.615310255068099506e-03
1.334467233616808244e+03 3.670586178947241995e-03
1.335367683841921007e+03 3.727849991448496745e-03
1.336268134067033543e+03 3.788652787741803203e-03
1.337168584292146079e+03 3.844167905953315301e-03
1.338069034517258615e+03 3.888207135197541391e-03
1.338969484742371151e+03 3.933835300893809978e-03
1.339869934967483687e+03 4.003025859534359819e-03
1.340770385192596223e+03 4.105076399410628740e-03
1.341670835417708759e+03 4.235970764903214045e-03
1.342571285642821294e+03 4.387096716642639380e-03
1.343471735867933830e+03 4.547569469011215719e-03
1.344372186093046366e+03 4.708892315613408784e-03
1.345272636318158902e+03 4.869484128656537125e-03
1.346173086543271666e+03 5.026365460668837798e-03
1.347073536768384201e+03 5.177245048864293278e-03
1.347973986993496737e+03 5.329257679438468599e-03
1.348874437218609273e+03 5.483988154945306989e-03
1.349774887443721809e+03 5.635919101030463160e-03
1.350675337668834345e+03 5.782603691249985946e-03
1.351575787893946881e+03 5.924984693452499743e-03
1.352476238119059417e+03 6.062661009798742985e-03
1.353376688344171953e+03 6.190732623134993264e-03
1.354277138569284489e+03 6.309583931716072035e-03
1.355177588794397025e+03 6.430287814074350274e-03
1.356078039019509788e+03 6.565342766215607508e-03
1.356978489244622324e+03 6.720282083316958532e-03
1.357878939469734860e+03 6.899305197641008268e-03
1.358779389694847396e+03 7.111523338796864498e-03
1.359679839919959932e+03 7.358081478094727693e-03
1.360580290145072468e+03 7.617372901534403412e-03
1.361480740370185003e+03 7.854121027755697412e-03
1.362381190595297539e+03 8.046224738379034389e-03
1.363281640820410075e+03 8.209538719039066734e-03
1.364182091045522611e+03 8.393441484693934043e-03
1.365082541270635147e+03 8.640730453131406641e-03
1.365982991495747910e+03 8.958630399734126420e-03
1.366883441720860446e+03 9.307609913647834146e-03
1.367783891945972982e+03 9.625490427731970070e-03
1.368684342171085518e+03 9.890005096637647861e-03
1.369584792396198054e+03 1.013588534410668658e-02
1.370485242621310590e+03 1.040862549774295223e-02
1.371385692846423126e+03 1.071764662343930793e-02
1.372286143071535662e+03 1.104361972130380246e-02
1.373186593296648198e+03 1.138130762460623502e-02
1.374087043521760734e+03 1.177432547659793168e-02
1.374987493746873270e+03 1.225966815391140753e-02
1.375887943971986033e+03 1.279755653782419997e-02
1.376788394197098569e+03 1.331163307480172538e-02
1.377688844422211105e+03 1.376699510449956067e-02
1.378589294647323641e+03 1.417528030119055010e-02
1.379489744872436177e+03 1.455067555605137758e-02
1.380390195097548713e+03 1.489128825152775774e-02
1.381290645322661248e+03 1.520338767051985368e-02
1.382191095547773784e+03 1.551476810483880080e-02
1.383091545772886320e+03 1.587072326061573016e-02
1.383991995997998856e+03 1.628750453081295388e-02
1.384892446223111392e+03 1.669869126465120882e-02
1.385792896448224155e+03 1.703361441796869685e-02
1.386693346673336691e+03 1.731098761625868634e-02
1.387593796898449227e+03 1.759267470385005722e-02
1.388494247123561763e+03 1.792667375684267247e-02
1.389394697348674299e+03 1.832248600035574909e-02
1.390295147573786835e+03 1.871066474870380913e-02
1.391195597798899371e+03 1.900608743863079625e-02
1.392096048024011907e+03 1.925099327511884187e-02
1.392996498249124443e+03 1.950175326963556749e-02
1.393896948474236979e+03 1.968181434900271101e-02
1.394797398699349515e+03 1.972981422790658079e-02
1.395697848924462278e+03 1.967577520434866598e-02
1.396598299149574814e+03 1.954233953710430433e-02
1.397498749374687350e+03 1.932400818938647541e-02
1.398399199599799886e+03 1.902695971354097584e-02
1.399299649824912422e+03 1.868431359710171283e-02
1.400200100050024957e+03 1.833361647579716258e-02
1.401100550275137493e+03 1.801608369833590170e-02
1.402001000500250029e+03 1.778372937331815229e-02
1.402901450725362565e+03 1.766185396585057132e-02
1.403801900950475101e+03 1.763078484351199293e-02
1.404702351175587637e+03 1.764812157513934165e-02
1.405602801400700173e+03 1.767958817534289601e-02
1.406503251625812936e+03 1.767864213593239864e-02
1.407403701850925472e+03 1.759735092875783571e-02
1.408304152076038008e+03 1.746636327095931612e-02
1.409204602301150544e+03 1.736434309088067188e-02
1.410105052526263080e+03 1.734599396588412321e-02
1.411005502751375616e+03 1.740532517680836236e-02
1.411905952976488152e+03 1.747677530831628565e-02
1.412806403201600688e+03 1.748751097425526799e-02
1.413706853426713224e+03 1.737992289954022607e-02
1.414607303651825760e+03 1.711510341364379933e-02
1.415507753876938295e+03 1.669131480088685213e-02
1.416408204102051059e+03 1.616005227146665238e-02
1.417308654327163595e+03 1.561586522882811058e-02
1.418209104552276131e+03 1.514169375905170117e-02
1.419109554777388666e+03 1.477761269191035266e-02
1.420010005002501202e+03 1.451599145867406813e-02
1.420910455227613738e+03 1.427790342579309500e-02
1.421810905452726274e+03 1.395276305202378109e-02
1.422711355677838810e+03 1.350092919431043065e-02
1.423611805902951346e+03 1.297899035649158553e-02
1.424512256128063882e+03 1.249264340569764681e-02
1.425412706353176418e+03 1.213267508616538461e-02
1.426313156578289181e+03 1.190407264078667884e-02
1.427213606803401717e+03 1.174666974246144080e-02
1.428114057028514253e+03 1.160615326159284907e-02
1.429014507253626789e+03 1.145187628640452829e-02
1.429914957478739325e+03 1.126762021692499782e-02
1.430815407703851861e+03 1.105798209436603848e-02
1.431715857928964397e+03 1.083249180705641614e-02
1.432616308154076933e+03 1.060274952827531918e-02
1.433516758379189469e+03 1.039297669499485675e-02
1.434417208604302004e+03 1.020885392895449877e-02
1.435317658829414540e+03 9.999251529886062778e-03
1.436218109054527304e+03 9.714095926610153905e-03
1.437118559279639840e+03 9.384660456118146254e-03
1.438019009504752376e+03 9.070892357008558671e-03
1.438919459729864911e+03 8.802511215215419113e-03
1.439819909954977447e+03 8.583124079377736290e-03
1.440720360180089983e+03 8.392476980150375201e-03
1.441620810405202519e+03 8.192126730521574751e-03
1.442521260630315055e+03 7.952205301233297371e-03
1.443421710855427591e+03 7.669990412719998596e-03
1.444322161080540127e+03 7.376480997407299477e-03
1.445222611305652663e+03 7.110507963751181576e-03
1.446123061530765426e+03 6.890598875692790365e-03
1.447023511755877962e+03 6.717532798474448036e-03
1.447923961980990498e+03 6.576284398635915025e-03
1.448824412206103034e+03 6.450223784651993274e-03
1.449724862431215570e+03 6.329330313506598485e-03
1.450625312656328106e+03 6.191568656909954976e-03
1.451525762881440642e+03 6.012891524805856133e-03
1.452426213106553178e+03 5.801855748637210243e-03
1.453326663331665713e+03 5.595128174544405399e-03
1.454227113556778249e+03 5.411305051736590641e-03
1.455127563781890785e+03 5.238830031321035918e-03
1.456028014007003321e+03 5.063659557982654741e-03
1.456928464232116085e+03 4.883392493476123100e-03
1.457828914457228620e+03 4.702980534642328507e-03
1.458729364682341156e+03 4.535702967471512588e-03
1.459629814907453692e+03 4.393791351369555169e-03
1.460530265132566228e+03 4.282242503276420878e-03
1.461430715357678764e+03 4.199165347078518198e-03
1.462331165582791300e+03 4.131653794935179203e-03
1.463231615807903836e+03 4.062864415313138279e-03
1.464132066033016372e+03 3.992542222161967608e-03
1.465032516258128908e+03 3.929535488659380814e-03
1.465932966483241444e+03 3.875271623407072503e-03
1.466833416708354207e+03 3.818883745336829495e-03
1.467733866933466743e+03 3.744577819514984755e-03
1.468634317158579279e+03 3.653801658935144220e-03
1.469534767383691815e+03 3.557544461818149852e-03
1.470435217608804351e+03 3.455061358860277154e-03
1.471335667833916887e+03 3.344563755862441697e-03
1.472236118059029423e+03 3.236119101726910724e-03
1.473136568284141958e+03 3.140917863547480933e-03
1.474037018509254494e+03 3.057977819308196725e-03
1.474937468734367030e+03 2.973817407710748536e-03
1.475837918959479566e+03 2.876229764001321954e-03
1.476738369184592329e+03 2.770240967735462280e-03
1.477638819409704865e+03 2.673992260220860954e-03
1.478539269634817401e+03 2.600548760932031196e-03
1.479439719859929937e+03 2.551291244314951318e-03
1.480340170085042473e+03 2.522050209404329019e-03
1.481240620310155009e+03 2.507514421164291560e-03
1.482141070535267545e+03 2.497309808724838907e-03
1.483041520760380081e+03 2.472269628883570249e-03
1.483941970985492617e+03 2.416001197926645212e-03
1.484842421210605153e+03 2.333142510864450857e-03
1.485742871435717689e+03 2.243970279212475268e-03
1.486643321660830452e+03 2.165302208238646404e-03
1.487543771885942988e+03 2.104452465738543363e-03
1.488444222111055524e+03 2.062008917864855892e-03
1.489344672336168060e+03 2.035026990915642185e-03
1.490245122561280596e+03 2.014665988077801555e-03
1.491145572786393132e+03 1.987620302606915492e-03
1.492046023011505667e+03 1.947555824236221061e-03
1.492946473236618203e+03 1.903012060300854303e-03
1.493846923461730739e+03 1.863787471054348084e-03
1.494747373686843275e+03 1.828339811796933717e-03
1.495647823911955811e+03 1.792481734560543317e-03
1.496548274137068574e+03 1.755617912733700584e-03
1.497448724362181110e+03 1.719450309832723251e-03
1.498349174587293646e+03 1.688546670986969733e-03
1.499249624812406182e+03 1.670175181495902163e-03
1.500150075037518718e+03 1.666114291826189305e-03
1.501050525262631254e+03 1.668214397440523746e-03
1.501950975487743790e+03 1.664969972447451207e-03
1.502851425712856326e+03 1.648861409973970300e-03
1.503751875937968862e+03 1.619916553590770771e-03
1.504652326163081398e+03 1.585206446967488440e-03
1.505552776388193934e+03 1.553749189382764998e-03
1.506453226613306470e+03 1.527448669843665821e-03
1.507353676838419233e+03 1.504150193371576452e-03
1.508254127063531769e+03 1.486554463577351159e-03
1.509154577288644305e+03 1.474978424715536881e-03
1.510055027513756841e+03 1.463191374588723725e-03
1.510955477738869376e+03 1.446780824737037936e-03
1.511855927963981912e+03 1.425580769748422414e-03
1.512756378189094448e+03 1.401635817432721372e-03
1.513656828414206984e+03 1.378747481668104536e-03
1.514557278639319520e+03 1.358476613477172662e-03
1.515457728864432056e+03 1.340290753859694779e-03
1.516358179089544592e+03 1.329637128872412574e-03
1.517258629314657355e+03 1.333839235858594232e-03
1.518159079539769891e+03 1.349627386774890489e-03
1.519059529764882427e+03 1.363684686248127107e-03
1.519959979989994963e+03 1.365763423826006932e-03
1.520860430215107499e+03 1.358068025232948579e-03
1.521760880440220035e+03 1.347893196760822660e-03
1.522661330665332571e+03 1.340172525665862769e-03
1.523561780890445107e+03 1.335997584673624628e-03
1.524462231115557643e+03 1.333926626598937485e-03
1.525362681340670179e+03 1.333683804177100999e-03
1.526263131565782714e+03 1.335717013267762260e-03
1.527163581790895478e+03 1.343318831355277618e-03
1.528064032016008014e+03 1.357890662000246339e-03
1.528964482241120550e+03 1.372081185335761316e-03
1.529864932466233086e+03 1.374057092836635224e-03
1.530765382691345621e+03 1.358808044071912764e-03
1.531665832916458157e+03 1.329526471118901631e-03
1.532566283141570693e+03 1.289973496119818002e-03
1.533466733366683229e+03 1.244357458024819866e-03
1.534367183591795765e+03 1.199379904756469597e-03
1.535267633816908301e+03 1.159699167146062112e-03
1.536168084042020837e+03 1.126269151730246477e-03
1.537068534267133600e+03 1.096525266266091961e-03
1.537968984492246136e+03 1.066766522375985158e-03
1.538869434717358672e+03 1.036995062497381159e-03
1.539769884942471208e+03 1.011510026648983337e-03
1.540670335167583744e+03 9.930840997392565480e-04
1.541570785392696280e+03 9.805247247914380005e-04
1.542471235617808816e+03 9.722540991244011570e-04
1.543371685842921352e+03 9.670944315262984666e-04
1.544272136068033888e+03 9.627279166370243408e-04
1.545172586293146423e+03 9.555835846547634880e-04
1.546073036518258959e+03 9.445759245235108232e-04
1.546973486743371723e+03 9.323297535558833530e-04
1.547873936968484259e+03 9.220230010801534412e-04
1.548774387193596795e+03 9.138734147123682297e-04
1.549674837418709330e+03 9.042406218043754071e-04
1.550575287643821866e+03 8.905208959888346720e-04
1.551475737868934402e+03 8.763426683380137359e-04
1.552376188094046938e+03 8.689950814709624738e-04
1.553276638319159474e+03 8.732147439425504446e-04
1.554177088544272010e+03 8.887926819632145344e-04
1.555077538769384546e+03 9.111259722920564798e-04
1.555977988994497082e+03 9.316352208088528580e-04
1.556878439219609618e+03 9.377641467689149489e-04
1.557778889444722381e+03 9.194618290707693917e-04
1.558679339669834917e+03 8.794901191429224403e-04
1.559579789894947453e+03 8.316581299220362220e-04
1.560480240120059989e+03 7.917414123286133044e-04
1.561380690345172525e+03 7.677094322231259879e-04
1.562281140570285061e+03 7.578938859675928442e-04
1.563181590795397597e+03 7.553802192579976574e-04
1.564082041020510133e+03 7.500123507067990927e-04
1.564982491245622668e+03 7.349095988305028243e-04
1.565882941470735204e+03 7.128873521007401048e-04
1.566783391695847740e+03 6.902541044321278303e-04
1.567683841920960504e+03 6.691986441375461165e-04
1.568584292146073039e+03 6.487995513793255861e-04
1.569484742371185575e+03 6.273692824449644606e-04
1.570385192596298111e+03 6.002155673297366548e-04
1.571285642821410647e+03 5.621909553992538063e-04
1.572186093046523183e+03 5.141594819313566192e-04
1.573086543271635719e+03 4.630697183169762477e-04
1.573986993496748255e+03 4.143910881887575767e-04
1.574887443721860791e+03 3.674842350372014600e-04
1.575787893946973327e+03 3.216592249758743740e-04
1.576688344172085863e+03 2.803164402582476820e-04
1.577588794397198626e+03 2.471660829823825738e-04
1.578489244622311162e+03 2.230089817729487083e-04
1.579389694847423698e+03 2.066334105674176678e-04
1.580290145072536234e+03 1.954057379874933305e-04
1.581190595297648770e+03 1.851550044598841748e-04
1.582091045522761306e+03 1.727709240614549730e-04
1.582991495747873842e+03 1.592539619545200969e-04
1.583891945972986377e+03 1.469920934831792916e-04
1.584792396198098913e+03 1.366633439658935037e-04
1.585692846423211449e+03 1.279991066696604962e-04
1.586593296648323985e+03 1.209327332622178177e-04
1.587493746873436749e+03 1.154133353494874380e-04
1.588394197098549284e+03 1.111412534654227077e-04
1.589294647323661820e+03 1.076179491897577274e-04
1.590195097548774356e+03 1.043103550594536629e-04
1.591095547773886892e+03 1.009369615164894588e-04
1.591995997998999428e+03 9.767897442586732882e-05
1.592896448224111964e+03 9.500606287376014460e-05
1.593796898449224500e+03 9.321437720816678010e-05
1.594697348674337036e+03 9.220084897334232879e-05
1.595597798899449572e+03 9.138669118991549233e-05
1.596498249124562108e+03 9.002192403936409284e-05
1.597398699349674871e+03 8.790103313284782188e-05
1.598299149574787407e+03 8.535357277725475139e-05
1.599199599799899943e+03 8.278750174188354688e-05
1.600100050025012479e+03 8.060506689312027973e-05
1.601000500250125015e+03 7.897507472925118400e-05
1.601900950475237551e+03 7.772595615260243884e-05
1.602801400700350086e+03 7.651993563680549015e-05
1.603701850925462622e+03 7.500177681971434418e-05
1.604602301150575158e+03 7.307962598308624473e-05
1.605502751375687694e+03 7.113738609787237615e-05
1.606403201600800230e+03 6.965506060984355638e-05
1.607303651825912766e+03 6.883172066531966198e-05
1.608204102051025529e+03 6.853994632470824058e-05
1.609104552276138065e+03 6.826288653530293701e-05
1.610005002501250601e+03 6.734677393691226703e-05
1.610905452726363137e+03 6.577525032057802675e-05
1.611805902951475673e+03 6.414746533929195540e-05
1.612706353176588209e+03 6.283861429170337141e-05
1.613606803401700745e+03 6.164192655155328405e-05
1.614507253626813281e+03 6.011477099032517933e-05
1.615407703851925817e+03 5.824553621494968255e-05
1.616308154077038353e+03 5.639885429310965330e-05
1.617208604302150889e+03 5.480294329697370969e-05
1.618109054527263652e+03 5.348134727362490083e-05
1.619009504752376188e+03 5.238622526927026117e-05
1.619909954977488724e+03 5.146616350395140409e-05
1.620810405202601260e+03 5.067247931862640069e-05
1.621710855427713796e+03 4.994292158885752512e-05
1.622611305652826331e+03 4.921343341227344184e-05
1.623511755877938867e+03 4.847556787359301065e-05
1.624412206103051403e+03 4.776972751998264185e-05
1.625312656328163939e+03 4.712432551494033831e-05
1.626213106553276475e+03 4.654488747774507463e-05
1.627113556778389011e+03 4.602958324710619976e-05
1.628014007003501774e+03 4.557849221513207293e-05
1.628914457228614310e+03 4.519677907740203663e-05
1.629814907453726846e+03 4.489640847688610315e-05
1.630715357678839382e+03 4.469857012720776431e-05
1.631615807903951918e+03 4.463784010169208973e-05
1.632516258129064454e+03 4.476872008035446345e-05
1.633416708354176990e+03 4.517383789546145184e-05
1.634317158579289526e+03 4.596624075150740720e-05
1.635217608804402062e+03 4.725260690651044066e-05
1.636118059029514598e+03 4.896337276673466048e-05
1.637018509254627133e+03 5.047902419636652465e-05
1.637918959479739897e+03 5.061439987868178957e-05
1.638819409704852433e+03 4.891150474140205538e-05
1.639719859929964969e+03 4.633880494903557044e-05
1.640620310155077505e+03 4.392123576387048470e-05
1.641520760380190040e+03 4.199629436626981963e-05
1.642421210605302576e+03 4.052292947778686109e-05
1.643321660830415112e+03 3.938036574485224999e-05
1.644222111055527648e+03 3.846586770405677766e-05
1.645122561280640184e+03 3.770777451485553348e-05
1.646023011505752720e+03 3.705867776517718268e-05
1.646923461730865256e+03 3.648740326184920444e-05
1.647823911955978019e+03 3.597320691303384886e-05
1.648724362181090555e+03 3.550202248994140054e-05
1.649624812406203091e+03 3.506410793141857862e-05
1.650525262631315627e+03 3.465256993057438663e-05
1.651425712856428163e+03 3.426242847223558857e-05
1.652326163081540699e+03 3.389001390299499581e-05
1.653226613306653235e+03 3.353257118003264364e-05
1.654127063531765771e+03 3.318799525683284544e-05
1.655027513756878307e+03 3.285465093169943223e-05
1.655927963981990843e+03 3.253124806839392856e-05
1.656828414207103378e+03 3.221675375192509726e-05
1.657728864432216142e+03 3.191032949437760106e-05
1.658629314657328678e+03 3.161128570033931490e-05
1.659529764882441214e+03 3.131904820265267409e-05
1.660430215107553749e+03 3.103313335847449717e-05
1.661330665332666285e+03 3.075312929668616607e-05
1.662231115557778821e+03 3.047868164051554531e-05
1.663131565782891357e+03 3.020948252392202459e-05
1.664032016008003893e+03 2.994526205876109007e-05
1.664932466233116429e+03 2.968578164429438242e-05
1.665832916458228965e+03 2.943082867511741854e-05
1.666733366683341501e+03 2.918021232027605434e-05
1.667633816908454037e+03 2.893376013002374304e-05
1.668534267133566800e+03 2.869131528729582047e-05
1.669434717358679336e+03 2.845273436531758776e-05
1.670335167583791872e+03 2.821788548548514515e-05
1.671235617808904408e+03 2.798664679404212885e-05
1.672136068034016944e+03 2.775890519435247528e-05
1.673036518259129480e+03 2.753455528542502682e-05
1.673936968484242016e+03 2.731349846788621747e-05
1.674837418709354552e+03 2.709564218670610251e-05
1.675737868934467087e+03 2.688089928623448217e-05
1.676638319159579623e+03 2.666918745797809700e-05
1.677538769384692159e+03 2.646042876535894208e-05
1.678439219609804923e+03 2.625454923269712656e-05
1.679339669834917459e+03 2.605147848803284142e-05
1.680240120060029994e+03 2.585114945129803071e-05
1.681140570285142530e+03 2.565349806086016646e-05
1.682041020510255066e+03 2.545846303267430854e-05
1.682941470735367602e+03 2.526598564727144540e-05
1.683841920960480138e+03 2.507600956059915053e-05
1.684742371185592674e+03 2.488848063539144100e-05
1.685642821410705210e+03 2.470334679027324942e-05
1.686543271635817746e+03 2.452055786424214888e-05
1.687443721860930282e+03 2.434006549453713884e-05
1.688344172086043045e+03 2.416182300620034815e-05
1.689244622311155581e+03 2.398578531189042194e-05
1.690145072536268117e+03 2.381190882071114096e-05
1.691045522761380653e+03 2.364015135499914882e-05
1.691945972986493189e+03 2.347047207415691976e-05
1.692846423211605725e+03 2.330283140474277579e-05
1.693746873436718261e+03 2.313719097613755861e-05
1.694647323661830796e+03 2.297351356119209256e-05
1.695547773886943332e+03 2.281176302133842976e-05
1.696448224112055868e+03 2.265190425571402908e-05
1.697348674337168404e+03 2.249390315390002821e-05
1.698249124562281168e+03 2.233772655192610166e-05
1.699149574787393703e+03 2.218334219123299517e-05
1.700050025012506239e+03 2.203071868032258047e-05
1.700950475237618775e+03 2.187982545885261315e-05
1.701850925462731311e+03 2.173063276396144030e-05
1.702751375687843847e+03 2.158311159863494184e-05
1.703651825912956383e+03 2.143723370194127435e-05
1.704552276138068919e+03 2.129297152098332999e-05
1.705452726363181455e+03 2.115029818443067808e-05
1.706353176588293991e+03 2.100918747750969080e-05
1.707253626813406527e+03 2.086961381833744606e-05
1.708154077038519290e+03 2.073155223550323531e-05
1.709054527263631826e+03 2.059497834680373705e-05
1.709954977488744362e+03 2.045986833905122517e-05
1.710855427713856898e+03 2.032619894887987018e-05
1.711755877938969434e+03 2.019394744448051380e-05
1.712656328164081970e+03 2.006309160820492297e-05
1.713556778389194506e+03 1.993360971997950237e-05
1.714457228614307041e+03 1.980548054147794170e-05
1.715357678839419577e+03 1.967868330100542486e-05
1.716258129064532113e+03 1.955319767904964035e-05
1.717158579289644649e+03 1.942900379445940592e-05
1.718059029514757185e+03 1.930608219121322106e-05
1.718959479739869948e+03 1.918441382574217211e-05
1.719859929964982484e+03 1.906398005477828584e-05
1.720760380190095020e+03 1.894476262369560539e-05
1.721660830415207556e+03 1.882674365532073597e-05
1.722561280640320092e+03 1.870990563918299048e-05
1.723461730865432628e+03 1.859423142118412817e-05
1.724362181090545164e+03 1.847970419366524669e-05
1.725262631315657700e+03 1.836630748584769677e-05
1.726163081540770236e+03 1.825402515463382674e-05
1.727063531765882772e+03 1.814284137574447676e-05
1.727963981990995308e+03 1.803274063518089010e-05
1.728864432216108071e+03 1.792370772099217974e-05
1.729764882441220607e+03 1.781572771533698974e-05
1.730665332666333143e+03 1.770878598682210938e-05
1.731565782891445679e+03 1.760286818310731986e-05
1.732466233116558215e+03 1.749796022376518101e-05
1.733366683341670750e+03 1.739404829338059942e-05
1.734267133566783286e+03 1.729111883488459447e-05
1.735167583791895822e+03 1.718915854310725953e-05
1.736068034017008358e+03 1.708815435854345714e-05
1.736968484242120894e+03 1.698809346132092122e-05
1.737868934467233430e+03 1.688896326536361392e-05
1.738769384692346193e+03 1.679075141273839733e-05
1.739669834917458729e+03 1.669344576818383084e-05
1.740570285142571265e+03 1.659703441380700967e-05
1.741470735367683801e+03 1.650150564394545959e-05
1.742371185592796337e+03 1.640684796018853820e-05
1.743271635817908873e+03 1.631305006654721257e-05
1.744172086043021409e+03 1.622010086477243697e-05
1.745072536268133945e+03 1.612798944981139716e-05
1.745972986493246481e+03 1.603670510539930352e-05
1.746873436718359017e+03 1.594623729978100057e-05
1.747773886943471553e+03 1.585657568155656176e-05
1.748674337168584316e+03 1.576771007564750168e-05
1.749574787393696852e+03 1.567963047937870325e-05
1.750475237618809388e+03 1.559232705867159071e-05
1.751375687843921924e+03 1.550579014434510630e-05
1.752276138069034459e+03 1.542001022852002487e-05
1.753176588294146995e+03 1.533497796112350304e-05
1.754077038519259531e+03 1.525068414649041538e-05
1.754977488744372067e+03 1.516711974005724084e-05
1.755877938969484603e+03 1.508427584514628014e-05
1.756778389194597139e+03 1.500214370983679227e-05
1.757678839419709675e+03 1.492071472392017030e-05
1.758579289644822438e+03 1.483998041593571730e-05
1.759479739869934974e+03 1.475993245028577759e-05
1.760380190095047510e+03 1.468056262442600807e-05
1.761280640320160046e+03 1.460186286612889098e-05
1.762181090545272582e+03 1.452382523081916134e-05
1.763081540770385118e+03 1.444644189897725455e-05
1.763981990995497654e+03 1.436970517360894285e-05
1.764882441220610190e+03 1.429360747778032206e-05
1.765782891445722726e+03 1.421814135221421162e-05
1.766683341670835262e+03 1.414329945294778486e-05
1.767583791895947797e+03 1.406907454904819915e-05
1.768484242121060333e+03 1.399545952038492120e-05
1.769384692346173097e+03 1.392244735545729767e-05
1.770285142571285633e+03 1.385003114927577506e-05
1.771185592796398169e+03 1.377820410129376036e-05
1.772086043021510704e+03 1.370695951339088813e-05
1.772986493246623240e+03 1.363629078790409071e-05
1.773886943471735776e+03 1.356619142570603282e-05
1.774787393696848312e+03 1.349665502432985856e-05
1.775687843921960848e+03 1.342767527613780452e-05
1.776588294147073384e+03 1.335924596653318269e-05
1.777488744372185920e+03 1.329136097221488782e-05
1.778389194597298456e+03 1.322401425947169835e-05
1.779289644822411219e+03 1.315719988251647431e-05
1.780190095047523755e+03 1.309091198185965421e-05
1.781090545272636291e+03 1.302514478271902007e-05
1.781990995497748827e+03 1.295989259346599848e-05
1.782891445722861363e+03 1.289514980410771150e-05
1.783791895947973899e+03 1.283091088480334758e-05
1.784692346173086435e+03 1.276717038441333647e-05
1.785592796398198971e+03 1.270392292908151770e-05
1.786493246623311506e+03 1.264116322084894234e-05
1.787393696848424042e+03 1.257888603629818326e-05
1.788294147073536578e+03 1.251708622522719826e-05
1.789194597298649342e+03 1.245575870935318168e-05
1.790095047523761878e+03 1.239489848104436124e-05
1.790995497748874413e+03 1.233450060207863058e-05
1.791895947973986949e+03 1.227456020243071670e-05
1.792796398199099485e+03 1.221507247908349623e-05
1.793696848424212021e+03 1.215603269486649815e-05
1.794597298649324557e+03 1.209743617731814202e-05
1.795497748874437093e+03 1.203927831757235042e-05
1.796398199099549629e+03 1.198155456926951702e-05
1.797298649324662165e+03 1.192426044748895369e-05
1.798199099549774701e+03 1.186739152770533910e-05
1.799099549774887464e+03 1.181094344476504896e-05
1.800000000000000000e+03 1.175491189188642330e-05
