0.000000000000000000e+00 9.745692560138297100e-04
9.004502251125562351e-01 1.292235541625025297e-03
1.800900450225112470e+00 1.642221877202070229e-03
2.701350675337668594e+00 1.911241169304847207e-03
3.601800900450224940e+00 2.003250838582240363e-03
4.502251125562780842e+00 1.904104033710012208e-03
5.402701350675337189e+00 1.636657616070686782e-03
6.303151575787893535e+00 1.291531882271624524e-03
7.203601800900449881e+00 9.764593699834686093e-04
8.104052026013006227e+00 7.343999745982997956e-04
9.004502251125561685e+00 5.601208933009886246e-04
9.904952476238118919e+00 4.361078318035902304e-04
1.080540270135067438e+01 3.469197414904980742e-04
1.170585292646323161e+01 2.815602356260904515e-04
1.260630315157578707e+01 2.326658559631422532e-04
1.350675337668834430e+01 1.953656638010483595e-04
1.440720360180089976e+01 1.664152524135486383e-04
1.530765382691345522e+01 1.436202439821295950e-04
1.620810405202601245e+01 1.254566104184243029e-04
1.710855427713856969e+01 1.107985241702037072e-04
1.800900450225112337e+01 9.872752052714989864e-05
1.890945472736368060e+01 8.846305859091278475e-05
1.980990495247623784e+01 7.946965873731047536e-05
2.071035517758879507e+01 7.158900981589753378e-05
2.161080540270134875e+01 6.483081963966107533e-05
2.251125562781390599e+01 5.913420307790309937e-05
2.341170585292646322e+01 5.437275904891585124e-05
2.431215607803901690e+01 5.038872001410016674e-05
2.521260630315157414e+01 4.695963844694026930e-05
2.611305652826413137e+01 4.381790225040115195e-05
2.701350675337668861e+01 4.083147046326479054e-05
2.791395697848924229e+01 3.806171090423080791e-05
2.881440720360179952e+01 3.555747352172612116e-05
2.971485742871435676e+01 3.327336921322151077e-05
3.061530765382691044e+01 3.117066779009088561e-05
3.151575787893946767e+01 2.924817212760755892e-05
3.241620810405202491e+01 2.751100668888253233e-05
3.331665832916458214e+01 2.595589576673103523e-05
3.421710855427713938e+01 2.456360062206257847e-05
3.511755877938969661e+01 2.330915157424528830e-05
3.601800900450224674e+01 2.216342530385163683e-05
3.691845922961480397e+01 2.111099155155891419e-05
3.781890945472736121e+01 2.016805546799519468e-05
3.871935967983991844e+01 1.935538033062030998e-05
3.961980990495247568e+01 1.868508777403753452e-05
4.052026013006503291e+01 1.815305969902549857e-05
4.142071035517759015e+01 1.772014873249624201e-05
4.232116058029014027e+01 1.734218654438812241e-05
4.322161080540269751e+01 1.703273574828416862e-05
4.412206103051525474e+01 1.679050870484637123e-05
4.502251125562781198e+01 1.651548825471987515e-05
4.592296148074036921e+01 1.615992479322176731e-05
4.682341170585292645e+01 1.583637410227513746e-05
4.772386193096548368e+01 1.562367384382823570e-05
4.862431215607803381e+01 1.543514394632795146e-05
4.952476238119059104e+01 1.514493697165613206e-05
5.042521260630314828e+01 1.477789276577252064e-05
5.132566283141570551e+01 1.442923723646899519e-05
5.222611305652826275e+01 1.412022848175369776e-05
5.312656328164081998e+01 1.383774008761803921e-05
5.402701350675337721e+01 1.354041872718536538e-05
5.492746373186592734e+01 1.313821441288100831e-05
5.582791395697848458e+01 1.262138692778171537e-05
5.672836418209104181e+01 1.210826696222080622e-05
5.762881440720359905e+01 1.172174125619326717e-05
5.852926463231615628e+01 1.150764682950954208e-05
5.942971485742871351e+01 1.145170450166098904e-05
6.033016508254127075e+01 1.151002692063290148e-05
6.123061530765382088e+01 1.163552488011319861e-05
6.213106553276637811e+01 1.177403481896521028e-05
6.303151575787893535e+01 1.186974375345867495e-05
6.393196598299149258e+01 1.193382412470388167e-05
6.483241620810404982e+01 1.199697170244422783e-05
6.573286643321659994e+01 1.204299899901150441e-05
6.663331665832916428e+01 1.204069491120240831e-05
6.753376688344171441e+01 1.196498929008038481e-05
6.843421710855427875e+01 1.182785704253100633e-05
6.933466733366682888e+01 1.166890139842611303e-05
7.023511755877939322e+01 1.149970402987461350e-05
7.113556778389194335e+01 1.128462096357718969e-05
7.203601800900449348e+01 1.102829827896526841e-05
7.293646823411705782e+01 1.081500079317857447e-05
7.383691845922960795e+01 1.074877664319761827e-05
7.473736868434217229e+01 1.090433783781247471e-05
7.563781890945472242e+01 1.126734320823778727e-05
7.653826913456728676e+01 1.168000570101176890e-05
7.743871935967983688e+01 1.193586295385484186e-05
7.833916958479238701e+01 1.197183561688370260e-05
7.923961980990495135e+01 1.190043385403240812e-05
8.014007003501750148e+01 1.185477187667195593e-05
8.104052026013006582e+01 1.187144975813196925e-05
8.194097048524261595e+01 1.194916757639118268e-05
8.284142071035518029e+01 1.207026351033502891e-05
8.374187093546773042e+01 1.214758557321315969e-05
8.464232116058028055e+01 1.206214795695499915e-05
8.554277138569284489e+01 1.180920039230098902e-05
8.644322161080539502e+01 1.150001272628199824e-05
8.734367183591795936e+01 1.123324481276397100e-05
8.824412206103050949e+01 1.105399361952888843e-05
8.914457228614307382e+01 1.092551304779585632e-05
9.004502251125562395e+01 1.081643355321144182e-05
9.094547273636817408e+01 1.079578915510549095e-05
9.184592296148073842e+01 1.097252317067988832e-05
9.274637318659328855e+01 1.141476938075621731e-05
9.364682341170585289e+01 1.209532698797751394e-05
9.454727363681840302e+01 1.289529452105122341e-05
9.544772386193096736e+01 1.367968102397940298e-05
9.634817408704351749e+01 1.435195069741972956e-05
9.724862431215606762e+01 1.482743596736261251e-05
9.814907453726863196e+01 1.505197799096954529e-05
9.904952476238118209e+01 1.508238882255211821e-05
9.994997498749374643e+01 1.509077763730081325e-05
1.008504252126062966e+02 1.519881786594457808e-05
1.017508754377188609e+02 1.538063003754720719e-05
1.026513256628314110e+02 1.555116321145893932e-05
1.035517758879439612e+02 1.563880863508745718e-05
1.044522261130565255e+02 1.566575623323975940e-05
1.053526763381690756e+02 1.569882107538982219e-05
1.062531265632816400e+02 1.564806008078104165e-05
1.071535767883941901e+02 1.540449627060362181e-05
1.080540270135067544e+02 1.510922075432799891e-05
1.089544772386193046e+02 1.492015992304809399e-05
1.098549274637318547e+02 1.480720836861511294e-05
1.107553776888444190e+02 1.464303611385785914e-05
1.116558279139569692e+02 1.434478787924975702e-05
1.125562781390695335e+02 1.390905652709810157e-05
1.134567283641820836e+02 1.338964852115728282e-05
1.143571785892946480e+02 1.284844046318274187e-05
1.152576288144071981e+02 1.230923700435597386e-05
1.161580790395197482e+02 1.181247731422195022e-05
1.170585292646323126e+02 1.138180637257994721e-05
1.179589794897448627e+02 1.098974884289522058e-05
1.188594297148574270e+02 1.065238267213746127e-05
1.197598799399699772e+02 1.043560223779253744e-05
1.206603301650825415e+02 1.037776624160353196e-05
1.215607803901950916e+02 1.048178708149185869e-05
1.224612306153076418e+02 1.074518244978319654e-05
1.233616808404202061e+02 1.115376257676938504e-05
1.242621310655327562e+02 1.169186783388864801e-05
1.251625812906453206e+02 1.234432454541930599e-05
1.260630315157578707e+02 1.303298663267814663e-05
1.269634817408704350e+02 1.360853800029661825e-05
1.278639319659829852e+02 1.393832485303468968e-05
1.287643821910955353e+02 1.405401361141936428e-05
1.296648324162080996e+02 1.410252385097017035e-05
1.305652826413206640e+02 1.410848467631509499e-05
1.314657328664331999e+02 1.404682154981699552e-05
1.323661830915457642e+02 1.400243453726723995e-05
1.332666333166583286e+02 1.410477858060584270e-05
1.341670835417708929e+02 1.439864101737302877e-05
1.350675337668834288e+02 1.472233265495207406e-05
1.359679839919959932e+02 1.483327584500311991e-05
1.368684342171085575e+02 1.468192052225535555e-05
1.377688844422210934e+02 1.440066427910531050e-05
1.386693346673336578e+02 1.412529416033536161e-05
1.395697848924462221e+02 1.388949118907937532e-05
1.404702351175587864e+02 1.371973713951360378e-05
1.413706853426713224e+02 1.372752840377880876e-05
1.422711355677838867e+02 1.399553966226596598e-05
1.431715857928964510e+02 1.449763312413288358e-05
1.440720360180089870e+02 1.517840464342062579e-05
1.449724862431215513e+02 1.599639469714822949e-05
1.458729364682341156e+02 1.680458356945695566e-05
1.467733866933466800e+02 1.742396496982710633e-05
1.476738369184592159e+02 1.785983246012295625e-05
1.485742871435717802e+02 1.818259784666351501e-05
1.494747373686843446e+02 1.840268279680553327e-05
1.503751875937968805e+02 1.848195064407363801e-05
1.512756378189094448e+02 1.837535652950886397e-05
1.521760880440220092e+02 1.812729607955618124e-05
1.530765382691345735e+02 1.786890664024578829e-05
1.539769884942471094e+02 1.764271907567818744e-05
1.548774387193596738e+02 1.740324415560074865e-05
1.557778889444722381e+02 1.722581109619528589e-05
1.566783391695847740e+02 1.717088214354730306e-05
1.575787893946973384e+02 1.717472936377513083e-05
1.584792396198099027e+02 1.726161410627943888e-05
1.593796898449224670e+02 1.755654570423228962e-05
1.602801400700350030e+02 1.809720226992150472e-05
1.611805902951475673e+02 1.878080636895967229e-05
1.620810405202601316e+02 1.949204286329523508e-05
1.629814907453726676e+02 2.015096865645236014e-05
1.638819409704852319e+02 2.062369418388912220e-05
1.647823911955977962e+02 2.077590719866493829e-05
1.656828414207103606e+02 2.058513064890341555e-05
1.665832916458228965e+02 2.016044480026069389e-05
1.674837418709354608e+02 1.970050715956975324e-05
1.683841920960480252e+02 1.936902493618668458e-05
1.692846423211605611e+02 1.918893123305302119e-05
1.701850925462731254e+02 1.914237347085905361e-05
1.710855427713856898e+02 1.920722281015182985e-05
1.719859929964982541e+02 1.924506675752109063e-05
1.728864432216107900e+02 1.911081209724916003e-05
1.737868934467233544e+02 1.885167652565279954e-05
1.746873436718359187e+02 1.864937036034075433e-05
1.755877938969484546e+02 1.863105439575892550e-05
1.764882441220610190e+02 1.882087014854325920e-05
1.773886943471735833e+02 1.917153243171041815e-05
1.782891445722861476e+02 1.952195200946138764e-05
1.791895947973986836e+02 1.971618090885025675e-05
1.800900450225112479e+02 1.970869981949016373e-05
1.809904952476238122e+02 1.951840616772325624e-05
1.818909454727363482e+02 1.924598218885410590e-05
1.827913956978489125e+02 1.904733881530754541e-05
1.836918459229614768e+02 1.899336855406608994e-05
1.845922961480740412e+02 1.903054922752382138e-05
1.854927463731865771e+02 1.909935622011543158e-05
1.863931965982991414e+02 1.919332671609772265e-05
1.872936468234117058e+02 1.932839485466643839e-05
1.881940970485242417e+02 1.955642367186883522e-05
1.890945472736368060e+02 1.992581539462279328e-05
1.899949974987493704e+02 2.043226526883925361e-05
1.908954477238619347e+02 2.095696713582753272e-05
1.917958979489744706e+02 2.132073030622968091e-05
1.926963481740870350e+02 2.145180695788851966e-05
1.935967983991995993e+02 2.148915226460767125e-05
1.944972486243121352e+02 2.167016529980062578e-05
1.953976988494246996e+02 2.203581638523831657e-05
1.962981490745372639e+02 2.239481781339864886e-05
1.971985992996498283e+02 2.259039564291918557e-05
1.980990495247623642e+02 2.259345281817968652e-05
1.989994997498749285e+02 2.241904781130285652e-05
1.998999499749874929e+02 2.213338216218879264e-05
2.008004002001000288e+02 2.184333090538377657e-05
2.017008504252125931e+02 2.162427554177022898e-05
2.026013006503251574e+02 2.149831614609344169e-05
2.035017508754377218e+02 2.148852434808814731e-05
2.044022011005502577e+02 2.161291731806036097e-05
2.053026513256628220e+02 2.186445442529412605e-05
2.062031015507753864e+02 2.223944953153872084e-05
2.071035517758879223e+02 2.271141600933879019e-05
2.080040020010004866e+02 2.321672116068894832e-05
2.089044522261130510e+02 2.370046882175233784e-05
2.098049024512256153e+02 2.407564478912006871e-05
2.107053526763381512e+02 2.419244891312327940e-05
2.116058029014507156e+02 2.407130804923931572e-05
2.125062531265632799e+02 2.398850040556942006e-05
2.134067033516758158e+02 2.410984093242819697e-05
2.143071535767883802e+02 2.440027249150259487e-05
2.152076038019009445e+02 2.483027665015962324e-05
2.161080540270135089e+02 2.524898635345688104e-05
2.170085042521260448e+02 2.530045903932076759e-05
2.179089544772386091e+02 2.482846941476173395e-05
2.188094047023511735e+02 2.409332887294049532e-05
2.197098549274637094e+02 2.349954360616126836e-05
2.206103051525762737e+02 2.331345645430419946e-05
2.215107553776888381e+02 2.347539867921235934e-05
2.224112056028014024e+02 2.365081636148346454e-05
2.233116558279139383e+02 2.356097931304427785e-05
2.242121060530265027e+02 2.327718991734393036e-05
2.251125562781390670e+02 2.308611692091019142e-05
2.260130065032516029e+02 2.311067580484933812e-05
2.269134567283641672e+02 2.325338473636590691e-05
2.278139069534767316e+02 2.333420417205261390e-05
2.287143571785892959e+02 2.320053881095899631e-05
2.296148074037018318e+02 2.289324963909123795e-05
2.305152576288143962e+02 2.263624060886410588e-05
2.314157078539269605e+02 2.260792587173357578e-05
2.323161580790394964e+02 2.279287053980377147e-05
2.332166083041520608e+02 2.305947621692538789e-05
2.341170585292646251e+02 2.337149223111444692e-05
2.350175087543771895e+02 2.384100275755541543e-05
2.359179589794897254e+02 2.441082253122721639e-05
2.368184092046022897e+02 2.475780969146340669e-05
2.377188594297148541e+02 2.470393613499036100e-05
2.386193096548273900e+02 2.445917353463598228e-05
2.395197598799399543e+02 2.431180949629947150e-05
2.404202101050525187e+02 2.427325802670943431e-05
2.413206603301650830e+02 2.414907980586458947e-05
2.422211105552776189e+02 2.391124035471097609e-05
2.431215607803901833e+02 2.380319573581101848e-05
2.440220110055027476e+02 2.402843878699403475e-05
2.449224612306152835e+02 2.455497079875385393e-05
2.458229114557278479e+02 2.523403695656835567e-05
2.467233616808404122e+02 2.590491843073692045e-05
2.476238119059529765e+02 2.640235591774381003e-05
2.485242621310655124e+02 2.653491144921204387e-05
2.494247123561780768e+02 2.629743006662936877e-05
2.503251625812906411e+02 2.596672452879559005e-05
2.512256128064031770e+02 2.570830703552206981e-05
2.521260630315157414e+02 2.540842659962576014e-05
2.530265132566283057e+02 2.492063505998152242e-05
2.539269634817408701e+02 2.428087044653726501e-05
2.548274137068534060e+02 2.371708276136130523e-05
2.557278639319659703e+02 2.347890304046521825e-05
2.566283141570785347e+02 2.358428057705774545e-05
2.575287643821910706e+02 2.383095156763306009e-05
2.584292146073036633e+02 2.401429819535570059e-05
2.593296648324161993e+02 2.403667061158434515e-05
2.602301150575287352e+02 2.388843260971871071e-05
2.611305652826413279e+02 2.361116661251903701e-05
2.620310155077538639e+02 2.326112751051450983e-05
2.629314657328663998e+02 2.293852934222289988e-05
2.638319159579789925e+02 2.275474070094306092e-05
2.647323661830915285e+02 2.273690546297612295e-05
2.656328164082040644e+02 2.282829863760811085e-05
2.665332666333166571e+02 2.300186078976421760e-05
2.674337168584291931e+02 2.328395606963295803e-05
2.683341670835417858e+02 2.374662417509750526e-05
2.692346173086543217e+02 2.445534327835404109e-05
2.701350675337668577e+02 2.527222336148498945e-05
2.710355177588794504e+02 2.585938528356247074e-05
2.719359679839919863e+02 2.612334880485515752e-05
2.728364182091045222e+02 2.633154001944706634e-05
2.737368684342171150e+02 2.665575122152818836e-05
2.746373186593296509e+02 2.706724610352106319e-05
2.755377688844421868e+02 2.757344288674522728e-05
2.764382191095547796e+02 2.820580730778920404e-05
2.773386693346673155e+02 2.887007508341989909e-05
2.782391195597798514e+02 2.938657125866160697e-05
2.791395697848924442e+02 2.969695573713214081e-05
2.800400200100049801e+02 2.988199651911807567e-05
2.809404702351175729e+02 3.006369397084171250e-05
2.818409204602301088e+02 3.041330880996705066e-05
2.827413706853426447e+02 3.096280087008871761e-05
2.836418209104552375e+02 3.144600318004060530e-05
2.845422711355677734e+02 3.157025318712843948e-05
2.854427213606803093e+02 3.146999329955877468e-05
2.863431715857929021e+02 3.144683495355211580e-05
2.872436218109054380e+02 3.156158513850483376e-05
2.881440720360179739e+02 3.177614409422047824e-05
2.890445222611305667e+02 3.210253317227053995e-05
2.899449724862431026e+02 3.259606574980850193e-05
2.908454227113556385e+02 3.324848088168702061e-05
2.917458729364682313e+02 3.391329777535842651e-05
2.926463231615807672e+02 3.456548137166993355e-05
2.935467733866933600e+02 3.529125333151610203e-05
2.944472236118058959e+02 3.601110020784645385e-05
2.953476738369184318e+02 3.660095186021918013e-05
2.962481240620310246e+02 3.699209845816271204e-05
2.971485742871435605e+02 3.718530293465291864e-05
2.980490245122560964e+02 3.720850603535034849e-05
2.989494747373686891e+02 3.708313311032308796e-05
2.998499249624812251e+02 3.697309531486737429e-05
3.007503751875937610e+02 3.704403477075119230e-05
3.016508254127063537e+02 3.720693182686138204e-05
3.025512756378188897e+02 3.719113842127370082e-05
3.034517258629314256e+02 3.688181064494542503e-05
3.043521760880440183e+02 3.656067209516161785e-05
3.052526263131565543e+02 3.665424616748219633e-05
3.061530765382691470e+02 3.724229164595261400e-05
3.070535267633816829e+02 3.805061914321899026e-05
3.079539769884942189e+02 3.880167301546467794e-05
3.088544272136068116e+02 3.935395704721610880e-05
3.097548774387193475e+02 3.971043707978855853e-05
3.106553276638318835e+02 4.000110918714379501e-05
3.115557778889444762e+02 4.031134145160473694e-05
3.124562281140570121e+02 4.060295531237142688e-05
3.133566783391695481e+02 4.082234736486692881e-05
3.142571285642821408e+02 4.093383891941476704e-05
3.151575787893946767e+02 4.089037709356084136e-05
3.160580290145072127e+02 4.073194504359685207e-05
3.169584792396198054e+02 4.062327804371588640e-05
3.178589294647323413e+02 4.081920866474298565e-05
3.187593796898449341e+02 4.145189951872287450e-05
3.196598299149574700e+02 4.235433142318898375e-05
3.205602801400700059e+02 4.319764525001123167e-05
3.214607303651825987e+02 4.374313737841677277e-05
3.223611805902951346e+02 4.398247869209953619e-05
3.232616308154076705e+02 4.413022454177145361e-05
3.241620810405202633e+02 4.436607582281155250e-05
3.250625312656327992e+02 4.462318433751744160e-05
3.259629814907453351e+02 4.480285311875639330e-05
3.268634317158579279e+02 4.494171976992897022e-05
3.277638819409704638e+02 4.494237938859140896e-05
3.286643321660829997e+02 4.474502376905968397e-05
3.295647823911955925e+02 4.448049930017500465e-05
3.304652326163081284e+02 4.406833060419138796e-05
3.313656828414207212e+02 4.328386911001205230e-05
3.322661330665332571e+02 4.220740553307836132e-05
3.331665832916457930e+02 4.117494758983241570e-05
3.340670335167583858e+02 4.052830721375920176e-05
3.349674837418709217e+02 4.038059388588994517e-05
3.358679339669834576e+02 4.059692270482409554e-05
3.367683841920960504e+02 4.092117784014076304e-05
3.376688344172085863e+02 4.116065407925686065e-05
3.385692846423211222e+02 4.128030669215177503e-05
3.394697348674337150e+02 4.118582533935327049e-05
3.403701850925462509e+02 4.074194180404244986e-05
3.412706353176587868e+02 4.002711777420857287e-05
3.421710855427713796e+02 3.941730709820491724e-05
3.430715357678839155e+02 3.926544582277877030e-05
3.439719859929965082e+02 3.962210988646550829e-05
3.448724362181090441e+02 4.028618903674024098e-05
3.457728864432215801e+02 4.096005649602439197e-05
3.466733366683341728e+02 4.138529329880981096e-05
3.475737868934467087e+02 4.154909739563331805e-05
3.484742371185592447e+02 4.163030486568358729e-05
3.493746873436718374e+02 4.174064078118253329e-05
3.502751375687843733e+02 4.191788900260038828e-05
3.511755877938969093e+02 4.212923562067581181e-05
3.520760380190095020e+02 4.223968000541207984e-05
3.529764882441220379e+02 4.215429177294484489e-05
3.538769384692345739e+02 4.191286560605886433e-05
3.547773886943471666e+02 4.167898731401881320e-05
3.556778389194597025e+02 4.159443084491993019e-05
3.565782891445722953e+02 4.161493168231480554e-05
3.574787393696848312e+02 4.160205438958579761e-05
3.583791895947973671e+02 4.142216687715790941e-05
3.592796398199099599e+02 4.115693891972079118e-05
3.601800900450224958e+02 4.095355219963780764e-05
3.610805402701350317e+02 4.069492972994416259e-05
3.619809904952476245e+02 4.025097136305156746e-05
3.628814407203601604e+02 3.968082360075690239e-05
3.637818909454726963e+02 3.904834906185738385e-05
3.646823411705852891e+02 3.847706581532402039e-05
3.655827913956978250e+02 3.837371035324086956e-05
3.664832416208103609e+02 3.906276339711422651e-05
3.673836918459229537e+02 4.035244878151502475e-05
3.682841420710354896e+02 4.158796735731419314e-05
3.691845922961480824e+02 4.211524376405829484e-05
3.700850425212606183e+02 4.182270952345133150e-05
3.709854927463731542e+02 4.127440459448691293e-05
3.718859429714857470e+02 4.102848124409049743e-05
3.727863931965982829e+02 4.116039993949305504e-05
3.736868434217108188e+02 4.137680696885280871e-05
3.745872936468234116e+02 4.136259686668583796e-05
3.754877438719359475e+02 4.105937064457719206e-05
3.763881940970484834e+02 4.059155561475217584e-05
3.772886443221610762e+02 4.007770334136365512e-05
3.781890945472736121e+02 3.955886654925746973e-05
3.790895447723861480e+02 3.908747574381899397e-05
3.799899949974987408e+02 3.868307742423895149e-05
3.808904452226112767e+02 3.829265859153837962e-05
3.817908954477238694e+02 3.786254372201073150e-05
3.826913456728364054e+02 3.738086220595185567e-05
3.835917958979489413e+02 3.693301504945870913e-05
3.844922461230615340e+02 3.660151133966039674e-05
3.853926963481740700e+02 3.642507563838089839e-05
3.862931465732866059e+02 3.636803119378996383e-05
3.871935967983991986e+02 3.627789527577368020e-05
3.880940470235117346e+02 3.614372768031249384e-05
3.889944972486242705e+02 3.608552132568858240e-05
3.898949474737368632e+02 3.605390893888099104e-05
3.907953976988493991e+02 3.594316727256812268e-05
3.916958479239619351e+02 3.580440943864404523e-05
3.925962981490745278e+02 3.571898860173341382e-05
3.934967483741870637e+02 3.566228171634770370e-05
3.943971985992996565e+02 3.551010743421051857e-05
3.952976488244121924e+02 3.517532725312206996e-05
3.961980990495247283e+02 3.477774609508833532e-05
3.970985492746373211e+02 3.449073751548552161e-05
3.979989994997498570e+02 3.432908080594466137e-05
3.988994497248623929e+02 3.422333949492741733e-05
3.997998999499749857e+02 3.421044868989829812e-05
4.007003501750875216e+02 3.438761663734657978e-05
4.016008004002000575e+02 3.474325921654773148e-05
4.025012506253126503e+02 3.509583971698578708e-05
4.034017008504251862e+02 3.517944080110364287e-05
4.043021510755377221e+02 3.486676591407628323e-05
4.052026013006503149e+02 3.436369265971857945e-05
4.061030515257628508e+02 3.410229657572627778e-05
4.070035017508754436e+02 3.432633932793489434e-05
4.079039519759879795e+02 3.495544165657153745e-05
4.088044022011005154e+02 3.563944219505031327e-05
4.097048524262131082e+02 3.601952310884115794e-05
4.106053026513256441e+02 3.603662029115121897e-05
4.115057528764381800e+02 3.591530743622301544e-05
4.124062031015507728e+02 3.601829511197579732e-05
4.133066533266633087e+02 3.646823228459481522e-05
4.142071035517758446e+02 3.705021105448390003e-05
4.151075537768884374e+02 3.758772072863109115e-05
4.160080040020009733e+02 3.815163868116810042e-05
4.169084542271135092e+02 3.874991969551283924e-05
4.178089044522261020e+02 3.918781385724096143e-05
4.187093546773386379e+02 3.934326842752927428e-05
4.196098049024512306e+02 3.920698782313493955e-05
4.205102551275637666e+02 3.886451438937758179e-05
4.214107053526763025e+02 3.848077390218640535e-05
4.223111555777888952e+02 3.815511647815618423e-05
4.232116058029014312e+02 3.792852659180450417e-05
4.241120560280139671e+02 3.777671985397935500e-05
4.250125062531265598e+02 3.761298960165675588e-05
4.259129564782390958e+02 3.745821012536079551e-05
4.268134067033516317e+02 3.738500883578194133e-05
4.277138569284642244e+02 3.736679079034240300e-05
4.286143071535767604e+02 3.734604979288385745e-05
4.295147573786892963e+02 3.727577145167026361e-05
4.304152076038018890e+02 3.711912498559477846e-05
4.313156578289144250e+02 3.698277726160111619e-05
4.322161080540270177e+02 3.704422949479687738e-05
4.331165582791395536e+02 3.732905977593650764e-05
4.340170085042520896e+02 3.778855748099325804e-05
4.349174587293646823e+02 3.835785770334476142e-05
4.358179089544772182e+02 3.894343663767953423e-05
4.367183591795897541e+02 3.943620012990108829e-05
4.376188094047023469e+02 3.978919044226237776e-05
4.385192596298148828e+02 4.001085738591690042e-05
4.394197098549274187e+02 4.002081773690783015e-05
4.403201600800400115e+02 3.970607890479862476e-05
4.412206103051525474e+02 3.914665328379799650e-05
4.421210605302650833e+02 3.858171701046217498e-05
4.430215107553776761e+02 3.814800567265323934e-05
4.439219609804902120e+02 3.782678766785373841e-05
4.448224112056028048e+02 3.763939768908372791e-05
4.457228614307153407e+02 3.762532556217275382e-05
4.466233116558278766e+02 3.774696987153324462e-05
4.475237618809404694e+02 3.797619500740730689e-05
4.484242121060530053e+02 3.838846507732551348e-05
4.493246623311655412e+02 3.903177262172779198e-05
4.502251125562781340e+02 3.970492333110210557e-05
4.511255627813906699e+02 4.003231653279623619e-05
4.520260130065032058e+02 3.978281084171068216e-05
4.529264632316157986e+02 3.908378546622969467e-05
4.538269134567283345e+02 3.829552582455596704e-05
4.547273636818408704e+02 3.768135357054384226e-05
4.556278139069534632e+02 3.729331351680938692e-05
4.565282641320659991e+02 3.705761960026876425e-05
4.574287143571785919e+02 3.691328766982055842e-05
4.583291645822911278e+02 3.694158915159141514e-05
4.592296148074036637e+02 3.724891689509982290e-05
4.601300650325162565e+02 3.781206555264037938e-05
4.610305152576287924e+02 3.851025758755521059e-05
4.619309654827413283e+02 3.917908338411855805e-05
4.628314157078539210e+02 3.964803570913701304e-05
4.637318659329664570e+02 3.983228799193143718e-05
4.646323161580789929e+02 3.977580714387523295e-05
4.655327663831915856e+02 3.952536429135634970e-05
4.664332166083041216e+02 3.914088953743585900e-05
4.673336668334167143e+02 3.874553228019363816e-05
4.682341170585292502e+02 3.846076297468269502e-05
4.691345672836417862e+02 3.839986929338461315e-05
4.700350175087543789e+02 3.865468152901304732e-05
4.709354677338669148e+02 3.922672086044737727e-05
4.718359179589794508e+02 4.006828714253050000e-05
4.727363681840920435e+02 4.109857469436392066e-05
4.736368184092045794e+02 4.208365297887137608e-05
4.745372686343171154e+02 4.277199334453127874e-05
4.754377188594297081e+02 4.322923768163500284e-05
4.763381690845422440e+02 4.367310713952209426e-05
4.772386193096547800e+02 4.412529469791845449e-05
4.781390695347673727e+02 4.443338751723681178e-05
4.790395197598799086e+02 4.455341054522701734e-05
4.799399699849925014e+02 4.459932993078663440e-05
4.808404202101050373e+02 4.453395308509940353e-05
4.817408704352175732e+02 4.422585923945988764e-05
4.826413206603301660e+02 4.377883504390700053e-05
4.835417708854427019e+02 4.339629941272149998e-05
4.844422211105552378e+02 4.309799227401329275e-05
4.853426713356678306e+02 4.283839994467165849e-05
4.862431215607803665e+02 4.264754951407435360e-05
4.871435717858929024e+02 4.252847472060548720e-05
4.880440220110054952e+02 4.243697330046402639e-05
4.889444722361180311e+02 4.239074730189485736e-05
4.898449224612305670e+02 4.243385786055079632e-05
4.907453726863431598e+02 4.254161913583561568e-05
4.916458229114556957e+02 4.268467824744803910e-05
4.925462731365682885e+02 4.289194534826262919e-05
4.934467233616808244e+02 4.316566665525890047e-05
4.943471735867933603e+02 4.341304556441362374e-05
4.952476238119059531e+02 4.354161247512294814e-05
4.961480740370184890e+02 4.359756252055029143e-05
4.970485242621310249e+02 4.371205868273337990e-05
4.979489744872436177e+02 4.391552313872534798e-05
4.988494247123561536e+02 4.417255868755761209e-05
4.997498749374686895e+02 4.457232277960154911e-05
5.006503251625812823e+02 4.522034168440745643e-05
5.015507753876938182e+02 4.603315053457679928e-05
5.024512256128063541e+02 4.680923683330835466e-05
5.033516758379189469e+02 4.736235398061271001e-05
5.042521260630314828e+02 4.765205113031709973e-05
5.051525762881440755e+02 4.777222468450203130e-05
5.060530265132566115e+02 4.781399109013029106e-05
5.069534767383691474e+02 4.783506157541109611e-05
5.078539269634817401e+02 4.790061361622416933e-05
5.087543771885942760e+02 4.808752957630732186e-05
5.096548274137068120e+02 4.841010972916040187e-05
5.105552776388194047e+02 4.866072825558833927e-05
5.114557278639319406e+02 4.859724300231396573e-05
5.123561780890445334e+02 4.831531991310057526e-05
5.132566283141570693e+02 4.811843832437598400e-05
5.141570785392696052e+02 4.817754398523252043e-05
5.150575287643821412e+02 4.848514126801285241e-05
5.159579789894946771e+02 4.889681649130945987e-05
5.168584292146073267e+02 4.925451755361188517e-05
5.177588794397198626e+02 4.948107478186954914e-05
5.186593296648323985e+02 4.960654679613575320e-05
5.195597798899449344e+02 4.982020354935595328e-05
5.204602301150574704e+02 5.039585888297732724e-05
5.213606803401700063e+02 5.144146182506364887e-05
5.222611305652826559e+02 5.266797418040601711e-05
5.231615807903951918e+02 5.359133241252230163e-05
5.240620310155077277e+02 5.398531094669779183e-05
5.249624812406202636e+02 5.396894079257060612e-05
5.258629314657327996e+02 5.384592741408578441e-05
5.267633816908454492e+02 5.382336713816146182e-05
5.276638319159579851e+02 5.391287841944659883e-05
5.285642821410705210e+02 5.412429361687365185e-05
5.294647323661830569e+02 5.449972538064478636e-05
5.303651825912955928e+02 5.496177798179245692e-05
5.312656328164081287e+02 5.539503893981324796e-05
5.321660830415207784e+02 5.585204687720243707e-05
5.330665332666333143e+02 5.654149743202022273e-05
5.339669834917458502e+02 5.755191591717722424e-05
5.348674337168583861e+02 5.876018913796178912e-05
5.357678839419709220e+02 6.005454825972993122e-05
5.366683341670835716e+02 6.120068724929021535e-05
5.375687843921961075e+02 6.187778681257480068e-05
5.384692346173086435e+02 6.208538227372584347e-05
5.393696848424211794e+02 6.206034374632689321e-05
5.402701350675337153e+02 6.200082584347868801e-05
5.411705852926462512e+02 6.186752575646640767e-05
5.420710355177589008e+02 6.153632910187302018e-05
5.429714857428714367e+02 6.104791312054835785e-05
5.438719359679839727e+02 6.057654500351971488e-05
5.447723861930965086e+02 6.032252927352670151e-05
5.456728364182090445e+02 6.043174995736237692e-05
5.465732866433215804e+02 6.091901772453634059e-05
5.474737368684342300e+02 6.170256634647820510e-05
5.483741870935467659e+02 6.260755264191113440e-05
5.492746373186593019e+02 6.333459314156150201e-05
5.501750875437718378e+02 6.365697058124878251e-05
5.510755377688843737e+02 6.367785496453956117e-05
5.519759879939970233e+02 6.371200411938133872e-05
5.528764382191095592e+02 6.396464477282966384e-05
5.537768884442220951e+02 6.432088730022412018e-05
5.546773386693346310e+02 6.457272655955801895e-05
5.555777888944471670e+02 6.468072651469460683e-05
5.564782391195597029e+02 6.464409813275491935e-05
5.573786893446723525e+02 6.442160239674464084e-05
5.582791395697848884e+02 6.411188220325465890e-05
5.591795897948974243e+02 6.394034018110965518e-05
5.600800400200099602e+02 6.397595702452498628e-05
5.609804902451224962e+02 6.403404384365771218e-05
5.618809404702351458e+02 6.390002453601198364e-05
5.627813906953476817e+02 6.350739978684664011e-05
5.636818409204602176e+02 6.299152718677079410e-05
5.645822911455727535e+02 6.261274920272418161e-05
5.654827413706852894e+02 6.253557139948195313e-05
5.663831915957978254e+02 6.272335084831298321e-05
5.672836418209104750e+02 6.295306584048599547e-05
5.681840920460230109e+02 6.293923265106144923e-05
5.690845422711355468e+02 6.242761528302315677e-05
5.699849924962480827e+02 6.138675852451911318e-05
5.708854427213606186e+02 6.016329468107666590e-05
5.717858929464731546e+02 5.904491898694438955e-05
5.726863431715858042e+02 5.817328699419730114e-05
5.735867933966983401e+02 5.783841698104238440e-05
5.744872436218108760e+02 5.814681180253676200e-05
5.753876938469234119e+02 5.876402946441220126e-05
5.762881440720359478e+02 5.927600130587411644e-05
5.771885942971485974e+02 5.939204782701004227e-05
5.780890445222611334e+02 5.893051229804397253e-05
5.789894947473736693e+02 5.791398642714315346e-05
5.798899449724862052e+02 5.658644735221706812e-05
5.807903951975987411e+02 5.530446122852248128e-05
5.816908454227112770e+02 5.441285614804562644e-05
5.825912956478239266e+02 5.405696949298128260e-05
5.834917458729364625e+02 5.417152828021153436e-05
5.843921960980489985e+02 5.459987946798977728e-05
5.852926463231615344e+02 5.519377805703718593e-05
5.861930965482740703e+02 5.585022343338190594e-05
5.870935467733867199e+02 5.642324132852497199e-05
5.879939969984992558e+02 5.672600782123302619e-05
5.888944472236117917e+02 5.666788100518333480e-05
5.897948974487243277e+02 5.633378051171421757e-05
5.906953476738368636e+02 5.598310583369647760e-05
5.915957978989493995e+02 5.587055938527672521e-05
5.924962481240620491e+02 5.603038471341203038e-05
5.933966983491745850e+02 5.627622946535383748e-05
5.942971485742871209e+02 5.636866757160392577e-05
5.951975987993996569e+02 5.626709669464478565e-05
5.960980490245121928e+02 5.606818607394839678e-05
5.969984992496247287e+02 5.580509921299233264e-05
5.978989494747373783e+02 5.551982969716971446e-05
5.987993996998499142e+02 5.526232516352722144e-05
5.996998499249624501e+02 5.499266481186913444e-05
6.006003001500749860e+02 5.460218208491154408e-05
6.015007503751875220e+02 5.410532028302645046e-05
6.024012006003001716e+02 5.363688943715347839e-05
6.033016508254127075e+02 5.314959550568901329e-05
6.042021010505252434e+02 5.244875469488228159e-05
6.051025512756377793e+02 5.153392424275152846e-05
6.060030015007503152e+02 5.059134441318849075e-05
6.069034517258628512e+02 4.977247197876963586e-05
6.078039019509755008e+02 4.914780772405135588e-05
6.087043521760880367e+02 4.872751443127430157e-05
6.096048024012005726e+02 4.838217487896626003e-05
6.105052526263131085e+02 4.793648759819351416e-05
6.114057028514256444e+02 4.742592873975666424e-05
6.123061530765382940e+02 4.697074064975024279e-05
6.132066033016508300e+02 4.651829777176073752e-05
6.141070535267633659e+02 4.595414274283990814e-05
6.150075037518759018e+02 4.531202996800613367e-05
6.159079539769884377e+02 4.480881733489665796e-05
6.168084042021009736e+02 4.466162112738889352e-05
6.177088544272136232e+02 4.488934499043390847e-05
6.186093046523261592e+02 4.537084239055181912e-05
6.195097548774386951e+02 4.594583796142374829e-05
6.204102051025512310e+02 4.641079527947649405e-05
6.213106553276637669e+02 4.673747053757881353e-05
6.222111055527763028e+02 4.697801525183981981e-05
6.231115557778889524e+02 4.702908601944497124e-05
6.240120060030014884e+02 4.679549973890267283e-05
6.249124562281140243e+02 4.646820978805085288e-05
6.258129064532265602e+02 4.636757135362299471e-05
6.267133566783390961e+02 4.656687556362041356e-05
6.276138069034517457e+02 4.695939012129770896e-05
6.285142571285642816e+02 4.749842442642941801e-05
6.294147073536768175e+02 4.812928165429710683e-05
6.303151575787893535e+02 4.858746488916396297e-05
6.312156078039018894e+02 4.854000308220370150e-05
6.321160580290144253e+02 4.799374389705037008e-05
6.330165082541270749e+02 4.722710850288740702e-05
6.339169584792396108e+02 4.645360237344861094e-05
6.348174087043521467e+02 4.569525371764625305e-05
6.357178589294646827e+02 4.491508211217507066e-05
6.366183091545772186e+02 4.431540459541118192e-05
6.375187593796898682e+02 4.415539794110246048e-05
6.384192096048024041e+02 4.438103289222900070e-05
6.393196598299149400e+02 4.474025042339145066e-05
6.402201100550274759e+02 4.503354976913723847e-05
6.411205602801400119e+02 4.524066116397305133e-05
6.420210105052525478e+02 4.546729805896739673e-05
6.429214607303651974e+02 4.567614538503114312e-05
6.438219109554777333e+02 4.573172031583325225e-05
6.447223611805902692e+02 4.563756952910955251e-05
6.456228114057028051e+02 4.557793972136170749e-05
6.465232616308153411e+02 4.581830247201252530e-05
6.474237118559278770e+02 4.648370375854482984e-05
6.483241620810405266e+02 4.741449025752396645e-05
6.492246123061530625e+02 4.832294316981140554e-05
6.501250625312655984e+02 4.907189851603299820e-05
6.510255127563781343e+02 4.978655660990081018e-05
6.519259629814906702e+02 5.063820645369705259e-05
6.528264132066033198e+02 5.149599942441476921e-05
6.537268634317158558e+02 5.201415320615709821e-05
6.546273136568283917e+02 5.197613589109780451e-05
6.555277638819409276e+02 5.156040534065777495e-05
6.564282141070534635e+02 5.112331592626417871e-05
6.573286643321659994e+02 5.082430670669159237e-05
6.582291145572786490e+02 5.058303775562614018e-05
6.591295647823911850e+02 5.030014449778979439e-05
6.600300150075037209e+02 5.002710478421383132e-05
6.609304652326162568e+02 4.981876778162604684e-05
6.618309154577287927e+02 4.959187367165358439e-05
6.627313656828414423e+02 4.920629620960025356e-05
6.636318159079539782e+02 4.860822293297354713e-05
6.645322661330665142e+02 4.784082077236106962e-05
6.654327163581790501e+02 4.696595380411936675e-05
6.663331665832915860e+02 4.602799543846264113e-05
6.672336168084041219e+02 4.514986090426223035e-05
6.681340670335167715e+02 4.451678603197722385e-05
6.690345172586293074e+02 4.412116599188976184e-05
6.699349674837418434e+02 4.375385269148109616e-05
6.708354177088543793e+02 4.331032775177968595e-05
6.717358679339669152e+02 4.292770455416941848e-05
6.726363181590794511e+02 4.280821369407405383e-05
6.735367683841921007e+02 4.303953180922527079e-05
6.744372186093046366e+02 4.355110353651658992e-05
6.753376688344171725e+02 4.413093613916434845e-05
6.762381190595297085e+02 4.461703865321782323e-05
6.771385692846422444e+02 4.508174744573069289e-05
6.780390195097548940e+02 4.560280462768011897e-05
6.789394697348674299e+02 4.606852998512393630e-05
6.798399199599799658e+02 4.631056213746326884e-05
6.807403701850925017e+02 4.622685782016375288e-05
6.816408204102050377e+02 4.591633792162545433e-05
6.825412706353175736e+02 4.559601360990002660e-05
6.834417208604302232e+02 4.537365664157705088e-05
6.843421710855427591e+02 4.523472828709548067e-05
6.852426213106552950e+02 4.511688148104355277e-05
6.861430715357678309e+02 4.494493925442654976e-05
6.870435217608803669e+02 4.477632461260810796e-05
6.879439719859930165e+02 4.478020982022674640e-05
6.888444222111055524e+02 4.501955661334776983e-05
6.897448724362180883e+02 4.547101934792236518e-05
6.906453226613306242e+02 4.602904081369730020e-05
6.915457728864431601e+02 4.643912334618558108e-05
6.924462231115556961e+02 4.653704702856439760e-05
6.933466733366683457e+02 4.641694648705977933e-05
6.942471235617808816e+02 4.621214311761129236e-05
6.951475737868934175e+02 4.602771977031099845e-05
6.960480240120059534e+02 4.594392250353022722e-05
6.969484742371184893e+02 4.589084964714005486e-05
6.978489244622311389e+02 4.571300449725648388e-05
6.987493746873436749e+02 4.544425982835529048e-05
6.996498249124562108e+02 4.540002420310621336e-05
7.005502751375687467e+02 4.578261740292851543e-05
7.014507253626812826e+02 4.634855681861206286e-05
7.023511755877938185e+02 4.671338638988999819e-05
7.032516258129064681e+02 4.681050768482094144e-05
7.041520760380190040e+02 4.678140350621513334e-05
7.050525262631315400e+02 4.667369687587508565e-05
7.059529764882440759e+02 4.652100866195360470e-05
7.068534267133566118e+02 4.643965377721915005e-05
7.077538769384691477e+02 4.647243149366686539e-05
7.086543271635817973e+02 4.652313040305715568e-05
7.095547773886943332e+02 4.644356748381794182e-05
7.104552276138068692e+02 4.614891367023617506e-05
7.113556778389194051e+02 4.567339884188584314e-05
7.122561280640319410e+02 4.514623149106449461e-05
7.131565782891445906e+02 4.471754854185688123e-05
7.140570285142571265e+02 4.443481017278580795e-05
7.149574787393696624e+02 4.423544067110853019e-05
7.158579289644821984e+02 4.411216319983943940e-05
7.167583791895947343e+02 4.411057651940410504e-05
7.176588294147072702e+02 4.420334235736309101e-05
7.185592796398199198e+02 4.438078344615225737e-05
7.194597298649324557e+02 4.459474005140607504e-05
7.203601800900449916e+02 4.466787749980327302e-05
7.212606303151575275e+02 4.456077188470720007e-05
7.221610805402700635e+02 4.452192706411545279e-05
7.230615307653827131e+02 4.474733245243005020e-05
7.239619809904952490e+02 4.507325956317922544e-05
7.248624312156077849e+02 4.521097429743635145e-05
7.257628814407203208e+02 4.511736905918277944e-05
7.266633316658328567e+02 4.488551194638424621e-05
7.275637818909453927e+02 4.461837527672699662e-05
7.284642321160580423e+02 4.439921997404517044e-05
7.293646823411705782e+02 4.422998697203005676e-05
7.302651325662831141e+02 4.403070126846920124e-05
7.311655827913956500e+02 4.378892908723794542e-05
7.320660330165081859e+02 4.365707809872191935e-05
7.329664832416207219e+02 4.378411168080390014e-05
7.338669334667333715e+02 4.410749747244164815e-05
7.347673836918459074e+02 4.435671557896125238e-05
7.356678339169584433e+02 4.441293153742137937e-05
7.365682841420709792e+02 4.453517957152996798e-05
7.374687343671835151e+02 4.500402581898170273e-05
7.383691845922961647e+02 4.581451139116519196e-05
7.392696348174087007e+02 4.666505926174588890e-05
7.401700850425212366e+02 4.719052760742502821e-05
7.410705352676337725e+02 4.728079597308701084e-05
7.419709854927463084e+02 4.722648331508603716e-05
7.428714357178588443e+02 4.731201010790929819e-05
7.437718859429714939e+02 4.738488898865092150e-05
7.446723361680840299e+02 4.719712180426392941e-05
7.455727863931965658e+02 4.672798588086992413e-05
7.464732366183091017e+02 4.622353088121374643e-05
7.473736868434216376e+02 4.598694223384489874e-05
7.482741370685342872e+02 4.613448914459685900e-05
7.491745872936468231e+02 4.653285902491359455e-05
7.500750375187593590e+02 4.689414435519656050e-05
7.509754877438718950e+02 4.702902782253979056e-05
7.518759379689844309e+02 4.700318536823376022e-05
7.527763881940969668e+02 4.686917675466293655e-05
7.536768384192096164e+02 4.649696484224750964e-05
7.545772886443221523e+02 4.583031332463164119e-05
7.554777388694346882e+02 4.511381758878186627e-05
7.563781890945472242e+02 4.459281623453902001e-05
7.572786393196597601e+02 4.432007890559940992e-05
7.581790895447722960e+02 4.430223588473624030e-05
7.590795397698849456e+02 4.454230124883525906e-05
7.599799899949974815e+02 4.509714375929409978e-05
7.608804402201100174e+02 4.587020006317815468e-05
7.617808904452225534e+02 4.654224350747692790e-05
7.626813406703350893e+02 4.693207646471775384e-05
7.635817908954477389e+02 4.706987650799227809e-05
7.644822411205602748e+02 4.703291040683361994e-05
7.653826913456728107e+02 4.684832543410944573e-05
7.662831415707853466e+02 4.650612454628848930e-05
7.671835917958978825e+02 4.602215103408170612e-05
7.680840420210104185e+02 4.551467624804092781e-05
7.689844922461230681e+02 4.525798409782147246e-05
7.698849424712356040e+02 4.542384906348553722e-05
7.707853926963481399e+02 4.585536763434876569e-05
7.716858429214606758e+02 4.622297970851637239e-05
7.725862931465732117e+02 4.640304407284913277e-05
7.734867433716858613e+02 4.656018116819549146e-05
7.743871935967983973e+02 4.682476286361243344e-05
7.752876438219109332e+02 4.715806860683226308e-05
7.761880940470234691e+02 4.756420694688642657e-05
7.770885442721360050e+02 4.814352834904478873e-05
7.779889944972485409e+02 4.891493178001086187e-05
7.788894447223611905e+02 4.971655698769767318e-05
7.797898949474737265e+02 5.024378229808421531e-05
7.806903451725862624e+02 5.033647218777744490e-05
7.815907953976987983e+02 5.011448641763237061e-05
7.824912456228113342e+02 4.978127828244502384e-05
7.833916958479238701e+02 4.943762004364200770e-05
7.842921460730365197e+02 4.913512897385143144e-05
7.851925962981490557e+02 4.900503108090685311e-05
7.860930465232615916e+02 4.914881101440295792e-05
7.869934967483741275e+02 4.935876941120165913e-05
7.878939469734866634e+02 4.925473986402139368e-05
7.887943971985993130e+02 4.868524583317136397e-05
7.896948474237118489e+02 4.783710378109040705e-05
7.905952976488243849e+02 4.700031586827197209e-05
7.914957478739369208e+02 4.644892441915268939e-05
7.923961980990494567e+02 4.642551685966416180e-05
7.932966483241619926e+02 4.700083253927210449e-05
7.941970985492746422e+02 4.800180618526109618e-05
7.950975487743871781e+02 4.909813149781000604e-05
7.959979989994997140e+02 5.008955527510495023e-05
7.968984492246122500e+02 5.087101403853291074e-05
7.977988994497247859e+02 5.120343194132169018e-05
7.986993496748374355e+02 5.108752076899978939e-05
7.995997998999499714e+02 5.085031448099364419e-05
8.005002501250625073e+02 5.063265743736581091e-05
8.014007003501750432e+02 5.045362323172967160e-05
8.023011505752875792e+02 5.038310806582235165e-05
8.032016008004001151e+02 5.046163922092375485e-05
8.041020510255127647e+02 5.079315933061724202e-05
8.050025012506253006e+02 5.154993283401109648e-05
8.059029514757378365e+02 5.273227712851369581e-05
8.068034017008503724e+02 5.393838787664182035e-05
8.077038519259629084e+02 5.457451206754371182e-05
8.086043021510754443e+02 5.439849416811886349e-05
8.095047523761880939e+02 5.368459106644631236e-05
8.104052026013006298e+02 5.276729021776611081e-05
8.113056528264131657e+02 5.185834064249679177e-05
8.122061030515257016e+02 5.113642478156873826e-05
8.131065532766382375e+02 5.062144037594322623e-05
8.140070035017508872e+02 5.018558803322604973e-05
8.149074537268634231e+02 4.969812400005897050e-05
8.158079039519759590e+02 4.924051902870126680e-05
8.167083541770884949e+02 4.905919970130077630e-05
8.176088044022010308e+02 4.923652669184181335e-05
8.185092546273135667e+02 4.973657893259415824e-05
8.194097048524262163e+02 5.038186026673262339e-05
8.203101550775387523e+02 5.080449329781011510e-05
8.212106053026512882e+02 5.088211884797460514e-05
8.221110555277638241e+02 5.087243013515418955e-05
8.230115057528763600e+02 5.105596103763792974e-05
8.239119559779890096e+02 5.157482493737319059e-05
8.248124062031015455e+02 5.232673547200126027e-05
8.257128564282140815e+02 5.310052951309525974e-05
8.266133066533266174e+02 5.381644185019631116e-05
8.275137568784391533e+02 5.444688098203074163e-05
8.284142071035516892e+02 5.508068942512712296e-05
8.293146573286643388e+02 5.594574989032863934e-05
8.302151075537768747e+02 5.710453630124158274e-05
8.311155577788894107e+02 5.821195509450828511e-05
8.320160080040019466e+02 5.868748013724964301e-05
8.329164582291144825e+02 5.814289197097247233e-05
8.338169084542270184e+02 5.671436447036195112e-05
8.347173586793396680e+02 5.505507504890764077e-05
8.356178089044522039e+02 5.383291614170797643e-05
8.365182591295647399e+02 5.323115342166139451e-05
8.374187093546772758e+02 5.306008469807913381e-05
8.383191595797898117e+02 5.308935507849103704e-05
8.392196098049024613e+02 5.327695854448625320e-05
8.401200600300149972e+02 5.378000922911065681e-05
8.410205102551275331e+02 5.465984290773361482e-05
8.419209604802400690e+02 5.574577758262673510e-05
8.428214107053526050e+02 5.693400595471655184e-05
8.437218609304651409e+02 5.822530118240118864e-05
8.446223111555777905e+02 5.953568527100042471e-05
8.455227613806903264e+02 6.076975520413149698e-05
8.464232116058028623e+02 6.195876175388195621e-05
8.473236618309153982e+02 6.304345808096491026e-05
8.482241120560279342e+02 6.359939111407831094e-05
8.491245622811405838e+02 6.316621904693164641e-05
8.500250125062531197e+02 6.177850434772539777e-05
8.509254627313656556e+02 5.984545683343641623e-05
8.518259129564781915e+02 5.779198382464807395e-05
8.527263631815907274e+02 5.602372361478555253e-05
8.536268134067032634e+02 5.478263242325204398e-05
8.545272636318159130e+02 5.414279782446127209e-05
8.554277138569284489e+02 5.411071445681981193e-05
8.563281640820409848e+02 5.458300038647913370e-05
8.572286143071535207e+02 5.533983089403363018e-05
8.581290645322660566e+02 5.620487213933411235e-05
8.590295147573785925e+02 5.727408057042413295e-05
8.599299649824912422e+02 5.863595709193787230e-05
8.608304152076037781e+02 6.002188568066645498e-05
8.617308654327163140e+02 6.113926549048921070e-05
8.626313156578288499e+02 6.195264938393476065e-05
8.635317658829413858e+02 6.259951534930824606e-05
8.644322161080540354e+02 6.342976398392131086e-05
8.653326663331665713e+02 6.469604518581164069e-05
8.662331165582791073e+02 6.604931886220491389e-05
8.671335667833916432e+02 6.678176443771445992e-05
8.680340170085041791e+02 6.654994258962789431e-05
8.689344672336167150e+02 6.548801509492031608e-05
8.698349174587293646e+02 6.401973801193498249e-05
8.707353676838419005e+02 6.266212496728927421e-05
8.716358179089544365e+02 6.160924811582152091e-05
8.725362681340669724e+02 6.079300449514744430e-05
8.734367183591795083e+02 6.017714076944688376e-05
8.743371685842921579e+02 5.990044180825074971e-05
8.752376188094046938e+02 6.021258396179136326e-05
8.761380690345172297e+02 6.122522996464624064e-05
8.770385192596297657e+02 6.263476502331793917e-05
8.779389694847423016e+02 6.376150751430555283e-05
8.788394197098548375e+02 6.406554873146615354e-05
8.797398699349674871e+02 6.374449752736948696e-05
8.806403201600800230e+02 6.348886060274466607e-05
8.815407703851925589e+02 6.381384483826585386e-05
8.824412206103050949e+02 6.470282843506880010e-05
8.833416708354176308e+02 6.551595088763967703e-05
8.842421210605301667e+02 6.552056888467784591e-05
8.851425712856428163e+02 6.468616185067081563e-05
8.860430215107553522e+02 6.357303436372921108e-05
8.869434717358678881e+02 6.288646243301032157e-05
8.878439219609804240e+02 6.311748918706138183e-05
8.887443721860929600e+02 6.433434743705484539e-05
8.896448224112056096e+02 6.612330655349689206e-05
8.905452726363181455e+02 6.784673190799844203e-05
8.914457228614306814e+02 6.920117465620498906e-05
8.923461730865432173e+02 7.011056957808438188e-05
8.932466233116557532e+02 7.060446118786661341e-05
8.941470735367682892e+02 7.092318246264653922e-05
8.950475237618809388e+02 7.111805063165073338e-05
8.959479739869934747e+02 7.112927676759926590e-05
8.968484242121060106e+02 7.123350604782758460e-05
8.977488744372185465e+02 7.166172068660931166e-05
8.986493246623310824e+02 7.234751003691873615e-05
8.995497748874437320e+02 7.328130404637888599e-05
9.004502251125562680e+02 7.441228164069044301e-05
9.013506753376688039e+02 7.558330580579614318e-05
9.022511255627813398e+02 7.690475479301452913e-05
9.031515757878938757e+02 7.864777331979309698e-05
9.040520260130064116e+02 8.065675777330865543e-05
9.049524762381190612e+02 8.251740155888816100e-05
9.058529264632315972e+02 8.416755958752096967e-05
9.067533766883441331e+02 8.582397761693482828e-05
9.076538269134566690e+02 8.749784561668636656e-05
9.085542771385692049e+02 8.907456394327580690e-05
9.094547273636817408e+02 9.039668228467497197e-05
9.103551775887943904e+02 9.111695218830212311e-05
9.112556278139069263e+02 9.118542744617177584e-05
9.121560780390194623e+02 9.078312758800946775e-05
9.130565282641319982e+02 8.984983694076534896e-05
9.139569784892445341e+02 8.848621040295121226e-05
9.148574287143571837e+02 8.724753013310355336e-05
9.157578789394697196e+02 8.654342026566559914e-05
9.166583291645822555e+02 8.648166220256512239e-05
9.175587793896947915e+02 8.695601243561102507e-05
9.184592296148073274e+02 8.767772884357577794e-05
9.193596798399198633e+02 8.858852439613026496e-05
9.202601300650325129e+02 8.973094536358622428e-05
9.211605802901450488e+02 9.108558322661450453e-05
9.220610305152575847e+02 9.266595415766999688e-05
9.229614807403701207e+02 9.428584549206256156e-05
9.238619309654826566e+02 9.556545560544700286e-05
9.247623811905953062e+02 9.651350253227692938e-05
9.256628314157078421e+02 9.745745762280901697e-05
9.265632816408203780e+02 9.854796175247533801e-05
9.274637318659329139e+02 9.958697672136926165e-05
9.283641820910454499e+02 1.001513668141065658e-04
9.292646323161579858e+02 9.997424824643533236e-05
9.301650825412706354e+02 9.912449308238867579e-05
9.310655327663831713e+02 9.783145464939063739e-05
9.319659829914957072e+02 9.649880054856069343e-05
9.328664332166082431e+02 9.577757977716873990e-05
9.337668834417207790e+02 9.589574317645648026e-05
9.346673336668334287e+02 9.637258349494628063e-05
9.355677838919459646e+02 9.681272180555934072e-05
9.364682341170585005e+02 9.730628216809065719e-05
9.373686843421710364e+02 9.795715086701489607e-05
9.382691345672835723e+02 9.855967287037652581e-05
9.391695847923961082e+02 9.883891770887779401e-05
9.400700350175087578e+02 9.873820333215904146e-05
9.409704852426212938e+02 9.841298596954744051e-05
9.418709354677338297e+02 9.813862651380599164e-05
9.427713856928463656e+02 9.810235671593251221e-05
9.436718359179589015e+02 9.854630948389188436e-05
9.445722861430714374e+02 9.987764765480490079e-05
9.454727363681840870e+02 1.021903835031271997e-04
9.463731865932966230e+02 1.050146226590280377e-04
9.472736368184091589e+02 1.077630735816671585e-04
9.481740870435216948e+02 1.099499170856067153e-04
9.490745372686342307e+02 1.111156762893533852e-04
9.499749874937468803e+02 1.110513327385049935e-04
9.508754377188594162e+02 1.101769927620444299e-04
9.517758879439719522e+02 1.095014333873277010e-04
9.526763381690844881e+02 1.098071951896090648e-04
9.535767883941970240e+02 1.112860911794480976e-04
9.544772386193095599e+02 1.137396221154753355e-04
9.553776888444222095e+02 1.168881247846904030e-04
9.562781390695347454e+02 1.202888982223457428e-04
9.571785892946472813e+02 1.233136562897299484e-04
9.580790395197598173e+02 1.257207982859538155e-04
9.589794897448723532e+02 1.279002983587461482e-04
9.598799399699850028e+02 1.300956647977620810e-04
9.607803901950975387e+02 1.318984427528638076e-04
9.616808404202100746e+02 1.329646862010008162e-04
9.625812906453226105e+02 1.333121897258364278e-04
9.634817408704351465e+02 1.330120683227186372e-04
9.643821910955476824e+02 1.324617467902696019e-04
9.652826413206603320e+02 1.324974322274073235e-04
9.661830915457728679e+02 1.337341783514885433e-04
9.670835417708854038e+02 1.361971471281126010e-04
9.679839919959979397e+02 1.391859696371395725e-04
9.688844422211104757e+02 1.413940350511029250e-04
9.697848924462230116e+02 1.419894837018457470e-04
9.706853426713356612e+02 1.413730579135943335e-04
9.715857928964481971e+02 1.408638402598238473e-04
9.724862431215607330e+02 1.416982957196738437e-04
9.733866933466732689e+02 1.441570848900351146e-04
9.742871435717858049e+02 1.475449429402495591e-04
9.751875937968984545e+02 1.510242289566460238e-04
9.760880440220109904e+02 1.541724660770883281e-04
9.769884942471235263e+02 1.570879197698381551e-04
9.778889444722360622e+02 1.603029529836049502e-04
9.787893946973485981e+02 1.636193364716613172e-04
9.796898449224611340e+02 1.661130646358741677e-04
9.805902951475737837e+02 1.672231894461087380e-04
9.814907453726863196e+02 1.671217099217369578e-04
9.823911955977988555e+02 1.666378558706599583e-04
9.832916458229113914e+02 1.670424891477680573e-04
9.841920960480239273e+02 1.690335304190169964e-04
9.850925462731365769e+02 1.717707569389515855e-04
9.859929964982491128e+02 1.739543059615938784e-04
9.868934467233616488e+02 1.752692842894714993e-04
9.877938969484741847e+02 1.764021586969896952e-04
9.886943471735867206e+02 1.781991965149380631e-04
9.895947973986992565e+02 1.806765096846558386e-04
9.904952476238119061e+02 1.831480695301938876e-04
9.913956978489244420e+02 1.850536839102305499e-04
9.922961480740369780e+02 1.864235108438322018e-04
9.931965982991495139e+02 1.877117131206378368e-04
9.940970485242620498e+02 1.894603937484336438e-04
9.949974987493745857e+02 1.918447204861263415e-04
9.958979489744872353e+02 1.943541079157567780e-04
9.967983991995997712e+02 1.961749138807707506e-04
9.976988494247123072e+02 1.970561756167621317e-04
9.985992996498248431e+02 1.975252829262110410e-04
9.994997498749373790e+02 1.984443954134565750e-04
1.000400200100050029e+03 2.005649523617436655e-04
1.001300650325162565e+03 2.041435796337268127e-04
1.002201100550275100e+03 2.086661719543456844e-04
1.003101550775387636e+03 2.125247475047906370e-04
1.004002001000500172e+03 2.137544087032798243e-04
1.004902451225612708e+03 2.118441748617171875e-04
1.005802901450725358e+03 2.076536241506687832e-04
1.006703351675837894e+03 2.027697084351458832e-04
1.007603801900950430e+03 1.992847041093010678e-04
1.008504252126062966e+03 1.979988900035044991e-04
1.009404702351175501e+03 1.976689749636543168e-04
1.010305152576288151e+03 1.972072914512351053e-04
1.011205602801400687e+03 1.972553970656654707e-04
1.012106053026513223e+03 1.990252649654608401e-04
1.013006503251625759e+03 2.030016547905434177e-04
1.013906953476738295e+03 2.084364723600496696e-04
1.014807403701850831e+03 2.136891732359964640e-04
1.015707853926963480e+03 2.175912831727400555e-04
1.016608304152076016e+03 2.203251799203851790e-04
1.017508754377188552e+03 2.227573665999532161e-04
1.018409204602301088e+03 2.251634607431189628e-04
1.019309654827413624e+03 2.272833790758840443e-04
1.020210105052526160e+03 2.295186740619839440e-04
1.021110555277638809e+03 2.324025239936805467e-04
1.022011005502751345e+03 2.352769022553659079e-04
1.022911455727863881e+03 2.373988571014527382e-04
1.023811905952976417e+03 2.389156383364621650e-04
1.024712356178089067e+03 2.398609108248111056e-04
1.025612806403201603e+03 2.400949982463218351e-04
1.026513256628314139e+03 2.401151284111444030e-04
1.027413706853426675e+03 2.401871239828844747e-04
1.028314157078539210e+03 2.400388204359904748e-04
1.029214607303651746e+03 2.398499095431104108e-04
1.030115057528764282e+03 2.404308540869610404e-04
1.031015507753876818e+03 2.426282807965225849e-04
1.031915957978989354e+03 2.466591459850439702e-04
1.032816408204101890e+03 2.517235346562947439e-04
1.033716858429214653e+03 2.562530646896691092e-04
1.034617308654327189e+03 2.589056917907030936e-04
1.035517758879439725e+03 2.590791200498847508e-04
1.036418209104552261e+03 2.571626705678945217e-04
1.037318659329664797e+03 2.548427804369092953e-04
1.038219109554777333e+03 2.540606421873212411e-04
1.039119559779889869e+03 2.556970073094797782e-04
1.040020010005002405e+03 2.593850437107835796e-04
1.040920460230114941e+03 2.640710057045337960e-04
1.041820910455227477e+03 2.693475207411392502e-04
1.042721360680340013e+03 2.750291784316996851e-04
1.043621810905452776e+03 2.798357832092822394e-04
1.044522261130565312e+03 2.823113452430062631e-04
1.045422711355677848e+03 2.825514199855978662e-04
1.046323161580790384e+03 2.816071765241506732e-04
1.047223611805902920e+03 2.798858531354574152e-04
1.048124062031015455e+03 2.776201298243858489e-04
1.049024512256127991e+03 2.759552047472857319e-04
1.049924962481240527e+03 2.759518637350113850e-04
1.050825412706353063e+03 2.770524957300044802e-04
1.051725862931465599e+03 2.782536917953364096e-04
1.052626313156578135e+03 2.795393054914175170e-04
1.053526763381690898e+03 2.816470253136528620e-04
1.054427213606803434e+03 2.849537992770959051e-04
1.055327663831915970e+03 2.888134538024478911e-04
1.056228114057028506e+03 2.923140823541654320e-04
1.057128564282141042e+03 2.949860054027393565e-04
1.058029014507253578e+03 2.968121678918825019e-04
1.058929464732366114e+03 2.982813355288522735e-04
1.059829914957478650e+03 3.000831481197706600e-04
1.060730365182591186e+03 3.023845821409697578e-04
1.061630815407703722e+03 3.045583656896077391e-04
1.062531265632816257e+03 3.056952036147051540e-04
1.063431715857929021e+03 3.056096346751661897e-04
1.064332166083041557e+03 3.054651995142803039e-04
1.065232616308154093e+03 3.067655845962507697e-04
1.066133066533266629e+03 3.092543539600606066e-04
1.067033516758379164e+03 3.111148035232724177e-04
1.067933966983491700e+03 3.110829234393557041e-04
1.068834417208604236e+03 3.093275118886601232e-04
1.069734867433716772e+03 3.072732974713151557e-04
1.070635317658829308e+03 3.060622829809739515e-04
1.071535767883941844e+03 3.054304434540511845e-04
1.072436218109054380e+03 3.049066179810531823e-04
1.073336668334167143e+03 3.050079392308360521e-04
1.074237118559279679e+03 3.060485620092563610e-04
1.075137568784392215e+03 3.080066324933541781e-04
1.076038019009504751e+03 3.108863012073927049e-04
1.076938469234617287e+03 3.140510609506438704e-04
1.077838919459729823e+03 3.165727095918713634e-04
1.078739369684842359e+03 3.183041700494194178e-04
1.079639819909954895e+03 3.197567051920794062e-04
1.080540270135067431e+03 3.210521955875320663e-04
1.081440720360179967e+03 3.216772164435495289e-04
1.082341170585292502e+03 3.215071346359866687e-04
1.083241620810405038e+03 3.208052622951766968e-04
1.084142071035517802e+03 3.196491827076378394e-04
1.085042521260630338e+03 3.184721472827363909e-04
1.085942971485742873e+03 3.179838781948438661e-04
1.086843421710855409e+03 3.181327187513923837e-04
1.087743871935967945e+03 3.187504398108347470e-04
1.088644322161080481e+03 3.202803058968215887e-04
1.089544772386193017e+03 3.234546684524076130e-04
1.090445222611305553e+03 3.285316369575360480e-04
1.091345672836418089e+03 3.347120694372857585e-04
1.092246123061530625e+03 3.412921865836424551e-04
1.093146573286643161e+03 3.486830200092854836e-04
1.094047023511755924e+03 3.568403880705964693e-04
1.094947473736868460e+03 3.644382059975927591e-04
1.095847923961980996e+03 3.704243075981843397e-04
1.096748374187093532e+03 3.752112462959901365e-04
1.097648824412206068e+03 3.790252961744122631e-04
1.098549274637318604e+03 3.805186015962480151e-04
1.099449724862431140e+03 3.787509642167985447e-04
1.100350175087543676e+03 3.746706980460946302e-04
1.101250625312656211e+03 3.701662682045163823e-04
1.102151075537768747e+03 3.665123939001307105e-04
1.103051525762881283e+03 3.645051190257687273e-04
1.103951975987994047e+03 3.653037118178261810e-04
1.104852426213106583e+03 3.691544623805044999e-04
1.105752876438219118e+03 3.744381442459562663e-04
1.106653326663331654e+03 3.791142887493679516e-04
1.107553776888444190e+03 3.828840431456353413e-04
1.108454227113556726e+03 3.863070540098485274e-04
1.109354677338669262e+03 3.892644524362748109e-04
1.110255127563781798e+03 3.915680491120701666e-04
1.111155577788894334e+03 3.930840161259716850e-04
1.112056028014006870e+03 3.939080788267189121e-04
1.112956478239119406e+03 3.947380091280822427e-04
1.113856928464232169e+03 3.964234113005396022e-04
1.114757378689344705e+03 3.991635715680817774e-04
1.115657828914457241e+03 4.018659487482794854e-04
1.116558279139569777e+03 4.026993270623484646e-04
1.117458729364682313e+03 4.016512453504287152e-04
1.118359179589794849e+03 3.996631468299789193e-04
1.119259629814907385e+03 3.975459331016951026e-04
1.120160080040019920e+03 3.970142763057868483e-04
1.121060530265132456e+03 3.993785426260346378e-04
1.121960980490244992e+03 4.033492242979861125e-04
1.122861430715357528e+03 4.068308851155434192e-04
1.123761880940470292e+03 4.084718486205393857e-04
1.124662331165582827e+03 4.080067774000931211e-04
1.125562781390695363e+03 4.074429830863181279e-04
1.126463231615807899e+03 4.094868109272765304e-04
1.127363681840920435e+03 4.155872815204432729e-04
1.128264132066032971e+03 4.252595614655445646e-04
1.129164582291145507e+03 4.360667734469021554e-04
1.130065032516258043e+03 4.466535785337101224e-04
1.130965482741370579e+03 4.589879966893108923e-04
1.131865932966483115e+03 4.750905638735823818e-04
1.132766383191595651e+03 4.934558856854239384e-04
1.133666833416708187e+03 5.101904735950272282e-04
1.134567283641820950e+03 5.222325748973457357e-04
1.135467733866933486e+03 5.295925995678853106e-04
1.136368184092046022e+03 5.360395921833594054e-04
1.137268634317158558e+03 5.451853206562741081e-04
1.138169084542271094e+03 5.560594101012550621e-04
1.139069534767383630e+03 5.659593430531476227e-04
1.139969984992496165e+03 5.754769760663466750e-04
1.140870435217608701e+03 5.868456741262511418e-04
1.141770885442721237e+03 6.013054140190950527e-04
1.142671335667833773e+03 6.174772130850550910e-04
1.143571785892946309e+03 6.335582727864218092e-04
1.144472236118059072e+03 6.510121116678601466e-04
1.145372686343171608e+03 6.708974062220260121e-04
1.146273136568284144e+03 6.922678102929886220e-04
1.147173586793396680e+03 7.170253866916808869e-04
1.148074037018509216e+03 7.523274836792568114e-04
1.148974487243621752e+03 8.048118799037835185e-04
1.149874937468734288e+03 8.760887250278559133e-04
1.150775387693846824e+03 9.623678645972020976e-04
1.151675837918959360e+03 1.056613704809446349e-03
1.152576288144071896e+03 1.156728602049006665e-03
1.153476738369184432e+03 1.263027615158761070e-03
1.154377188594297195e+03 1.365769505275235681e-03
1.155277638819409731e+03 1.454801479229781867e-03
1.156178089044522267e+03 1.535307506662918946e-03
1.157078539269634803e+03 1.622678607138226857e-03
1.157978989494747339e+03 1.731376971698728824e-03
1.158879439719859874e+03 1.860653454916258182e-03
1.159779889944972410e+03 1.994466404447102839e-03
1.160680340170084946e+03 2.118939622276302774e-03
1.161580790395197482e+03 2.230367460760815379e-03
1.162481240620310018e+03 2.325603461376032303e-03
1.163381690845422554e+03 2.393244789132860286e-03
1.164282141070535317e+03 2.426008310147359515e-03
1.165182591295647853e+03 2.432955965947652260e-03
1.166083041520760389e+03 2.424766857314791281e-03
1.166983491745872925e+03 2.398761020212783826e-03
1.167883941970985461e+03 2.349963077139288932e-03
1.168784392196097997e+03 2.275911647192627434e-03
1.169684842421210533e+03 2.173726160877253750e-03
1.170585292646323069e+03 2.046084560579035112e-03
1.171485742871435605e+03 1.906840913058979042e-03
1.172386193096548141e+03 1.776672586588692740e-03
1.173286643321660677e+03 1.670316322417879319e-03
1.174187093546773440e+03 1.584787472023544861e-03
1.175087543771885976e+03 1.508744295946738267e-03
1.175987993996998512e+03 1.440349117094352066e-03
1.176888444222111048e+03 1.381949651831873137e-03
1.177788894447223583e+03 1.336910512590060423e-03
1.178689344672336119e+03 1.307644134050195590e-03
1.179589794897448655e+03 1.291127220262186515e-03
1.180490245122561191e+03 1.282409728480915327e-03
1.181390695347673727e+03 1.276488310143133499e-03
1.182291145572786263e+03 1.265095129089675516e-03
1.183191595797898799e+03 1.241216881969108704e-03
1.184092046023011562e+03 1.209391584584278536e-03
1.184992496248124098e+03 1.181861924709461760e-03
1.185892946473236634e+03 1.167465504731673683e-03
1.186793396698349170e+03 1.167054029179041179e-03
1.187693846923461706e+03 1.174514611421843260e-03
1.188594297148574242e+03 1.182728897332968642e-03
1.189494747373686778e+03 1.189870219679916392e-03
1.190395197598799314e+03 1.194936506023631809e-03
1.191295647823911850e+03 1.195105115557214531e-03
1.192196098049024386e+03 1.190121185891339362e-03
1.193096548274136921e+03 1.183378158425629940e-03
1.193996998499249457e+03 1.177974782161579246e-03
1.194897448724362221e+03 1.170757569231234765e-03
1.195797898949474757e+03 1.153637466687486290e-03
1.196698349174587293e+03 1.123814018146302492e-03
1.197598799399699828e+03 1.084961725090108353e-03
1.198499249624812364e+03 1.043646878681368621e-03
1.199399699849924900e+03 1.008295638960773379e-03
1.200300150075037436e+03 9.847295738458180289e-04
1.201200600300149972e+03 9.725715501855483613e-04
1.202101050525262508e+03 9.680455177475618973e-04
1.203001500750375044e+03 9.693626825372188890e-04
1.203901950975487580e+03 9.771724884777345001e-04
1.204802401200600343e+03 9.891637640155640735e-04
1.205702851425712879e+03 9.980891869175783845e-04
1.206603301650825415e+03 9.994009559470573047e-04
1.207503751875937951e+03 9.961503581436520049e-04
1.208404202101050487e+03 9.918420546164157144e-04
1.209304652326163023e+03 9.871787646295812364e-04
1.210205102551275559e+03 9.847730903497220467e-04
1.211105552776388095e+03 9.870780357486442363e-04
1.212006003001500630e+03 9.929070136021568484e-04
1.212906453226613166e+03 9.967914581173642659e-04
1.213806903451725702e+03 9.924556647941998842e-04
1.214707353676838466e+03 9.781487696681975298e-04
1.215607803901951002e+03 9.553505953935455481e-04
1.216508254127063537e+03 9.282586975825614329e-04
1.217408704352176073e+03 9.015602240338141046e-04
1.218309154577288609e+03 8.771877567321083747e-04
1.219209604802401145e+03 8.539317127524818658e-04
1.220110055027513681e+03 8.285822046464530119e-04
1.221010505252626217e+03 8.021214390636223057e-04
1.221910955477738753e+03 7.802638764616494664e-04
1.222811405702851289e+03 7.662082495001396173e-04
1.223711855927963825e+03 7.597806546224851725e-04
1.224612306153076588e+03 7.601613421947973209e-04
1.225512756378189124e+03 7.657723620911967202e-04
1.226413206603301660e+03 7.744071440125550963e-04
1.227313656828414196e+03 7.851768423987662542e-04
1.228214107053526732e+03 7.970732858408510193e-04
1.229114557278639268e+03 8.055776882488089935e-04
1.230015007503751804e+03 8.063340752276290527e-04
1.230915457728864340e+03 7.977015030244412721e-04
1.231815907953976875e+03 7.810736870801312549e-04
1.232716358179089411e+03 7.641528228699241481e-04
1.233616808404201947e+03 7.574651559931031182e-04
1.234517258629314711e+03 7.633049724801670545e-04
1.235417708854427246e+03 7.757676885624594518e-04
1.236318159079539782e+03 7.877501416275008899e-04
1.237218609304652318e+03 7.958694086957347454e-04
1.238119059529764854e+03 8.000802642835488183e-04
1.239019509754877390e+03 7.997567735293952592e-04
1.239919959979989926e+03 7.956705513305900720e-04
1.240820410205102462e+03 7.912116103227395019e-04
1.241720860430214998e+03 7.888809125296335038e-04
1.242621310655327534e+03 7.894237781482711137e-04
1.243521760880440070e+03 7.934412987310378263e-04
1.244422211105552606e+03 8.020812428936900315e-04
1.245322661330665369e+03 8.140434506603506969e-04
1.246223111555777905e+03 8.263604132556618374e-04
1.247123561780890441e+03 8.400402239408700936e-04
1.248024012006002977e+03 8.576108116718041737e-04
1.248924462231115513e+03 8.768425255812910182e-04
1.249824912456228049e+03 8.938735544903094604e-04
1.250725362681340584e+03 9.090738265774879218e-04
1.251625812906453120e+03 9.247468885351295322e-04
1.252526263131565656e+03 9.404031082816075591e-04
1.253426713356678192e+03 9.538684165132732757e-04
1.254327163581790728e+03 9.625667240096128820e-04
1.255227613806903491e+03 9.641555654655297207e-04
1.256128064032016027e+03 9.592130392944275136e-04
1.257028514257128563e+03 9.519133055755743707e-04
1.257928964482241099e+03 9.469354687697324356e-04
1.258829414707353635e+03 9.472651630019083896e-04
1.259729864932466171e+03 9.538395503830701195e-04
1.260630315157578707e+03 9.646891983761799773e-04
1.261530765382691243e+03 9.778961880958360157e-04
1.262431215607803779e+03 9.947984896037822926e-04
1.263331665832916315e+03 1.017857153098996855e-03
1.264232116058028851e+03 1.045702520691287529e-03
1.265132566283141614e+03 1.073155319776817338e-03
1.266033016508254150e+03 1.096138200193293773e-03
1.266933466733366686e+03 1.113601632914510385e-03
1.267833916958479222e+03 1.125399009155404750e-03
1.268734367183591758e+03 1.131922147534150744e-03
1.269634817408704293e+03 1.135485531415790159e-03
1.270535267633816829e+03 1.139343403678374925e-03
1.271435717858929365e+03 1.146288679053484097e-03
1.272336168084041901e+03 1.158758953526902585e-03
1.273236618309154437e+03 1.177884226411569967e-03
1.274137068534266973e+03 1.202321562123291176e-03
1.275037518759379736e+03 1.228830487736084359e-03
1.275937968984492272e+03 1.254239675945368563e-03
1.276838419209604808e+03 1.277738763576053349e-03
1.277738869434717344e+03 1.301334185267786700e-03
1.278639319659829880e+03 1.327869025943846648e-03
1.279539769884942416e+03 1.358128434206991222e-03
1.280440220110054952e+03 1.390017966175361407e-03
1.281340670335167488e+03 1.421016030319802214e-03
1.282241120560280024e+03 1.450072905837354945e-03
1.283141570785392560e+03 1.477573708586765039e-03
1.284042021010505096e+03 1.503133214795569165e-03
1.284942471235617859e+03 1.523633462289962753e-03
1.285842921460730395e+03 1.537717861336067001e-03
1.286743371685842931e+03 1.547038501972634178e-03
1.287643821910955467e+03 1.552421833827855946e-03
1.288544272136068003e+03 1.554688494277318327e-03
1.289444722361180538e+03 1.557099439011058999e-03
1.290345172586293074e+03 1.563721923686253040e-03
1.291245622811405610e+03 1.574608545434413908e-03
1.292146073036518146e+03 1.586220384621061510e-03
1.293046523261630682e+03 1.597606940158745673e-03
1.293946973486743218e+03 1.610507731352748282e-03
1.294847423711855754e+03 1.624878976689600463e-03
1.295747873936968517e+03 1.640613413644170532e-03
1.296648324162081053e+03 1.659916425970748470e-03
1.297548774387193589e+03 1.683596312730387470e-03
1.298449224612306125e+03 1.708937162491387099e-03
1.299349674837418661e+03 1.734060730143527828e-03
1.300250125062531197e+03 1.759771013925847272e-03
1.301150575287643733e+03 1.787583189831230303e-03
1.302051025512756269e+03 1.818183692725732587e-03
1.302951475737868805e+03 1.850219152424012383e-03
1.303851925962981340e+03 1.881556020944818303e-03
1.304752376188093876e+03 1.913553187870928145e-03
1.305652826413206640e+03 1.950340844326626253e-03
1.306553276638319176e+03 1.993756386279396664e-03
1.307453726863431712e+03 2.039286673575745057e-03
1.308354177088544247e+03 2.079404486613430948e-03
1.309254627313656783e+03 2.112898566220023765e-03
1.310155077538769319e+03 2.143711122313379878e-03
1.311055527763881855e+03 2.174964215305896526e-03
1.311955977988994391e+03 2.208494564879559877e-03
1.312856428214106927e+03 2.244933319975392274e-03
1.313756878439219463e+03 2.283527754447000138e-03
1.314657328664331999e+03 2.322994725011142802e-03
1.315557778889444762e+03 2.362287132242817198e-03
1.316458229114557298e+03 2.398476252594735139e-03
1.317358679339669834e+03 2.429803094527528944e-03
1.318259129564782370e+03 2.460973773122612351e-03
1.319159579789894906e+03 2.499129733742014303e-03
1.320060030015007442e+03 2.546455066084856757e-03
1.320960480240119978e+03 2.599039640131353343e-03
1.321860930465232514e+03 2.653980778520760673e-03
1.322761380690345050e+03 2.711537110434304471e-03
1.323661830915457585e+03 2.770945363460637374e-03
1.324562281140570121e+03 2.831723078489735076e-03
1.325462731365682885e+03 2.893458698108682635e-03
1.326363181590795421e+03 2.956238179297595355e-03
1.327263631815907956e+03 3.019694750339709920e-03
1.328164082041020492e+03 3.082702072189489727e-03
1.329064532266133028e+03 3.150970890730711745e-03
1.329964982491245564e+03 3.233014928997713158e-03
1.330865432716358100e+03 3.328840578854460035e-03
1.331765882941470636e+03 3.431179444644754956e-03
1.332666333166583172e+03 3.533962241822543194e-03
1.333566783391695708e+03 3.633934825504331681e-03
1.334467233616808244e+03 3.727724795979507101e-03
1.335367683841921007e+03 3.810349145899991508e-03
1.336268134067033543e+03 3.876511551270062170e-03
1.337168584292146079e+03 3.929528840555294479e-03
1.338069034517258615e+03 3.983767696571955536e-03
1.338969484742371151e+03 4.054733734284055036e-03
1.339869934967483687e+03 4.148119391219867724e-03
1.340770385192596223e+03 4.256218635865931937e-03
1.341670835417708759e+03 4.368811021606321121e-03
1.342571285642821294e+03 4.490231468941402113e-03
1.343471735867933830e+03 4.633257452567113993e-03
1.344372186093046366e+03 4.797098729644818163e-03
1.345272636318158902e+03 4.963100316568424056e-03
1.346173086543271666e+03 5.116861836634374952e-03
1.347073536768384201e+03 5.259503513284062397e-03
1.347973986993496737e+03 5.397517564868006650e-03
1.348874437218609273e+03 5.531995693868324397e-03
1.349774887443721809e+03 5.654185095198507871e-03
1.350675337668834345e+03 5.764118355545301900e-03
1.351575787893946881e+03 5.876964101270009885e-03
1.352476238119059417e+03 6.013831483204166647e-03
1.353376688344171953e+03 6.197073706012624222e-03
1.354277138569284489e+03 6.435973318355090768e-03
1.355177588794397025e+03 6.710974183695600156e-03
1.356078039019509788e+03 6.980154507979270326e-03
1.356978489244622324e+03 7.210321887152591411e-03
1.357878939469734860e+03 7.390043822215805643e-03
1.358779389694847396e+03 7.530132500053456253e-03
1.359679839919959932e+03 7.663555346817462616e-03
1.360580290145072468e+03 7.822165992169017798e-03
1.361480740370185003e+03 8.006747927825937430e-03
1.362381190595297539e+03 8.191256430688246409e-03
1.363281640820410075e+03 8.359819233679323391e-03
1.364182091045522611e+03 8.527716241647094117e-03
1.365082541270635147e+03 8.725348857122519619e-03
1.365982991495747910e+03 8.975714901198930673e-03
1.366883441720860446e+03 9.277606895250143856e-03
1.367783891945972982e+03 9.607324581164570013e-03
1.368684342171085518e+03 9.941372626680341704e-03
1.369584792396198054e+03 1.026565569052706635e-02
1.370485242621310590e+03 1.058366616502974533e-02
1.371385692846423126e+03 1.090929849096396870e-02
1.372286143071535662e+03 1.123096234284525277e-02
1.373186593296648198e+03 1.152592340795967688e-02
1.374087043521760734e+03 1.181350761088978754e-02
1.374987493746873270e+03 1.213849014928664038e-02
1.375887943971986033e+03 1.252039944379823057e-02
1.376788394197098569e+03 1.294370495863795406e-02
1.377688844422211105e+03 1.336757889346523211e-02
1.378589294647323641e+03 1.377072110446290153e-02
1.379489744872436177e+03 1.418219867196807843e-02
1.380390195097548713e+03 1.460831248421531198e-02
1.381290645322661248e+03 1.499376479204657213e-02
1.382191095547773784e+03 1.529656195003400304e-02
1.383091545772886320e+03 1.554301121279005188e-02
1.383991995997998856e+03 1.577892417316927726e-02
1.384892446223111392e+03 1.602079050506654764e-02
1.385792896448224155e+03 1.623318413287351894e-02
1.386693346673336691e+03 1.637907508300279549e-02
1.387593796898449227e+03 1.646930888966799400e-02
1.388494247123561763e+03 1.655993712845168012e-02
1.389394697348674299e+03 1.670088986420001712e-02
1.390295147573786835e+03 1.691353235122402057e-02
1.391195597798899371e+03 1.723226042433247812e-02
1.392096048024011907e+03 1.769553148531235673e-02
1.392996498249124443e+03 1.828310314207710202e-02
1.393896948474236979e+03 1.889543526017411004e-02
1.394797398699349515e+03 1.939735679126657758e-02
1.395697848924462278e+03 1.972867095635447154e-02
1.396598299149574814e+03 1.990678338116940588e-02
1.397498749374687350e+03 1.993893329015872240e-02
1.398399199599799886e+03 1.984616490030723795e-02
1.399299649824912422e+03 1.973275834293703249e-02
1.400200100050024957e+03 1.970471042889683499e-02
1.401100550275137493e+03 1.975995814221816888e-02
1.402001000500250029e+03 1.983339148355725209e-02
1.402901450725362565e+03 1.988532063343649570e-02
1.403801900950475101e+03 1.987361566104181229e-02
1.404702351175587637e+03 1.976125001070083015e-02
1.405602801400700173e+03 1.958491694348251863e-02
1.406503251625812936e+03 1.941394235780350558e-02
1.407403701850925472e+03 1.930277925613744366e-02
1.408304152076038008e+03 1.925704845043376898e-02
1.409204602301150544e+03 1.920152526860961079e-02
1.410105052526263080e+03 1.903945119127508148e-02
1.411005502751375616e+03 1.875918743030194000e-02
1.411905952976488152e+03 1.842834884376346252e-02
1.412806403201600688e+03 1.809980978412600514e-02
1.413706853426713224e+03 1.778205081202386198e-02
1.414607303651825760e+03 1.745046723253626877e-02
1.415507753876938295e+03 1.708456704524913272e-02
1.416408204102051059e+03 1.672837934904521442e-02
1.417308654327163595e+03 1.643007825290061785e-02
1.418209104552276131e+03 1.615134119012658423e-02
1.419109554777388666e+03 1.581851928225587109e-02
1.420010005002501202e+03 1.542152640004660138e-02
1.420910455227613738e+03 1.500817084055577552e-02
1.421810905452726274e+03 1.460425734702514890e-02
1.422711355677838810e+03 1.419478408023256560e-02
1.423611805902951346e+03 1.373664270077575196e-02
1.424512256128063882e+03 1.319549296012577366e-02
1.425412706353176418e+03 1.261679560984086020e-02
1.426313156578289181e+03 1.209628026365194321e-02
1.427213606803401717e+03 1.167431190288125212e-02
1.428114057028514253e+03 1.132548444149742567e-02
1.429014507253626789e+03 1.099633811543966437e-02
1.429914957478739325e+03 1.064492932942019340e-02
1.430815407703851861e+03 1.029036027566000017e-02
1.431715857928964397e+03 9.982004269397151339e-03
1.432616308154076933e+03 9.715673504402005597e-03
1.433516758379189469e+03 9.461004064321420007e-03
1.434417208604302004e+03 9.235030635285688613e-03
1.435317658829414540e+03 9.072067265201341421e-03
1.436218109054527304e+03 8.945977881624583156e-03
1.437118559279639840e+03 8.787437959172346089e-03
1.438019009504752376e+03 8.554573543956063564e-03
1.438919459729864911e+03 8.255606063266375180e-03
1.439819909954977447e+03 7.934063047904092031e-03
1.440720360180089983e+03 7.637273714859151887e-03
1.441620810405202519e+03 7.390799713091930102e-03
1.442521260630315055e+03 7.193752816809419019e-03
1.443421710855427591e+03 7.026286700223023304e-03
1.444322161080540127e+03 6.866902301703521790e-03
1.445222611305652663e+03 6.702643894702937054e-03
1.446123061530765426e+03 6.530722244132734083e-03
1.447023511755877962e+03 6.354605377979522830e-03
1.447923961980990498e+03 6.177445183569229420e-03
1.448824412206103034e+03 6.010142673283388678e-03
1.449724862431215570e+03 5.874972962064125420e-03
1.450625312656328106e+03 5.782607020991326237e-03
1.451525762881440642e+03 5.725893127761829023e-03
1.452426213106553178e+03 5.678925458790323906e-03
1.453326663331665713e+03 5.606604268130413980e-03
1.454227113556778249e+03 5.488022815155694199e-03
1.455127563781890785e+03 5.331927224654627560e-03
1.456028014007003321e+03 5.174256801250672923e-03
1.456928464232116085e+03 5.038543250770011889e-03
1.457828914457228620e+03 4.927306043098713187e-03
1.458729364682341156e+03 4.838462387929236448e-03
1.459629814907453692e+03 4.758578250872049983e-03
1.460530265132566228e+03 4.665844500811509171e-03
1.461430715357678764e+03 4.551154889781677988e-03
1.462331165582791300e+03 4.421904869583015776e-03
1.463231615807903836e+03 4.290133038748979513e-03
1.464132066033016372e+03 4.157977388739954490e-03
1.465032516258128908e+03 4.016802379303706372e-03
1.465932966483241444e+03 3.867512150926401618e-03
1.466833416708354207e+03 3.720747618306266373e-03
1.467733866933466743e+03 3.585415906010748846e-03
1.468634317158579279e+03 3.468319245408196892e-03
1.469534767383691815e+03 3.363381242787031721e-03
1.470435217608804351e+03 3.262902476608355029e-03
1.471335667833916887e+03 3.175310150336483478e-03
1.472236118059029423e+03 3.112521606897617268e-03
1.473136568284141958e+03 3.066694607667348749e-03
1.474037018509254494e+03 3.013318226897777549e-03
1.474937468734367030e+03 2.940776919443773268e-03
1.475837918959479566e+03 2.856436808756224275e-03
1.476738369184592329e+03 2.770255549821659669e-03
1.477638819409704865e+03 2.687613495299319075e-03
1.478539269634817401e+03 2.613872099169438443e-03
1.479439719859929937e+03 2.550228298907800291e-03
1.480340170085042473e+03 2.489420770549774595e-03
1.481240620310155009e+03 2.424034197965184000e-03
1.482141070535267545e+03 2.352276341694698510e-03
1.483041520760380081e+03 2.276612482847112026e-03
1.483941970985492617e+03 2.201008302870818660e-03
1.484842421210605153e+03 2.129965608612759739e-03
1.485742871435717689e+03 2.067436151769325593e-03
1.486643321660830452e+03 2.017518882618201878e-03
1.487543771885942988e+03 1.982046877973617314e-03
1.488444222111055524e+03 1.955555223594196857e-03
1.489344672336168060e+03 1.930144327245615762e-03
1.490245122561280596e+03 1.900833273659245214e-03
1.491145572786393132e+03 1.866602411067815178e-03
1.492046023011505667e+03 1.830679917153528024e-03
1.492946473236618203e+03 1.796193342821918388e-03
1.493846923461730739e+03 1.762115153033661560e-03
1.494747373686843275e+03 1.726617561589046702e-03
1.495647823911955811e+03 1.689234809153149393e-03
1.496548274137068574e+03 1.651158805842597305e-03
1.497448724362181110e+03 1.613425267835890331e-03
1.498349174587293646e+03 1.576948333048351376e-03
1.499249624812406182e+03 1.545627105093748095e-03
1.500150075037518718e+03 1.522618645421839126e-03
1.501050525262631254e+03 1.507170589150322445e-03
1.501950975487743790e+03 1.493384668016138226e-03
1.502851425712856326e+03 1.474506364693042469e-03
1.503751875937968862e+03 1.453551458169378280e-03
1.504652326163081398e+03 1.439993632568360628e-03
1.505552776388193934e+03 1.438925103868568230e-03
1.506453226613306470e+03 1.448210349331682627e-03
1.507353676838419233e+03 1.459149537473802740e-03
1.508254127063531769e+03 1.465320532795156725e-03
1.509154577288644305e+03 1.467334091346104551e-03
1.510055027513756841e+03 1.465091265731938370e-03
1.510955477738869376e+03 1.456923924892686902e-03
1.511855927963981912e+03 1.444002561259223128e-03
1.512756378189094448e+03 1.429353077341471295e-03
1.513656828414206984e+03 1.414588337148790700e-03
1.514557278639319520e+03 1.399328647148376150e-03
1.515457728864432056e+03 1.382651522285927980e-03
1.516358179089544592e+03 1.363215136388725270e-03
1.517258629314657355e+03 1.339308761311394994e-03
1.518159079539769891e+03 1.314154713346035123e-03
1.519059529764882427e+03 1.294765639312127781e-03
1.519959979989994963e+03 1.282827687709389708e-03
1.520860430215107499e+03 1.273395065343232860e-03
1.521760880440220035e+03 1.263028327776360765e-03
1.522661330665332571e+03 1.256433925724478352e-03
1.523561780890445107e+03 1.257503251253585305e-03
1.524462231115557643e+03 1.260837282526353336e-03
1.525362681340670179e+03 1.262299400376654720e-03
1.526263131565782714e+03 1.259783450673736824e-03
1.527163581790895478e+03 1.247711549595455173e-03
1.528064032016008014e+03 1.224929579227004720e-03
1.528964482241120550e+03 1.196181665602000102e-03
1.529864932466233086e+03 1.164678753984215278e-03
1.530765382691345621e+03 1.132995233506709550e-03
1.531665832916458157e+03 1.105247271133765353e-03
1.532566283141570693e+03 1.084983161846101492e-03
1.533466733366683229e+03 1.071677455338460126e-03
1.534367183591795765e+03 1.059328935127938631e-03
1.535267633816908301e+03 1.044417986914645451e-03
1.536168084042020837e+03 1.032123197402285732e-03
1.537068534267133600e+03 1.027254671828739139e-03
1.537968984492246136e+03 1.026349698668376376e-03
1.538869434717358672e+03 1.024232818297003429e-03
1.539769884942471208e+03 1.019450569954192653e-03
1.540670335167583744e+03 1.012889331333230707e-03
1.541570785392696280e+03 1.007556657288146166e-03
1.542471235617808816e+03 1.005162703244003594e-03
1.543371685842921352e+03 1.004065598311172256e-03
1.544272136068033888e+03 1.001351783622445295e-03
1.545172586293146423e+03 9.932882549918431187e-04
1.546073036518258959e+03 9.777381271887917481e-04
1.546973486743371723e+03 9.583537497329560608e-04
1.547873936968484259e+03 9.431828742539234700e-04
1.548774387193596795e+03 9.372348049373064845e-04
1.549674837418709330e+03 9.374162706651327200e-04
1.550575287643821866e+03 9.338518503167728049e-04
1.551475737868934402e+03 9.175172279827696706e-04
1.552376188094046938e+03 8.907365057892966667e-04
1.553276638319159474e+03 8.643160049418213220e-04
1.554177088544272010e+03 8.459409215387401690e-04
1.555077538769384546e+03 8.339190261245081788e-04
1.555977988994497082e+03 8.231638465138875439e-04
1.556878439219609618e+03 8.140758068454166923e-04
1.557778889444722381e+03 8.056858868234752181e-04
1.558679339669834917e+03 7.899514167609126723e-04
1.559579789894947453e+03 7.604970848795962511e-04
1.560480240120059989e+03 7.210037903451593354e-04
1.561380690345172525e+03 6.830095084902401952e-04
1.562281140570285061e+03 6.542715276454554290e-04
1.563181590795397597e+03 6.355445466586224883e-04
1.564082041020510133e+03 6.245252075307331733e-04
1.564982491245622668e+03 6.182613879498790850e-04
1.565882941470735204e+03 6.163543029072916443e-04
1.566783391695847740e+03 6.209156132087267303e-04
1.567683841920960504e+03 6.304334516051798062e-04
1.568584292146073039e+03 6.365334294859775971e-04
1.569484742371185575e+03 6.301995009126206424e-04
1.570385192596298111e+03 6.088339358971174304e-04
1.571285642821410647e+03 5.771002955794943528e-04
1.572186093046523183e+03 5.381446678613401816e-04
1.573086543271635719e+03 4.884545458853758928e-04
1.573986993496748255e+03 4.288930129512552635e-04
1.574887443721860791e+03 3.693985524899143897e-04
1.575787893946973327e+03 3.186825257655659404e-04
1.576688344172085863e+03 2.783309583034489915e-04
1.577588794397198626e+03 2.461773937231724304e-04
1.578489244622311162e+03 2.199240624411294735e-04
1.579389694847423698e+03 1.985558613189373686e-04
1.580290145072536234e+03 1.822333223498422551e-04
1.581190595297648770e+03 1.708144050396023979e-04
1.582091045522761306e+03 1.632283423393749366e-04
1.582991495747873842e+03 1.576856660586414198e-04
1.583891945972986377e+03 1.528223713093067283e-04
1.584792396198098913e+03 1.480963632306852077e-04
1.585692846423211449e+03 1.423642660957822573e-04
1.586593296648323985e+03 1.347736099859693742e-04
1.587493746873436749e+03 1.260663507862278194e-04
1.588394197098549284e+03 1.175538098907230258e-04
1.589294647323661820e+03 1.102468114376414863e-04
1.590195097548774356e+03 1.045190304642513134e-04
1.591095547773886892e+03 1.003033234582121106e-04
1.591995997998999428e+03 9.745083533092321730e-05
1.592896448224111964e+03 9.587001319170191033e-05
1.593796898449224500e+03 9.541124775405387037e-05
1.594697348674337036e+03 9.546062626663441477e-05
1.595597798899449572e+03 9.461645455050887623e-05
1.596498249124562108e+03 9.174045125169761521e-05
1.597398699349674871e+03 8.750087283901184117e-05
1.598299149574787407e+03 8.335511823296782674e-05
1.599199599799899943e+03 8.004726528325036483e-05
1.600100050025012479e+03 7.767470242119589032e-05
1.601000500250125015e+03 7.609005032604314930e-05
1.601900950475237551e+03 7.498647574714528187e-05
1.602801400700350086e+03 7.393220760560487680e-05
1.603701850925462622e+03 7.269577633359145506e-05
1.604602301150575158e+03 7.129268282713034969e-05
1.605502751375687694e+03 6.956377593770358698e-05
1.606403201600800230e+03 6.741752307945710380e-05
1.607303651825912766e+03 6.518609385728344526e-05
1.608204102051025529e+03 6.320854822725591854e-05
1.609104552276138065e+03 6.158060708973352225e-05
1.610005002501250601e+03 6.027443898232072846e-05
1.610905452726363137e+03 5.925048407317915487e-05
1.611805902951475673e+03 5.849539299732751946e-05
1.612706353176588209e+03 5.802872089399435489e-05
1.613606803401700745e+03 5.789262521800832051e-05
1.614507253626813281e+03 5.809680653345917388e-05
1.615407703851925817e+03 5.845671718481838651e-05
1.616308154077038353e+03 5.842277067326576140e-05
1.617208604302150889e+03 5.746966318124662110e-05
1.618109054527263652e+03 5.581573605701447893e-05
1.619009504752376188e+03 5.402259543230721170e-05
1.619909954977488724e+03 5.235752286469684519e-05
1.620810405202601260e+03 5.089147976655018199e-05
1.621710855427713796e+03 4.964008261868600052e-05
1.622611305652826331e+03 4.857594469618658838e-05
1.623511755877938867e+03 4.765519416067808532e-05
1.624412206103051403e+03 4.683941566221646208e-05
1.625312656328163939e+03 4.610076746541768298e-05
1.626213106553276475e+03 4.542022420650015604e-05
1.627113556778389011e+03 4.478489788851407910e-05
1.628014007003501774e+03 4.418597163460010710e-05
1.628914457228614310e+03 4.361732919770384530e-05
1.629814907453726846e+03 4.307468992701876247e-05
1.630715357678839382e+03 4.255507710646794076e-05
1.631615807903951918e+03 4.205650687116599607e-05
1.632516258129064454e+03 4.157783427912690056e-05
1.633416708354176990e+03 4.111872986839530371e-05
1.634317158579289526e+03 4.067978995523897998e-05
1.635217608804402062e+03 4.026281068332793732e-05
1.636118059029514598e+03 3.987126973960549407e-05
1.637018509254627133e+03 3.951099634957066408e-05
1.637918959479739897e+03 3.919059827575000220e-05
1.638819409704852433e+03 3.891954667230852045e-05
1.639719859929964969e+03 3.869720024126588933e-05
1.640620310155077505e+03 3.848353385254886852e-05
1.641520760380190040e+03 3.818131219959684200e-05
1.642421210605302576e+03 3.772488358499218053e-05
1.643321660830415112e+03 3.717746563950378872e-05
1.644222111055527648e+03 3.663614528891626662e-05
1.645122561280640184e+03 3.614114992872898295e-05
1.646023011505752720e+03 3.569270387565238756e-05
1.646923461730865256e+03 3.528055330867391068e-05
1.647823911955978019e+03 3.489516177263653668e-05
1.648724362181090555e+03 3.452967838793258114e-05
1.649624812406203091e+03 3.417949448459578623e-05
1.650525262631315627e+03 3.384153180624736482e-05
1.651425712856428163e+03 3.351370204061434498e-05
1.652326163081540699e+03 3.319455253094067261e-05
1.653226613306653235e+03 3.288304321193662980e-05
1.654127063531765771e+03 3.257840678104993048e-05
1.655027513756878307e+03 3.228006015060606984e-05
1.655927963981990843e+03 3.198754745081403499e-05
1.656828414207103378e+03 3.170050264671720190e-05
1.657728864432216142e+03 3.141862453841362995e-05
1.658629314657328678e+03 3.114165971763234209e-05
1.659529764882441214e+03 3.086939072954684039e-05
1.660430215107553749e+03 3.060162770137901401e-05
1.661330665332666285e+03 3.033820232023226010e-05
1.662231115557778821e+03 3.007896342942620552e-05
1.663131565782891357e+03 2.982377375761379332e-05
1.664032016008003893e+03 2.957250745267075577e-05
1.664932466233116429e+03 2.932504819551488511e-05
1.665832916458228965e+03 2.908128773749831585e-05
1.666733366683341501e+03 2.884112475117318476e-05
1.667633816908454037e+03 2.860446391575380677e-05
1.668534267133566800e+03 2.837121518042118708e-05
1.669434717358679336e+03 2.814129316390264247e-05
1.670335167583791872e+03 2.791461665960677112e-05
1.671235617808904408e+03 2.769110822336572739e-05
1.672136068034016944e+03 2.747069382647520888e-05
1.673036518259129480e+03 2.725330256084670217e-05
1.673936968484242016e+03 2.703886638613577117e-05
1.674837418709354552e+03 2.682731991098853764e-05
1.675737868934467087e+03 2.661860020225743033e-05
1.676638319159579623e+03 2.641264661734181441e-05
1.677538769384692159e+03 2.620940065579871532e-05
1.678439219609804923e+03 2.600880582714047107e-05
1.679339669834917459e+03 2.581080753233030989e-05
1.680240120060029994e+03 2.561535295695142089e-05
1.681140570285142530e+03 2.542239097439612637e-05
1.682041020510255066e+03 2.523187205771251009e-05
1.682941470735367602e+03 2.504374819897400590e-05
1.683841920960480138e+03 2.485797283523229930e-05
1.684742371185592674e+03 2.467450078025962461e-05
1.685642821410705210e+03 2.449328816141025481e-05
1.686543271635817746e+03 2.431429236103342138e-05
1.687443721860930282e+03 2.413747196195213784e-05
1.688344172086043045e+03 2.396278669658856799e-05
1.689244622311155581e+03 2.379019739937790129e-05
1.690145072536268117e+03 2.361966596215528673e-05
1.691045522761380653e+03 2.345115529224471720e-05
1.691945972986493189e+03 2.328462927300989631e-05
1.692846423211605725e+03 2.312005272665637999e-05
1.693746873436718261e+03 2.295739137909965508e-05
1.694647323661830796e+03 2.279661182673238100e-05
1.695547773886943332e+03 2.263768150494567411e-05
1.696448224112055868e+03 2.248056865827159940e-05
1.697348674337168404e+03 2.232524231202662510e-05
1.698249124562281168e+03 2.217167224535516161e-05
1.699149574787393703e+03 2.201982896556944712e-05
1.700050025012506239e+03 2.186968368370551175e-05
1.700950475237618775e+03 2.172120829121084872e-05
1.701850925462731311e+03 2.157437533769399724e-05
1.702751375687843847e+03 2.142915800967015150e-05
1.703651825912956383e+03 2.128553011023929858e-05
1.704552276138068919e+03 2.114346603964639904e-05
1.705452726363181455e+03 2.100294077666563556e-05
1.706353176588293991e+03 2.086392986076957999e-05
1.707253626813406527e+03 2.072640937503095239e-05
1.708154077038519290e+03 2.059035592972330086e-05
1.709054527263631826e+03 2.045574664657986657e-05
1.709954977488744362e+03 2.032255914367750497e-05
1.710855427713856898e+03 2.019077152090881035e-05
1.711755877938969434e+03 2.006036234602052935e-05
1.712656328164081970e+03 1.993131064118020121e-05
1.713556778389194506e+03 1.980359587005252881e-05
1.714457228614307041e+03 1.967719792535573629e-05
1.715357678839419577e+03 1.955209711687804503e-05
1.716258129064532113e+03 1.942827415992957879e-05
1.717158579289644649e+03 1.930571016421172065e-05
1.718059029514757185e+03 1.918438662308344370e-05
1.718959479739869948e+03 1.906428540320622821e-05
1.719859929964982484e+03 1.894538873455192234e-05
1.720760380190095020e+03 1.882767920075566361e-05
1.721660830415207556e+03 1.871113972980061036e-05
1.722561280640320092e+03 1.859575358501703085e-05
1.723461730865432628e+03 1.848150435638674436e-05
1.724362181090545164e+03 1.836837595213647160e-05
1.725262631315657700e+03 1.825635259060769743e-05
1.726163081540770236e+03 1.814541879239502264e-05
1.727063531765882772e+03 1.803555937273828679e-05
1.727963981990995308e+03 1.792675943415964290e-05
1.728864432216108071e+03 1.781900435933653066e-05
1.729764882441220607e+03 1.771227980420030616e-05
1.730665332666333143e+03 1.760657169124970958e-05
1.731565782891445679e+03 1.750186620307551849e-05
1.732466233116558215e+03 1.739814977608313931e-05
1.733366683341670750e+03 1.729540909440875247e-05
1.734267133566783286e+03 1.719363108402010402e-05
1.735167583791895822e+03 1.709280290699603474e-05
1.736068034017008358e+03 1.699291195597687614e-05
1.736968484242120894e+03 1.689394584878040409e-05
1.737868934467233430e+03 1.679589242317671959e-05
1.738769384692346193e+03 1.669873973181667964e-05
1.739669834917458729e+03 1.660247603730711558e-05
1.740570285142571265e+03 1.650708980742950825e-05
1.741470735367683801e+03 1.641256971049564537e-05
1.742371185592796337e+03 1.631890461083538554e-05
1.743271635817908873e+03 1.622608356441230393e-05
1.744172086043021409e+03 1.613409581456350613e-05
1.745072536268133945e+03 1.604293078785753546e-05
1.745972986493246481e+03 1.595257809006732418e-05
1.746873436718359017e+03 1.586302750225522418e-05
1.747773886943471553e+03 1.577426897696448594e-05
1.748674337168584316e+03 1.568629263451448889e-05
1.749574787393696852e+03 1.559908875939686020e-05
1.750475237618809388e+03 1.551264779676764021e-05
1.751375687843921924e+03 1.542696034903416329e-05
1.752276138069034459e+03 1.534201717253192722e-05
1.753176588294146995e+03 1.525780917428938487e-05
1.754077038519259531e+03 1.517432740887791156e-05
1.754977488744372067e+03 1.509156307534378066e-05
1.755877938969484603e+03 1.500950751421948739e-05
1.756778389194597139e+03 1.492815220461262369e-05
1.757678839419709675e+03 1.484748876136903270e-05
1.758579289644822438e+03 1.476750893230850154e-05
1.759479739869934974e+03 1.468820459553033588e-05
1.760380190095047510e+03 1.460956775678703950e-05
1.761280640320160046e+03 1.453159054692341513e-05
1.762181090545272582e+03 1.445426521938045837e-05
1.763081540770385118e+03 1.437758414775974661e-05
1.763981990995497654e+03 1.430153982344906673e-05
1.764882441220610190e+03 1.422612485330552425e-05
1.765782891445722726e+03 1.415133195739574917e-05
1.766683341670835262e+03 1.407715396679052882e-05
1.767583791895947797e+03 1.400358382141249883e-05
1.768484242121060333e+03 1.393061456793602655e-05
1.769384692346173097e+03 1.385823935773686115e-05
1.770285142571285633e+03 1.378645144489082677e-05
1.771185592796398169e+03 1.371524418421921104e-05
1.772086043021510704e+03 1.364461102938076065e-05
1.772986493246623240e+03 1.357454553100825466e-05
1.773886943471735776e+03 1.350504133488811372e-05
1.774787393696848312e+03 1.343609218018216798e-05
1.775687843921960848e+03 1.336769189769102269e-05
1.776588294147073384e+03 1.329983440815643979e-05
1.777488744372185920e+03 1.323251372060321509e-05
1.778389194597298456e+03 1.316572393071838070e-05
1.779289644822411219e+03 1.309945921926682987e-05
1.780190095047523755e+03 1.303371385054294249e-05
1.781090545272636291e+03 1.296848217085701345e-05
1.781990995497748827e+03 1.290375860705475931e-05
1.782891445722861363e+03 1.283953766507050639e-05
1.783791895947973899e+03 1.277581392851190548e-05
1.784692346173086435e+03 1.271258205727527520e-05
1.785592796398198971e+03 1.264983678619267694e-05
1.786493246623311506e+03 1.258757292370684022e-05
1.787393696848424042e+03 1.252578535057547673e-05
1.788294147073536578e+03 1.246446901860422746e-05
1.789194597298649342e+03 1.240361894940575435e-05
1.790095047523761878e+03 1.234323023318624870e-05
1.790995497748874413e+03 1.228329802755693044e-05
1.791895947973986949e+03 1.222381755637168856e-05
1.792796398199099485e+03 1.216478410858875686e-05
1.793696848424212021e+03 1.210619303715619824e-05
1.794597298649324557e+03 1.204803975792125654e-05
1.795497748874437093e+03 1.199031974856184146e-05
1.796398199099549629e+03 1.193302854754085450e-05
1.797298649324662165e+03 1.187616175308105721e-05
1.798199099549774701e+03 1.181971502216301081e-05
1.799099549774887464e+03 1.176368406954088839e-05
1.800000000000000000e+03 1.170806466678115000e-05
