0.000000000000000000e+00 8.326158914593308159e-04
9.004502251125562351e-01 1.116744954019928404e-03
1.800900450225112470e+00 1.485862550401615681e-03
2.701350675337668594e+00 1.876558339441346300e-03
3.601800900450224940e+00 2.123171212103319803e-03
4.502251125562780842e+00 2.080426201414454362e-03
5.402701350675337189e+00 1.788115536052503445e-03
6.303151575787893535e+00 1.404720033996940606e-03
7.203601800900449881e+00 1.057994898493860294e-03
8.104052026013006227e+00 7.928613184299285405e-04
9.004502251125561685e+00 6.026851085439750714e-04
9.904952476238118919e+00 4.676086625708734371e-04
1.080540270135067438e+01 3.704899778505626171e-04
1.170585292646323161e+01 2.994014784472294011e-04
1.260630315157578707e+01 2.463613159140814156e-04
1.350675337668834430e+01 2.060288167914696108e-04
1.440720360180089976e+01 1.748209420222149909e-04
1.530765382691345522e+01 1.503127339461005844e-04
1.620810405202601245e+01 1.308291555930310034e-04
1.710855427713856969e+01 1.151425083090975616e-04
1.800900450225112337e+01 1.022242322453746947e-04
1.890945472736368060e+01 9.118965195034730209e-05
1.980990495247623784e+01 8.154553184651552389e-05
2.071035517758879507e+01 7.318681112893719713e-05
2.161080540270134875e+01 6.604404377889605592e-05
2.251125562781390599e+01 5.996460722661116718e-05
2.341170585292646322e+01 5.477758724201112976e-05
2.431215607803901690e+01 5.033910914429657403e-05
2.521260630315157414e+01 4.654155836697596748e-05
2.611305652826413137e+01 4.330940617537192960e-05
2.701350675337668861e+01 4.058579818495577126e-05
2.791395697848924229e+01 3.829810067431497242e-05
2.881440720360179952e+01 3.630973897903586240e-05
2.971485742871435676e+01 3.444828659841841145e-05
3.061530765382691044e+01 3.262666155251558385e-05
3.151575787893946767e+01 3.081484643797015674e-05
3.241620810405202491e+01 2.896706998294383672e-05
3.331665832916458214e+01 2.714973970873981796e-05
3.421710855427713938e+01 2.550910915473811745e-05
3.511755877938969661e+01 2.409536356769397518e-05
3.601800900450224674e+01 2.283087085375742645e-05
3.691845922961480397e+01 2.160992692641126333e-05
3.781890945472736121e+01 2.041950051494323797e-05
3.871935967983991844e+01 1.931936107505790020e-05
3.961980990495247568e+01 1.834933610666343275e-05
4.052026013006503291e+01 1.751178662268876204e-05
4.142071035517759015e+01 1.679643529829401928e-05
4.232116058029014027e+01 1.619634519801093191e-05
4.322161080540269751e+01 1.571312354300783836e-05
4.412206103051525474e+01 1.535786707373056618e-05
4.502251125562781198e+01 1.514745958959129938e-05
4.592296148074036921e+01 1.508787678814450559e-05
4.682341170585292645e+01 1.513687933079889697e-05
4.772386193096548368e+01 1.517860291175289445e-05
4.862431215607803381e+01 1.509431960043843484e-05
4.952476238119059104e+01 1.486291436880012009e-05
5.042521260630314828e+01 1.450664477426299118e-05
5.132566283141570551e+01 1.403116057059387801e-05
5.222611305652826275e+01 1.351537302255196985e-05
5.312656328164081998e+01 1.307684305049594625e-05
5.402701350675337721e+01 1.270524419894213394e-05
5.492746373186592734e+01 1.230092690409087776e-05
5.582791395697848458e+01 1.185895149341119171e-05
5.672836418209104181e+01 1.146093229331209180e-05
5.762881440720359905e+01 1.112398492842725876e-05
5.852926463231615628e+01 1.078980306926423154e-05
5.942971485742871351e+01 1.043211583239141422e-05
6.033016508254127075e+01 1.009965075229426615e-05
6.123061530765382088e+01 9.846283885503782115e-06
6.213106553276637811e+01 9.680556347556906640e-06
6.303151575787893535e+01 9.573004196063008292e-06
6.393196598299149258e+01 9.486301090909976449e-06
6.483241620810404982e+01 9.382073335532233017e-06
6.573286643321659994e+01 9.221543163214326983e-06
6.663331665832916428e+01 8.988874810780836819e-06
6.753376688344171441e+01 8.717915243660874928e-06
6.843421710855427875e+01 8.483566416152430050e-06
6.933466733366682888e+01 8.349735647504248138e-06
7.023511755877939322e+01 8.333893661850258166e-06
7.113556778389194335e+01 8.409218200677214539e-06
7.203601800900449348e+01 8.520470836006437105e-06
7.293646823411705782e+01 8.647380727849443248e-06
7.383691845922960795e+01 8.821069221432753548e-06
7.473736868434217229e+01 9.024756558361933515e-06
7.563781890945472242e+01 9.171544610945282016e-06
7.653826913456728676e+01 9.234350800581495196e-06
7.743871935967983688e+01 9.272407601255755125e-06
7.833916958479238701e+01 9.304749293906644603e-06
7.923961980990495135e+01 9.295974560094321840e-06
8.014007003501750148e+01 9.238624349417125681e-06
8.104052026013006582e+01 9.209458411521472969e-06
8.194097048524261595e+01 9.301479134069306481e-06
8.284142071035518029e+01 9.520135136024214235e-06
8.374187093546773042e+01 9.792220570902931089e-06
8.464232116058028055e+01 1.005179821771364118e-05
8.554277138569284489e+01 1.027755417024055826e-05
8.644322161080539502e+01 1.044834890317449517e-05
8.734367183591795936e+01 1.051688533233470655e-05
8.824412206103050949e+01 1.049434529810693732e-05
8.914457228614307382e+01 1.043537832077207836e-05
9.004502251125562395e+01 1.036258288196576383e-05
9.094547273636817408e+01 1.031182418324936846e-05
9.184592296148073842e+01 1.037606486327738442e-05
9.274637318659328855e+01 1.061095204374939665e-05
9.364682341170585289e+01 1.092787925564089291e-05
9.454727363681840302e+01 1.119951985382293317e-05
9.544772386193096736e+01 1.138262692193554854e-05
9.634817408704351749e+01 1.146678050704878123e-05
9.724862431215606762e+01 1.141816757863492163e-05
9.814907453726863196e+01 1.121986780623544661e-05
9.904952476238118209e+01 1.094157308724657032e-05
9.994997498749374643e+01 1.070078144045676899e-05
1.008504252126062966e+02 1.055699765465211294e-05
1.017508754377188609e+02 1.046552121730516839e-05
1.026513256628314110e+02 1.033125476460937699e-05
1.035517758879439612e+02 1.010129837912591516e-05
1.044522261130565255e+02 9.815199388104436159e-06
1.053526763381690756e+02 9.565491783281631350e-06
1.062531265632816400e+02 9.410799803017215934e-06
1.071535767883941901e+02 9.353346092771207192e-06
1.080540270135067544e+02 9.389697681445989552e-06
1.089544772386193046e+02 9.494874589836595354e-06
1.098549274637318547e+02 9.617560325814251935e-06
1.107553776888444190e+02 9.718805839343925578e-06
1.116558279139569692e+02 9.733867317188100624e-06
1.125562781390695335e+02 9.609599330110363497e-06
1.134567283641820836e+02 9.400276123696127585e-06
1.143571785892946480e+02 9.253580840777736935e-06
1.152576288144071981e+02 9.290288543578093487e-06
1.161580790395197482e+02 9.529210362795083005e-06
1.170585292646323126e+02 9.868394693970345224e-06
1.179589794897448627e+02 1.010161350785081829e-05
1.188594297148574270e+02 1.006976355384306879e-05
1.197598799399699772e+02 9.826156681404245549e-06
1.206603301650825415e+02 9.580247498478530751e-06
1.215607803901950916e+02 9.483648134149261225e-06
1.224612306153076418e+02 9.528200170854156576e-06
1.233616808404202061e+02 9.636641078790705598e-06
1.242621310655327562e+02 9.762093117173557485e-06
1.251625812906453206e+02 9.877879750621177044e-06
1.260630315157578707e+02 9.943808531669580511e-06
1.269634817408704350e+02 9.953817860224791833e-06
1.278639319659829852e+02 9.915011804137151556e-06
1.287643821910955353e+02 9.802076856185932665e-06
1.296648324162080996e+02 9.648360008588518924e-06
1.305652826413206640e+02 9.532963638511708334e-06
1.314657328664331999e+02 9.507042884541855356e-06
1.323661830915457642e+02 9.604580345317971591e-06
1.332666333166583286e+02 9.820227230571966945e-06
1.341670835417708929e+02 1.008836321470621162e-05
1.350675337668834288e+02 1.032054275761344974e-05
1.359679839919959932e+02 1.044350077510550049e-05
1.368684342171085575e+02 1.043107682122694686e-05
1.377688844422210934e+02 1.034020545985741769e-05
1.386693346673336578e+02 1.031110517722358778e-05
1.395697848924462221e+02 1.047220002542452515e-05
1.404702351175587864e+02 1.082350772113939384e-05
1.413706853426713224e+02 1.127562692108230092e-05
1.422711355677838867e+02 1.176079598414659256e-05
1.431715857928964510e+02 1.225400350493897913e-05
1.440720360180089870e+02 1.275046468980312981e-05
1.449724862431215513e+02 1.323723681049918403e-05
1.458729364682341156e+02 1.369882696366916673e-05
1.467733866933466800e+02 1.409865065640969962e-05
1.476738369184592159e+02 1.435097233568359754e-05
1.485742871435717802e+02 1.436720899383317821e-05
1.494747373686843446e+02 1.415481878051952377e-05
1.503751875937968805e+02 1.377999661266767984e-05
1.512756378189094448e+02 1.332900784776408552e-05
1.521760880440220092e+02 1.295831524558418276e-05
1.530765382691345735e+02 1.281322457732373863e-05
1.539769884942471094e+02 1.292411998222495619e-05
1.548774387193596738e+02 1.317380339892483781e-05
1.557778889444722381e+02 1.341666539887239636e-05
1.566783391695847740e+02 1.359716448778386255e-05
1.575787893946973384e+02 1.370366150301924754e-05
1.584792396198099027e+02 1.379064530587164525e-05
1.593796898449224670e+02 1.399580056106717112e-05
1.602801400700350030e+02 1.441675756515318918e-05
1.611805902951475673e+02 1.497957467637926128e-05
1.620810405202601316e+02 1.547381106852109033e-05
1.629814907453726676e+02 1.570191214795868764e-05
1.638819409704852319e+02 1.561101930248140021e-05
1.647823911955977962e+02 1.530883164481676664e-05
1.656828414207103606e+02 1.496099354611616854e-05
1.665832916458228965e+02 1.470956504774523960e-05
1.674837418709354608e+02 1.460459781534595210e-05
1.683841920960480252e+02 1.455049479053524077e-05
1.692846423211605611e+02 1.441782345416776589e-05
1.701850925462731254e+02 1.421223175437139075e-05
1.710855427713856898e+02 1.400377042596634288e-05
1.719859929964982541e+02 1.382781114702845340e-05
1.728864432216107900e+02 1.375360318538602164e-05
1.737868934467233544e+02 1.393781588648805871e-05
1.746873436718359187e+02 1.449769383582048513e-05
1.755877938969484546e+02 1.538253346082904825e-05
1.764882441220610190e+02 1.640445991093182504e-05
1.773886943471735833e+02 1.728283215510447961e-05
1.782891445722861476e+02 1.773504399192040595e-05
1.791895947973986836e+02 1.769187631284984384e-05
1.800900450225112479e+02 1.734581495060435571e-05
1.809904952476238122e+02 1.695427402678768139e-05
1.818909454727363482e+02 1.665138237444292046e-05
1.827913956978489125e+02 1.648149832462809350e-05
1.836918459229614768e+02 1.644575271386555421e-05
1.845922961480740412e+02 1.655807362901796882e-05
1.854927463731865771e+02 1.686193031542813136e-05
1.863931965982991414e+02 1.734627596976788769e-05
1.872936468234117058e+02 1.788766851504720355e-05
1.881940970485242417e+02 1.834864958996125636e-05
1.890945472736368060e+02 1.874898666999001148e-05
1.899949974987493704e+02 1.922192562479209643e-05
1.908954477238619347e+02 1.980342382087752233e-05
1.917958979489744706e+02 2.031166489000707799e-05
1.926963481740870350e+02 2.044316944083804285e-05
1.935967983991995993e+02 2.010044185761936529e-05
1.944972486243121352e+02 1.950577318228720769e-05
1.953976988494246996e+02 1.897563274062175588e-05
1.962981490745372639e+02 1.868587051655526852e-05
1.971985992996498283e+02 1.870705998409037641e-05
1.980990495247623642e+02 1.906142420881953983e-05
1.989994997498749285e+02 1.955217684593595144e-05
1.998999499749874929e+02 1.983629936407092117e-05
2.008004002001000288e+02 1.978534077618332822e-05
2.017008504252125931e+02 1.960966146551856366e-05
2.026013006503251574e+02 1.954187285824670136e-05
2.035017508754377218e+02 1.962107739504592900e-05
2.044022011005502577e+02 1.981292103993183561e-05
2.053026513256628220e+02 2.011350892050370589e-05
2.062031015507753864e+02 2.052406785245688406e-05
2.071035517758879223e+02 2.098591350302198862e-05
2.080040020010004866e+02 2.142627568901924582e-05
2.089044522261130510e+02 2.185250435702537544e-05
2.098049024512256153e+02 2.232002477144025632e-05
2.107053526763381512e+02 2.281243136341398720e-05
2.116058029014507156e+02 2.325936664731058099e-05
2.125062531265632799e+02 2.354539227884690003e-05
2.134067033516758158e+02 2.356861517656185046e-05
2.143071535767883802e+02 2.346424183025624363e-05
2.152076038019009445e+02 2.350425402164762993e-05
2.161080540270135089e+02 2.378505107927228173e-05
2.170085042521260448e+02 2.421441060623071687e-05
2.179089544772386091e+02 2.458095603490398169e-05
2.188094047023511735e+02 2.468246861344839464e-05
2.197098549274637094e+02 2.450296499590793296e-05
2.206103051525762737e+02 2.409070413344541658e-05
2.215107553776888381e+02 2.346624874006482606e-05
2.224112056028014024e+02 2.267480417290773518e-05
2.233116558279139383e+02 2.186690624111863024e-05
2.242121060530265027e+02 2.120734648590231897e-05
2.251125562781390670e+02 2.075208681682063638e-05
2.260130065032516029e+02 2.049650990926915449e-05
2.269134567283641672e+02 2.047258628153650556e-05
2.278139069534767316e+02 2.068032571380290890e-05
2.287143571785892959e+02 2.102562357299611866e-05
2.296148074037018318e+02 2.139199211181451132e-05
2.305152576288143962e+02 2.166905324128648336e-05
2.314157078539269605e+02 2.175237923232692204e-05
2.323161580790394964e+02 2.161780284580371313e-05
2.332166083041520608e+02 2.132861543101829082e-05
2.341170585292646251e+02 2.102731813197587180e-05
2.350175087543771895e+02 2.087215268429697116e-05
2.359179589794897254e+02 2.090871755935616220e-05
2.368184092046022897e+02 2.109795744575854507e-05
2.377188594297148541e+02 2.133268082762252848e-05
2.386193096548273900e+02 2.147005390879216019e-05
2.395197598799399543e+02 2.153749145778754569e-05
2.404202101050525187e+02 2.170809516585094103e-05
2.413206603301650830e+02 2.201333761743245202e-05
2.422211105552776189e+02 2.227173035792869417e-05
2.431215607803901833e+02 2.233152625858732645e-05
2.440220110055027476e+02 2.224153996820766170e-05
2.449224612306152835e+02 2.212224092853302000e-05
2.458229114557278479e+02 2.203493655309148429e-05
2.467233616808404122e+02 2.203061787988844924e-05
2.476238119059529765e+02 2.216606120834310948e-05
2.485242621310655124e+02 2.245951832016942801e-05
2.494247123561780768e+02 2.289135225283386066e-05
2.503251625812906411e+02 2.331464071765788852e-05
2.512256128064031770e+02 2.350698010401750502e-05
2.521260630315157414e+02 2.336520027392620762e-05
2.530265132566283057e+02 2.300242983819222165e-05
2.539269634817408701e+02 2.261025488791186200e-05
2.548274137068534060e+02 2.230677440075169761e-05
2.557278639319659703e+02 2.213955968891312106e-05
2.566283141570785347e+02 2.211039577360097486e-05
2.575287643821910706e+02 2.221586263142565507e-05
2.584292146073036633e+02 2.245102271345454284e-05
2.593296648324161993e+02 2.278618084701387284e-05
2.602301150575287352e+02 2.317457227329449272e-05
2.611305652826413279e+02 2.358826965480852449e-05
2.620310155077538639e+02 2.402488573377773375e-05
2.629314657328663998e+02 2.446846856460854438e-05
2.638319159579789925e+02 2.490215511513050079e-05
2.647323661830915285e+02 2.530860065980633321e-05
2.656328164082040644e+02 2.561681969701431558e-05
2.665332666333166571e+02 2.580299608771309333e-05
2.674337168584291931e+02 2.602726853969785026e-05
2.683341670835417858e+02 2.641311083652647283e-05
2.692346173086543217e+02 2.688795097807986816e-05
2.701350675337668577e+02 2.732909417797166045e-05
2.710355177588794504e+02 2.771598272576864869e-05
2.719359679839919863e+02 2.802974158680894800e-05
2.728364182091045222e+02 2.812005386793755448e-05
2.737368684342171150e+02 2.789908877211321757e-05
2.746373186593296509e+02 2.755959461425336841e-05
2.755377688844421868e+02 2.736375974138480964e-05
2.764382191095547796e+02 2.748589996142855620e-05
2.773386693346673155e+02 2.795179987049362151e-05
2.782391195597798514e+02 2.855138180626781678e-05
2.791395697848924442e+02 2.897312365283040515e-05
2.800400200100049801e+02 2.900529098141808968e-05
2.809404702351175729e+02 2.863945432401927751e-05
2.818409204602301088e+02 2.807155925191681954e-05
2.827413706853426447e+02 2.754757014815297248e-05
2.836418209104552375e+02 2.708977773924938349e-05
2.845422711355677734e+02 2.664678204210130287e-05
2.854427213606803093e+02 2.631635795267065113e-05
2.863431715857929021e+02 2.621980254321781928e-05
2.872436218109054380e+02 2.638677139887925338e-05
2.881440720360179739e+02 2.677840796542939331e-05
2.890445222611305667e+02 2.726621529742971490e-05
2.899449724862431026e+02 2.771832106890002078e-05
2.908454227113556385e+02 2.821247955845287828e-05
2.917458729364682313e+02 2.890984884025988568e-05
2.926463231615807672e+02 2.964359925446642322e-05
2.935467733866933600e+02 3.001066688347488385e-05
2.944472236118058959e+02 2.991725509916007283e-05
2.953476738369184318e+02 2.962944155192192514e-05
2.962481240620310246e+02 2.938430154695321819e-05
2.971485742871435605e+02 2.924952388918923628e-05
2.980490245122560964e+02 2.913769798269131041e-05
2.989494747373686891e+02 2.895349807416980751e-05
2.998499249624812251e+02 2.877153961166934953e-05
3.007503751875937610e+02 2.881946593078595745e-05
3.016508254127063537e+02 2.921497620389445577e-05
3.025512756378188897e+02 2.985216910024473362e-05
3.034517258629314256e+02 3.054113057099458635e-05
3.043521760880440183e+02 3.112065424523193793e-05
3.052526263131565543e+02 3.155301532642975574e-05
3.061530765382691470e+02 3.194877180071155001e-05
3.070535267633816829e+02 3.237410925083667465e-05
3.079539769884942189e+02 3.280001385677028887e-05
3.088544272136068116e+02 3.323191075024426448e-05
3.097548774387193475e+02 3.360136523606078855e-05
3.106553276638318835e+02 3.381981172848935925e-05
3.115557778889444762e+02 3.392046691096216456e-05
3.124562281140570121e+02 3.399788177925261516e-05
3.133566783391695481e+02 3.415995965769287336e-05
3.142571285642821408e+02 3.448347773090060329e-05
3.151575787893946767e+02 3.506019151429486710e-05
3.160580290145072127e+02 3.595565293990836913e-05
3.169584792396198054e+02 3.707063490011269731e-05
3.178589294647323413e+02 3.810949966409735330e-05
3.187593796898449341e+02 3.874944074868826293e-05
3.196598299149574700e+02 3.891645429625471998e-05
3.205602801400700059e+02 3.886149087057510978e-05
3.214607303651825987e+02 3.884194278751239586e-05
3.223611805902951346e+02 3.881757757003313227e-05
3.232616308154076705e+02 3.852916634805858147e-05
3.241620810405202633e+02 3.778315222289254901e-05
3.250625312656327992e+02 3.673341307166985502e-05
3.259629814907453351e+02 3.575302335568930509e-05
3.268634317158579279e+02 3.503026315554868435e-05
3.277638819409704638e+02 3.448478316751518426e-05
3.286643321660829997e+02 3.403067415347888858e-05
3.295647823911955925e+02 3.377537185160593166e-05
3.304652326163081284e+02 3.380148065097888100e-05
3.313656828414207212e+02 3.402530257934969869e-05
3.322661330665332571e+02 3.434124957860677969e-05
3.331665832916457930e+02 3.474911304231579885e-05
3.340670335167583858e+02 3.529860953790781822e-05
3.349674837418709217e+02 3.589194920686195446e-05
3.358679339669834576e+02 3.626374384022890851e-05
3.367683841920960504e+02 3.636993605346350398e-05
3.376688344172085863e+02 3.643856441204719546e-05
3.385692846423211222e+02 3.663883760470806980e-05
3.394697348674337150e+02 3.700785001404120934e-05
3.403701850925462509e+02 3.747802856297197051e-05
3.412706353176587868e+02 3.789279180580884255e-05
3.421710855427713796e+02 3.813134349538821152e-05
3.430715357678839155e+02 3.825719403492779710e-05
3.439719859929965082e+02 3.840594710787599477e-05
3.448724362181090441e+02 3.853312763121404053e-05
3.457728864432215801e+02 3.850633750227271156e-05
3.466733366683341728e+02 3.831536064419043664e-05
3.475737868934467087e+02 3.803093105105338642e-05
3.484742371185592447e+02 3.759610665314674699e-05
3.493746873436718374e+02 3.692975796464220050e-05
3.502751375687843733e+02 3.619590785633806088e-05
3.511755877938969093e+02 3.566577557546731143e-05
3.520760380190095020e+02 3.542961116311392120e-05
3.529764882441220379e+02 3.544213726149457347e-05
3.538769384692345739e+02 3.565955939514659016e-05
3.547773886943471666e+02 3.597679131798092489e-05
3.556778389194597025e+02 3.613921209944633754e-05
3.565782891445722953e+02 3.602511325467515054e-05
3.574787393696848312e+02 3.583490694576770306e-05
3.583791895947973671e+02 3.577649860594086845e-05
3.592796398199099599e+02 3.594994300565603585e-05
3.601800900450224958e+02 3.635084502670639394e-05
3.610805402701350317e+02 3.672955184712726009e-05
3.619809904952476245e+02 3.673939591495797174e-05
3.628814407203601604e+02 3.634078568559767142e-05
3.637818909454726963e+02 3.586860865507913965e-05
3.646823411705852891e+02 3.564414060769588948e-05
3.655827913956978250e+02 3.561646479031348162e-05
3.664832416208103609e+02 3.550200383312223507e-05
3.673836918459229537e+02 3.518211099862709502e-05
3.682841420710354896e+02 3.477247549991818596e-05
3.691845922961480824e+02 3.443818480738500325e-05
3.700850425212606183e+02 3.419825929268198450e-05
3.709854927463731542e+02 3.395304381789791002e-05
3.718859429714857470e+02 3.362090760903803540e-05
3.727863931965982829e+02 3.323903360809592531e-05
3.736868434217108188e+02 3.294118985794168694e-05
3.745872936468234116e+02 3.278974513058201972e-05
3.754877438719359475e+02 3.278600293580215562e-05
3.763881940970484834e+02 3.288231167599200977e-05
3.772886443221610762e+02 3.298173817972904146e-05
3.781890945472736121e+02 3.299080007138196959e-05
3.790895447723861480e+02 3.287312780465367570e-05
3.799899949974987408e+02 3.261607170209205236e-05
3.808904452226112767e+02 3.218629922593630566e-05
3.817908954477238694e+02 3.164526882950585609e-05
3.826913456728364054e+02 3.117489456989551243e-05
3.835917958979489413e+02 3.097309283606386525e-05
3.844922461230615340e+02 3.105438201200232416e-05
3.853926963481740700e+02 3.128881536144478663e-05
3.862931465732866059e+02 3.152790289455085755e-05
3.871935967983991986e+02 3.158458472749455388e-05
3.880940470235117346e+02 3.136990971155007198e-05
3.889944972486242705e+02 3.096206814816532607e-05
3.898949474737368632e+02 3.051434607797291938e-05
3.907953976988493991e+02 3.017381184528387074e-05
3.916958479239619351e+02 3.004881030160968264e-05
3.925962981490745278e+02 3.018707254087282861e-05
3.934967483741870637e+02 3.052920560603470556e-05
3.943971985992996565e+02 3.101987992513418951e-05
3.952976488244121924e+02 3.160694394897227980e-05
3.961980990495247283e+02 3.210993560865424510e-05
3.970985492746373211e+02 3.230180712916310760e-05
3.979989994997498570e+02 3.207025446827392265e-05
3.988994497248623929e+02 3.151723491540753052e-05
3.997998999499749857e+02 3.088586381286447229e-05
4.007003501750875216e+02 3.035979035403015586e-05
4.016008004002000575e+02 2.998167279467814708e-05
4.025012506253126503e+02 2.973256526791865726e-05
4.034017008504251862e+02 2.962851408212421929e-05
4.043021510755377221e+02 2.965246920612427472e-05
4.052026013006503149e+02 2.974490032812766220e-05
4.061030515257628508e+02 2.988490578153746915e-05
4.070035017508754436e+02 3.013841131099432932e-05
4.079039519759879795e+02 3.060445149080294214e-05
4.088044022011005154e+02 3.128636012783304323e-05
4.097048524262131082e+02 3.208295765025820151e-05
4.106053026513256441e+02 3.282694702038155510e-05
4.115057528764381800e+02 3.340852676510987370e-05
4.124062031015507728e+02 3.388915548280980073e-05
4.133066533266633087e+02 3.442706565719231681e-05
4.142071035517758446e+02 3.506004155299272910e-05
4.151075537768884374e+02 3.569011259478459605e-05
4.160080040020009733e+02 3.623183026226577098e-05
4.169084542271135092e+02 3.660095623291603940e-05
4.178089044522261020e+02 3.663195225047194507e-05
4.187093546773386379e+02 3.627952998309816150e-05
4.196098049024512306e+02 3.582172258137949794e-05
4.205102551275637666e+02 3.556470789770097517e-05
4.214107053526763025e+02 3.561999931073446876e-05
4.223111555777888952e+02 3.598576300319345216e-05
4.232116058029014312e+02 3.651765887090822714e-05
4.241120560280139671e+02 3.688151783753787293e-05
4.250125062531265598e+02 3.674514260246496020e-05
4.259129564782390958e+02 3.610128483112795447e-05
4.268134067033516317e+02 3.531565709383089507e-05
4.277138569284642244e+02 3.478828455389931654e-05
4.286143071535767604e+02 3.469817430652721179e-05
4.295147573786892963e+02 3.500082815343209895e-05
4.304152076038018890e+02 3.550064782286735355e-05
4.313156578289144250e+02 3.600672310237200722e-05
4.322161080540270177e+02 3.632019004917408199e-05
4.331165582791395536e+02 3.622554374905555356e-05
4.340170085042520896e+02 3.574423571884127152e-05
4.349174587293646823e+02 3.514306726054428737e-05
4.358179089544772182e+02 3.468164973928382149e-05
4.367183591795897541e+02 3.450908268637494311e-05
4.376188094047023469e+02 3.461952045571449059e-05
4.385192596298148828e+02 3.477312100905747064e-05
4.394197098549274187e+02 3.464929050793425701e-05
4.403201600800400115e+02 3.412449848855363132e-05
4.412206103051525474e+02 3.340302930909333848e-05
4.421210605302650833e+02 3.288118117490503359e-05
4.430215107553776761e+02 3.277724667726191783e-05
4.439219609804902120e+02 3.297823137570582793e-05
4.448224112056028048e+02 3.321264874972031258e-05
4.457228614307153407e+02 3.329504179093453558e-05
4.466233116558278766e+02 3.328084337674224960e-05
4.475237618809404694e+02 3.321886753883377297e-05
4.484242121060530053e+02 3.305610599754329267e-05
4.493246623311655412e+02 3.284627987027530108e-05
4.502251125562781340e+02 3.268593120540382583e-05
4.511255627813906699e+02 3.261131692120984615e-05
4.520260130065032058e+02 3.262414318609158255e-05
4.529264632316157986e+02 3.274139869908371405e-05
4.538269134567283345e+02 3.302791141439220704e-05
4.547273636818408704e+02 3.351713384462591842e-05
4.556278139069534632e+02 3.413630862029363408e-05
4.565282641320659991e+02 3.473102625470074841e-05
4.574287143571785919e+02 3.517737443196825161e-05
4.583291645822911278e+02 3.547365814319058497e-05
4.592296148074036637e+02 3.566074216369816727e-05
4.601300650325162565e+02 3.573365485317629486e-05
4.610305152576287924e+02 3.557581711967382817e-05
4.619309654827413283e+02 3.511815730701975082e-05
4.628314157078539210e+02 3.446360915535057011e-05
4.637318659329664570e+02 3.386406288518612601e-05
4.646323161580789929e+02 3.355498494864941233e-05
4.655327663831915856e+02 3.360490072332784504e-05
4.664332166083041216e+02 3.391679243420266674e-05
4.673336668334167143e+02 3.429323528752513877e-05
4.682341170585292502e+02 3.461338497708196029e-05
4.691345672836417862e+02 3.486189060376819346e-05
4.700350175087543789e+02 3.500022909983764244e-05
4.709354677338669148e+02 3.498402418522410451e-05
4.718359179589794508e+02 3.487560268080002162e-05
4.727363681840920435e+02 3.482501929371489992e-05
4.736368184092045794e+02 3.498801393193534215e-05
4.745372686343171154e+02 3.542213640998388160e-05
4.754377188594297081e+02 3.593605099980864747e-05
4.763381690845422440e+02 3.622673298432318219e-05
4.772386193096547800e+02 3.628394410741108967e-05
4.781390695347673727e+02 3.632693978911131588e-05
4.790395197598799086e+02 3.649117340027025071e-05
4.799399699849925014e+02 3.675789536314662845e-05
4.808404202101050373e+02 3.704695385067131050e-05
4.817408704352175732e+02 3.726339572388961621e-05
4.826413206603301660e+02 3.740194011135375109e-05
4.835417708854427019e+02 3.752400344830737641e-05
4.844422211105552378e+02 3.761364862441307801e-05
4.853426713356678306e+02 3.760283620270885903e-05
4.862431215607803665e+02 3.744599382982835399e-05
4.871435717858929024e+02 3.721050267303465764e-05
4.880440220110054952e+02 3.711477657773992988e-05
4.889444722361180311e+02 3.728830794755178966e-05
4.898449224612305670e+02 3.759481352940492651e-05
4.907453726863431598e+02 3.783036645447792988e-05
4.916458229114556957e+02 3.795346564403654055e-05
4.925462731365682885e+02 3.795962530064522712e-05
4.934467233616808244e+02 3.779897143335290711e-05
4.943471735867933603e+02 3.754933425646951752e-05
4.952476238119059531e+02 3.737367132091394122e-05
4.961480740370184890e+02 3.728724528674855812e-05
4.970485242621310249e+02 3.730153375359629442e-05
4.979489744872436177e+02 3.752668028982273089e-05
4.988494247123561536e+02 3.802958078745171245e-05
4.997498749374686895e+02 3.871964494266554344e-05
5.006503251625812823e+02 3.937601869667683318e-05
5.015507753876938182e+02 3.983300081753025061e-05
5.024512256128063541e+02 4.007519591781582311e-05
5.033516758379189469e+02 4.024111806327376018e-05
5.042521260630314828e+02 4.052961773076599859e-05
5.051525762881440755e+02 4.099976838313099218e-05
5.060530265132566115e+02 4.149148382729496632e-05
5.069534767383691474e+02 4.170923325506927502e-05
5.078539269634817401e+02 4.149108213104716827e-05
5.087543771885942760e+02 4.102212524225261201e-05
5.096548274137068120e+02 4.064522512450217126e-05
5.105552776388194047e+02 4.057566754412067863e-05
5.114557278639319406e+02 4.079114168297151718e-05
5.123561780890445334e+02 4.106975558815364547e-05
5.132566283141570693e+02 4.119124921478295790e-05
5.141570785392696052e+02 4.113505129072504956e-05
5.150575287643821412e+02 4.104476858289524626e-05
5.159579789894946771e+02 4.106471257534185024e-05
5.168584292146073267e+02 4.122940894541372061e-05
5.177588794397198626e+02 4.142913599467798827e-05
5.186593296648323985e+02 4.151105967089303291e-05
5.195597798899449344e+02 4.142673459218103576e-05
5.204602301150574704e+02 4.126564836225498994e-05
5.213606803401700063e+02 4.111950754505993910e-05
5.222611305652826559e+02 4.105646549441259593e-05
5.231615807903951918e+02 4.109387647265687733e-05
5.240620310155077277e+02 4.119268734667966937e-05
5.249624812406202636e+02 4.140888404542988584e-05
5.258629314657327996e+02 4.187972063537076354e-05
5.267633816908454492e+02 4.262999976412968636e-05
5.276638319159579851e+02 4.352850810247083091e-05
5.285642821410705210e+02 4.446858070225870107e-05
5.294647323661830569e+02 4.540794742752960524e-05
5.303651825912955928e+02 4.628847666999248023e-05
5.312656328164081287e+02 4.712077749072170240e-05
5.321660830415207784e+02 4.795065437169769047e-05
5.330665332666333143e+02 4.882376167254720095e-05
5.339669834917458502e+02 4.981662907464033939e-05
5.348674337168583861e+02 5.096611918003521828e-05
5.357678839419709220e+02 5.209517095060331150e-05
5.366683341670835716e+02 5.291541945975693098e-05
5.375687843921961075e+02 5.335028394042667460e-05
5.384692346173086435e+02 5.350592203089963889e-05
5.393696848424211794e+02 5.342324734546459892e-05
5.402701350675337153e+02 5.307532606242173492e-05
5.411705852926462512e+02 5.256015490975102022e-05
5.420710355177589008e+02 5.214931216740036659e-05
5.429714857428714367e+02 5.203731560588732756e-05
5.438719359679839727e+02 5.215421132879516396e-05
5.447723861930965086e+02 5.229616048301361934e-05
5.456728364182090445e+02 5.235034278716071553e-05
5.465732866433215804e+02 5.235283974109373485e-05
5.474737368684342300e+02 5.244871744755138382e-05
5.483741870935467659e+02 5.291142372807910879e-05
5.492746373186593019e+02 5.389059407357376860e-05
5.501750875437718378e+02 5.514375515547943898e-05
5.510755377688843737e+02 5.627040043696958875e-05
5.519759879939970233e+02 5.715014724671200222e-05
5.528764382191095592e+02 5.792608182997220845e-05
5.537768884442220951e+02 5.863216260063442413e-05
5.546773386693346310e+02 5.920486928426243578e-05
5.555777888944471670e+02 5.954464288653069055e-05
5.564782391195597029e+02 5.962332643176828891e-05
5.573786893446723525e+02 5.962916125008400594e-05
5.582791395697848884e+02 5.971519279967441891e-05
5.591795897948974243e+02 5.978814988997032645e-05
5.600800400200099602e+02 5.967089105376619586e-05
5.609804902451224962e+02 5.936084786182234358e-05
5.618809404702351458e+02 5.907261137715328936e-05
5.627813906953476817e+02 5.902003071463740428e-05
5.636818409204602176e+02 5.922593566667925722e-05
5.645822911455727535e+02 5.953978639367549317e-05
5.654827413706852894e+02 5.970291494574166634e-05
5.663831915957978254e+02 5.948581842775479083e-05
5.672836418209104750e+02 5.885825167051432819e-05
5.681840920460230109e+02 5.811456432468556626e-05
5.690845422711355468e+02 5.760458568336386049e-05
5.699849924962480827e+02 5.746639868622904507e-05
5.708854427213606186e+02 5.760798268375058096e-05
5.717858929464731546e+02 5.782949025436304386e-05
5.726863431715858042e+02 5.803736402515677269e-05
5.735867933966983401e+02 5.830230971989164551e-05
5.744872436218108760e+02 5.872312254468934831e-05
5.753876938469234119e+02 5.915022666609291263e-05
5.762881440720359478e+02 5.918936567654122432e-05
5.771885942971485974e+02 5.870115087277489810e-05
5.780890445222611334e+02 5.804544728861339199e-05
5.789894947473736693e+02 5.763176126271050699e-05
5.798899449724862052e+02 5.753598674363043231e-05
5.807903951975987411e+02 5.751267254385018134e-05
5.816908454227112770e+02 5.727936104617675918e-05
5.825912956478239266e+02 5.679792834769745375e-05
5.834917458729364625e+02 5.623969221660998161e-05
5.843921960980489985e+02 5.574218949238445990e-05
5.852926463231615344e+02 5.531332354111767493e-05
5.861930965482740703e+02 5.496164164640140087e-05
5.870935467733867199e+02 5.468905135810413459e-05
5.879939969984992558e+02 5.451431168772834809e-05
5.888944472236117917e+02 5.448969969011788981e-05
5.897948974487243277e+02 5.455824624951777436e-05
5.906953476738368636e+02 5.459022403523073984e-05
5.915957978989493995e+02 5.461882419981070011e-05
5.924962481240620491e+02 5.464557311102475907e-05
5.933966983491745850e+02 5.458616002015992608e-05
5.942971485742871209e+02 5.443612975187225639e-05
5.951975987993996569e+02 5.424580196766201043e-05
5.960980490245121928e+02 5.412175001820160368e-05
5.969984992496247287e+02 5.403264138888170349e-05
5.978989494747373783e+02 5.376903009896000620e-05
5.987993996998499142e+02 5.318552115294337084e-05
5.996998499249624501e+02 5.235133314312271491e-05
6.006003001500749860e+02 5.147176372663837043e-05
6.015007503751875220e+02 5.066013486238880691e-05
6.024012006003001716e+02 4.991859758603139148e-05
6.033016508254127075e+02 4.929328097819955985e-05
6.042021010505252434e+02 4.893169724136152627e-05
6.051025512756377793e+02 4.891990146585915774e-05
6.060030015007503152e+02 4.914607110783802876e-05
6.069034517258628512e+02 4.937581264491000359e-05
6.078039019509755008e+02 4.940014542611388117e-05
6.087043521760880367e+02 4.926036637217702795e-05
6.096048024012005726e+02 4.924285309035213089e-05
6.105052526263131085e+02 4.951125748317152398e-05
6.114057028514256444e+02 4.989425568378910312e-05
6.123061530765382940e+02 5.004821666604344324e-05
6.132066033016508300e+02 4.990636279654347133e-05
6.141070535267633659e+02 4.967800583367500193e-05
6.150075037518759018e+02 4.947689799124956191e-05
6.159079539769884377e+02 4.937771008257887571e-05
6.168084042021009736e+02 4.951741867734672564e-05
6.177088544272136232e+02 4.986691372644606814e-05
6.186093046523261592e+02 5.019883997573949304e-05
6.195097548774386951e+02 5.037078411135271155e-05
6.204102051025512310e+02 5.029555689439215143e-05
6.213106553276637669e+02 4.986483715473462888e-05
6.222111055527763028e+02 4.919729992445396227e-05
6.231115557778889524e+02 4.861596160317705086e-05
6.240120060030014884e+02 4.831697296739170268e-05
6.249124562281140243e+02 4.822891479208434105e-05
6.258129064532265602e+02 4.815915933062160371e-05
6.267133566783390961e+02 4.799997482652181751e-05
6.276138069034517457e+02 4.774558222847724738e-05
6.285142571285642816e+02 4.741757192729224515e-05
6.294147073536768175e+02 4.702308787110765469e-05
6.303151575787893535e+02 4.658803595710652969e-05
6.312156078039018894e+02 4.613467615106682686e-05
6.321160580290144253e+02 4.566533394439132920e-05
6.330165082541270749e+02 4.522965315076700915e-05
6.339169584792396108e+02 4.488500329734239455e-05
6.348174087043521467e+02 4.463568578102399751e-05
6.357178589294646827e+02 4.438092361904401095e-05
6.366183091545772186e+02 4.397794185948089942e-05
6.375187593796898682e+02 4.343950118284526773e-05
6.384192096048024041e+02 4.286983757627984345e-05
6.393196598299149400e+02 4.235488812692157556e-05
6.402201100550274759e+02 4.200100701246623690e-05
6.411205602801400119e+02 4.186522307818477633e-05
6.420210105052525478e+02 4.194532861628474978e-05
6.429214607303651974e+02 4.226964726028487079e-05
6.438219109554777333e+02 4.285301849148056137e-05
6.447223611805902692e+02 4.357880147688935420e-05
6.456228114057028051e+02 4.422618951007821633e-05
6.465232616308153411e+02 4.461989690277244353e-05
6.474237118559278770e+02 4.472542822739935105e-05
6.483241620810405266e+02 4.465923879010110989e-05
6.492246123061530625e+02 4.457281452625890656e-05
6.501250625312655984e+02 4.457818156434974920e-05
6.510255127563781343e+02 4.475447448360127283e-05
6.519259629814906702e+02 4.509157724442554386e-05
6.528264132066033198e+02 4.546230993151370749e-05
6.537268634317158558e+02 4.573730884434088872e-05
6.546273136568283917e+02 4.598724232491555763e-05
6.555277638819409276e+02 4.635046329247458974e-05
6.564282141070534635e+02 4.683611253563545662e-05
6.573286643321659994e+02 4.729880347083682650e-05
6.582291145572786490e+02 4.756288720074755663e-05
6.591295647823911850e+02 4.759126918073697791e-05
6.600300150075037209e+02 4.747324857091824086e-05
6.609304652326162568e+02 4.738870462840179032e-05
6.618309154577287927e+02 4.750259284904818734e-05
6.627313656828414423e+02 4.775036091291844960e-05
6.636318159079539782e+02 4.788681884685800402e-05
6.645322661330665142e+02 4.776487153700592695e-05
6.654327163581790501e+02 4.730240573572216906e-05
6.663331665832915860e+02 4.646887556566121604e-05
6.672336168084041219e+02 4.548430898120689914e-05
6.681340670335167715e+02 4.466415234461408107e-05
6.690345172586293074e+02 4.413478426819537724e-05
6.699349674837418434e+02 4.395163379787532721e-05
6.708354177088543793e+02 4.416968565856768680e-05
6.717358679339669152e+02 4.473158215130036019e-05
6.726363181590794511e+02 4.550063310692632182e-05
6.735367683841921007e+02 4.637851042360376943e-05
6.744372186093046366e+02 4.726287321741202984e-05
6.753376688344171725e+02 4.786990902974099898e-05
6.762381190595297085e+02 4.789630953488637345e-05
6.771385692846422444e+02 4.740586060185206783e-05
6.780390195097548940e+02 4.669179623043589756e-05
6.789394697348674299e+02 4.595873580230545381e-05
6.798399199599799658e+02 4.542527183949930842e-05
6.807403701850925017e+02 4.534495345368189030e-05
6.816408204102050377e+02 4.581730024160456002e-05
6.825412706353175736e+02 4.666413208869953539e-05
6.834417208604302232e+02 4.746384005693041311e-05
6.843421710855427591e+02 4.780895680097009158e-05
6.852426213106552950e+02 4.769036580149900819e-05
6.861430715357678309e+02 4.736047553174641331e-05
6.870435217608803669e+02 4.688375386760711806e-05
6.879439719859930165e+02 4.615033308871702595e-05
6.888444222111055524e+02 4.526057558168943760e-05
6.897448724362180883e+02 4.454942019547618201e-05
6.906453226613306242e+02 4.416931117726072704e-05
6.915457728864431601e+02 4.407452907182863677e-05
6.924462231115556961e+02 4.424167426766954927e-05
6.933466733366683457e+02 4.467974314299840214e-05
6.942471235617808816e+02 4.532511047745449304e-05
6.951475737868934175e+02 4.599271005455899639e-05
6.960480240120059534e+02 4.648757447153690673e-05
6.969484742371184893e+02 4.676473394065347954e-05
6.978489244622311389e+02 4.683813504708088686e-05
6.987493746873436749e+02 4.674639197361150336e-05
6.996498249124562108e+02 4.668641960831384764e-05
7.005502751375687467e+02 4.682762979453045506e-05
7.014507253626812826e+02 4.712500806220707084e-05
7.023511755877938185e+02 4.745762184899100474e-05
7.032516258129064681e+02 4.779146831554089163e-05
7.041520760380190040e+02 4.822211276452825849e-05
7.050525262631315400e+02 4.880255556770768117e-05
7.059529764882440759e+02 4.942540447194985863e-05
7.068534267133566118e+02 4.990043848379153275e-05
7.077538769384691477e+02 4.998134248071254643e-05
7.086543271635817973e+02 4.953462038776239952e-05
7.095547773886943332e+02 4.876913328890532403e-05
7.104552276138068692e+02 4.813179624208971543e-05
7.113556778389194051e+02 4.790160615041699034e-05
7.122561280640319410e+02 4.812050057935472129e-05
7.131565782891445906e+02 4.881591704748621994e-05
7.140570285142571265e+02 4.986981409221302763e-05
7.149574787393696624e+02 5.088269720483473691e-05
7.158579289644821984e+02 5.150488975743949962e-05
7.167583791895947343e+02 5.162791396679312271e-05
7.176588294147072702e+02 5.135012833394919532e-05
7.185592796398199198e+02 5.095402120733622794e-05
7.194597298649324557e+02 5.067508009528860855e-05
7.203601800900449916e+02 5.061046716774317506e-05
7.212606303151575275e+02 5.083820420978707748e-05
7.221610805402700635e+02 5.134269225275659354e-05
7.230615307653827131e+02 5.205480087008011243e-05
7.239619809904952490e+02 5.304674691382483653e-05
7.248624312156077849e+02 5.428110243217757174e-05
7.257628814407203208e+02 5.546262115900836960e-05
7.266633316658328567e+02 5.625042164570970586e-05
7.275637818909453927e+02 5.655283660988459648e-05
7.284642321160580423e+02 5.656293485390616544e-05
7.293646823411705782e+02 5.648177040575730622e-05
7.302651325662831141e+02 5.646545035889696698e-05
7.311655827913956500e+02 5.657703811859461559e-05
7.320660330165081859e+02 5.665017135395430194e-05
7.329664832416207219e+02 5.656805463331304198e-05
7.338669334667333715e+02 5.658484703996290871e-05
7.347673836918459074e+02 5.696385908424746874e-05
7.356678339169584433e+02 5.757120576239657049e-05
7.365682841420709792e+02 5.818790939569934613e-05
7.374687343671835151e+02 5.878787731527868401e-05
7.383691845922961647e+02 5.944799818003908764e-05
7.392696348174087007e+02 6.020860504770703537e-05
7.401700850425212366e+02 6.100156918703722523e-05
7.410705352676337725e+02 6.165353576729965316e-05
7.419709854927463084e+02 6.191594876757260948e-05
7.428714357178588443e+02 6.149596074545829374e-05
7.437718859429714939e+02 6.033661143702267592e-05
7.446723361680840299e+02 5.882734042864658740e-05
7.455727863931965658e+02 5.748375033687833541e-05
7.464732366183091017e+02 5.654689017714463348e-05
7.473736868434216376e+02 5.599738486774023615e-05
7.482741370685342872e+02 5.573706014772960952e-05
7.491745872936468231e+02 5.575010126274107823e-05
7.500750375187593590e+02 5.613667454684391809e-05
7.509754877438718950e+02 5.685123331619559573e-05
7.518759379689844309e+02 5.770308750592041029e-05
7.527763881940969668e+02 5.859138432102879962e-05
7.536768384192096164e+02 5.934055398331473827e-05
7.545772886443221523e+02 5.972106148123337979e-05
7.554777388694346882e+02 5.962482829007750048e-05
7.563781890945472242e+02 5.903913842716436590e-05
7.572786393196597601e+02 5.800346063423856397e-05
7.581790895447722960e+02 5.664738990342586556e-05
7.590795397698849456e+02 5.533104190303856393e-05
7.599799899949974815e+02 5.435547605976110102e-05
7.608804402201100174e+02 5.383033413674863610e-05
7.617808904452225534e+02 5.384637908051152777e-05
7.626813406703350893e+02 5.433579381767334528e-05
7.635817908954477389e+02 5.494611748671112051e-05
7.644822411205602748e+02 5.538095538509091960e-05
7.653826913456728107e+02 5.567326069593240504e-05
7.662831415707853466e+02 5.596105560681048554e-05
7.671835917958978825e+02 5.634829562067491534e-05
7.680840420210104185e+02 5.678733456305593995e-05
7.689844922461230681e+02 5.702008752108564068e-05
7.698849424712356040e+02 5.691483084594996619e-05
7.707853926963481399e+02 5.663729954738030167e-05
7.716858429214606758e+02 5.638734818815445686e-05
7.725862931465732117e+02 5.634128423670777355e-05
7.734867433716858613e+02 5.673023378982820243e-05
7.743871935967983973e+02 5.756245001698330173e-05
7.752876438219109332e+02 5.841109963735666096e-05
7.761880940470234691e+02 5.882404641935740335e-05
7.770885442721360050e+02 5.879509374379219731e-05
7.779889944972485409e+02 5.840144350133443798e-05
7.788894447223611905e+02 5.767495601209121799e-05
7.797898949474737265e+02 5.695491200298745670e-05
7.806903451725862624e+02 5.658583355240442194e-05
7.815907953976987983e+02 5.654782934357034657e-05
7.824912456228113342e+02 5.662354947542933903e-05
7.833916958479238701e+02 5.656861522778965686e-05
7.842921460730365197e+02 5.619760056265225915e-05
7.851925962981490557e+02 5.551804721291781944e-05
7.860930465232615916e+02 5.480558881594343952e-05
7.869934967483741275e+02 5.442566251436612308e-05
7.878939469734866634e+02 5.453007197367483770e-05
7.887943971985993130e+02 5.507330243060172011e-05
7.896948474237118489e+02 5.592214597288954191e-05
7.905952976488243849e+02 5.686146098289359801e-05
7.914957478739369208e+02 5.775347695768437423e-05
7.923961980990494567e+02 5.847029702413595990e-05
7.932966483241619926e+02 5.867502650428109998e-05
7.941970985492746422e+02 5.815013751231689926e-05
7.950975487743871781e+02 5.727484338214510108e-05
7.959979989994997140e+02 5.659644527961617619e-05
7.968984492246122500e+02 5.626169284645678376e-05
7.977988994497247859e+02 5.609717620551723355e-05
7.986993496748374355e+02 5.590461317498990091e-05
7.995997998999499714e+02 5.572659732900182806e-05
8.005002501250625073e+02 5.580568582852332476e-05
8.014007003501750432e+02 5.624610468985554270e-05
8.023011505752875792e+02 5.681732112058289860e-05
8.032016008004001151e+02 5.721227491556515307e-05
8.041020510255127647e+02 5.742631370893419812e-05
8.050025012506253006e+02 5.772832125355124053e-05
8.059029514757378365e+02 5.825194885380889409e-05
8.068034017008503724e+02 5.879425198463702720e-05
8.077038519259629084e+02 5.905556412693208068e-05
8.086043021510754443e+02 5.896927059305102871e-05
8.095047523761880939e+02 5.873624166068544880e-05
8.104052026013006298e+02 5.857504360523616932e-05
8.113056528264131657e+02 5.857385332263046179e-05
8.122061030515257016e+02 5.876770791856381808e-05
8.131065532766382375e+02 5.927239728683209204e-05
8.140070035017508872e+02 6.020645051513697502e-05
8.149074537268634231e+02 6.130204952435323634e-05
8.158079039519759590e+02 6.211179713056376147e-05
8.167083541770884949e+02 6.259869521553390365e-05
8.176088044022010308e+02 6.305050264032134729e-05
8.185092546273135667e+02 6.371161793533438526e-05
8.194097048524262163e+02 6.452333091214321940e-05
8.203101550775387523e+02 6.517722508214740843e-05
8.212106053026512882e+02 6.549053490819567057e-05
8.221110555277638241e+02 6.556569221618729708e-05
8.230115057528763600e+02 6.570075221151032202e-05
8.239119559779890096e+02 6.606850470864564998e-05
8.248124062031015455e+02 6.660227276730823541e-05
8.257128564282140815e+02 6.721912646374417503e-05
8.266133066533266174e+02 6.789071617082986310e-05
8.275137568784391533e+02 6.867649142155665036e-05
8.284142071035516892e+02 6.970600816025158118e-05
8.293146573286643388e+02 7.088869781585338959e-05
8.302151075537768747e+02 7.176007183944970347e-05
8.311155577788894107e+02 7.176299829622566850e-05
8.320160080040019466e+02 7.060410486102691556e-05
8.329164582291144825e+02 6.849618668344188775e-05
8.338169084542270184e+02 6.616545761352469774e-05
8.347173586793396680e+02 6.428520900478605160e-05
8.356178089044522039e+02 6.297784127438976808e-05
8.365182591295647399e+02 6.201063082540651653e-05
8.374187093546772758e+02 6.115046399777011963e-05
8.383191595797898117e+02 6.031762333343267270e-05
8.392196098049024613e+02 5.965246538410477880e-05
8.401200600300149972e+02 5.930995751428921550e-05
8.410205102551275331e+02 5.932644161727982805e-05
8.419209604802400690e+02 5.969536037444443465e-05
8.428214107053526050e+02 6.049513646079799999e-05
8.437218609304651409e+02 6.174651082619536397e-05
8.446223111555777905e+02 6.320121658921820640e-05
8.455227613806903264e+02 6.433330875128709207e-05
8.464232116058028623e+02 6.461428314682650289e-05
8.473236618309153982e+02 6.412448571103837678e-05
8.482241120560279342e+02 6.350171133106719706e-05
8.491245622811405838e+02 6.318097631879910974e-05
8.500250125062531197e+02 6.313008255553365794e-05
8.509254627313656556e+02 6.315742830138122363e-05
8.518259129564781915e+02 6.317099003478233879e-05
8.527263631815907274e+02 6.310601672608049707e-05
8.536268134067032634e+02 6.303091960973555429e-05
8.545272636318159130e+02 6.308868591179839105e-05
8.554277138569284489e+02 6.334304422716460759e-05
8.563281640820409848e+02 6.370628049318269282e-05
8.572286143071535207e+02 6.403185143625842271e-05
8.581290645322660566e+02 6.440041500832334074e-05
8.590295147573785925e+02 6.505214446733237040e-05
8.599299649824912422e+02 6.618071278305562137e-05
8.608304152076037781e+02 6.766128145264604867e-05
8.617308654327163140e+02 6.902745831064372383e-05
8.626313156578288499e+02 7.005824801778350161e-05
8.635317658829413858e+02 7.111512237265675269e-05
8.644322161080540354e+02 7.248230862179232180e-05
8.653326663331665713e+02 7.380192069631097320e-05
8.662331165582791073e+02 7.446995096776706530e-05
8.671335667833916432e+02 7.419557710755490397e-05
8.680340170085041791e+02 7.317444190172128467e-05
8.689344672336167150e+02 7.183231996792818308e-05
8.698349174587293646e+02 7.054521635294708291e-05
8.707353676838419005e+02 6.964174568793950312e-05
8.716358179089544365e+02 6.943114502260005517e-05
8.725362681340669724e+02 6.981931852645498508e-05
8.734367183591795083e+02 7.019978972676867667e-05
8.743371685842921579e+02 7.008300721766537564e-05
8.752376188094046938e+02 6.958116471981424188e-05
8.761380690345172297e+02 6.919486351978076108e-05
8.770385192596297657e+02 6.930893035779921759e-05
8.779389694847423016e+02 6.985997333658755385e-05
8.788394197098548375e+02 7.044623007356014797e-05
8.797398699349674871e+02 7.073924361722043312e-05
8.806403201600800230e+02 7.070161828640387255e-05
8.815407703851925589e+02 7.054388792400627189e-05
8.824412206103050949e+02 7.061358610681422857e-05
8.833416708354176308e+02 7.110485547102579379e-05
8.842421210605301667e+02 7.188889112730306600e-05
8.851425712856428163e+02 7.273639845677422442e-05
8.860430215107553522e+02 7.347092880472918587e-05
8.869434717358678881e+02 7.394993253106360565e-05
8.878439219609804240e+02 7.420512287779936476e-05
8.887443721860929600e+02 7.453749183784103840e-05
8.896448224112056096e+02 7.535536707765618045e-05
8.905452726363181455e+02 7.684115855267555117e-05
8.914457228614306814e+02 7.876800587939354528e-05
8.923461730865432173e+02 8.070542757391181720e-05
8.932466233116557532e+02 8.227980566301801920e-05
8.941470735367682892e+02 8.314316800426502728e-05
8.950475237618809388e+02 8.339339823056867156e-05
8.959479739869934747e+02 8.371843230282572594e-05
8.968484242121060106e+02 8.439792780030048037e-05
8.977488744372185465e+02 8.501348361148855005e-05
8.986493246623310824e+02 8.529540898067325047e-05
8.995497748874437320e+02 8.529034350504853448e-05
9.004502251125562680e+02 8.506832263957219667e-05
9.013506753376688039e+02 8.453822254029101407e-05
9.022511255627813398e+02 8.348801994517121745e-05
9.031515757878938757e+02 8.211642735647699991e-05
9.040520260130064116e+02 8.117399542770851290e-05
9.049524762381190612e+02 8.114176817849402855e-05
9.058529264632315972e+02 8.172931660807270210e-05
9.067533766883441331e+02 8.238590007021317672e-05
9.076538269134566690e+02 8.290843664246582269e-05
9.085542771385692049e+02 8.344401257585436205e-05
9.094547273636817408e+02 8.418608246046359778e-05
9.103551775887943904e+02 8.523817359725424680e-05
9.112556278139069263e+02 8.660857255024867539e-05
9.121560780390194623e+02 8.807934935399451266e-05
9.130565282641319982e+02 8.940843908014989229e-05
9.139569784892445341e+02 9.051135511231294252e-05
9.148574287143571837e+02 9.127154197785437449e-05
9.157578789394697196e+02 9.185882360235793104e-05
9.166583291645822555e+02 9.278551245978492086e-05
9.175587793896947915e+02 9.420649902045516531e-05
9.184592296148073274e+02 9.560970299203933563e-05
9.193596798399198633e+02 9.657171961595483183e-05
9.202601300650325129e+02 9.739868886743885889e-05
9.211605802901450488e+02 9.825932869877380201e-05
9.220610305152575847e+02 9.860595754591378471e-05
9.229614807403701207e+02 9.813741490071870683e-05
9.238619309654826566e+02 9.748676141561027125e-05
9.247623811905953062e+02 9.755696080086754944e-05
9.256628314157078421e+02 9.875487364319512397e-05
9.265632816408203780e+02 1.009943622744489809e-04
9.274637318659329139e+02 1.040567833862564664e-04
9.283641820910454499e+02 1.076605017282139298e-04
9.292646323161579858e+02 1.113360618176723792e-04
9.301650825412706354e+02 1.145711517050440869e-04
9.310655327663831713e+02 1.172609434507292824e-04
9.319659829914957072e+02 1.194288216832699095e-04
9.328664332166082431e+02 1.206834232761939442e-04
9.337668834417207790e+02 1.205010425118438076e-04
9.346673336668334287e+02 1.191047570786625006e-04
9.355677838919459646e+02 1.173580638679799933e-04
9.364682341170585005e+02 1.159313271978158234e-04
9.373686843421710364e+02 1.152017966572836091e-04
9.382691345672835723e+02 1.154894246306964684e-04
9.391695847923961082e+02 1.169701114936990929e-04
9.400700350175087578e+02 1.195402248640998718e-04
9.409704852426212938e+02 1.226485209635603450e-04
9.418709354677338297e+02 1.251385099258368059e-04
9.427713856928463656e+02 1.260646610833241550e-04
9.436718359179589015e+02 1.256123603696109590e-04
9.445722861430714374e+02 1.248066209249205948e-04
9.454727363681840870e+02 1.244905404515070022e-04
9.463731865932966230e+02 1.247847745587858876e-04
9.472736368184091589e+02 1.253132802513607443e-04
9.481740870435216948e+02 1.258646718336872878e-04
9.490745372686342307e+02 1.267827555212301931e-04
9.499749874937468803e+02 1.282102330689274870e-04
9.508754377188594162e+02 1.294804695492202389e-04
9.517758879439719522e+02 1.301710816599371107e-04
9.526763381690844881e+02 1.308770865134084441e-04
9.535767883941970240e+02 1.321289179590122626e-04
9.544772386193095599e+02 1.338424491873456683e-04
9.553776888444222095e+02 1.355934526793949599e-04
9.562781390695347454e+02 1.368667110622395528e-04
9.571785892946472813e+02 1.373343938363240911e-04
9.580790395197598173e+02 1.372576459437513450e-04
9.589794897448723532e+02 1.372518698916843109e-04
9.598799399699850028e+02 1.374573928142530307e-04
9.607803901950975387e+02 1.377781624858690195e-04
9.616808404202100746e+02 1.385560387401466357e-04
9.625812906453226105e+02 1.404691901747698118e-04
9.634817408704351465e+02 1.436473985990008404e-04
9.643821910955476824e+02 1.474763430036025807e-04
9.652826413206603320e+02 1.510822145276094909e-04
9.661830915457728679e+02 1.535555723151988837e-04
9.670835417708854038e+02 1.547109893445015199e-04
9.679839919959979397e+02 1.552682603151560325e-04
9.688844422211104757e+02 1.553036623007429218e-04
9.697848924462230116e+02 1.544580262979046404e-04
9.706853426713356612e+02 1.532995624688475911e-04
9.715857928964481971e+02 1.527744693533908947e-04
9.724862431215607330e+02 1.529288834188920047e-04
9.733866933466732689e+02 1.532570162266079885e-04
9.742871435717858049e+02 1.538654742582996155e-04
9.751875937968984545e+02 1.550468265264768101e-04
9.760880440220109904e+02 1.562625289108863363e-04
9.769884942471235263e+02 1.568646960702408289e-04
9.778889444722360622e+02 1.570400793905908632e-04
9.787893946973485981e+02 1.576112174157076899e-04
9.796898449224611340e+02 1.591735982397955945e-04
9.805902951475737837e+02 1.615320007593126273e-04
9.814907453726863196e+02 1.642159798882001482e-04
9.823911955977988555e+02 1.669866254237149772e-04
9.832916458229113914e+02 1.691762413215435531e-04
9.841920960480239273e+02 1.700091197059340671e-04
9.850925462731365769e+02 1.695828935821264963e-04
9.859929964982491128e+02 1.685193022871854399e-04
9.868934467233616488e+02 1.670631464920317038e-04
9.877938969484741847e+02 1.656832724260959972e-04
9.886943471735867206e+02 1.653896944197063602e-04
9.895947973986992565e+02 1.666136043222331774e-04
9.904952476238119061e+02 1.689265017730545997e-04
9.913956978489244420e+02 1.717020051870665732e-04
9.922961480740369780e+02 1.747465717039712295e-04
9.931965982991495139e+02 1.780765511375835899e-04
9.940970485242620498e+02 1.814483936907104451e-04
9.949974987493745857e+02 1.841299492793974644e-04
9.958979489744872353e+02 1.853402666836327889e-04
9.967983991995997712e+02 1.852958993366139490e-04
9.976988494247123072e+02 1.848727880633560961e-04
9.985992996498248431e+02 1.844904371380600881e-04
9.994997498749373790e+02 1.839347853093293292e-04
1.000400200100050029e+03 1.832637849503020470e-04
1.001300650325162565e+03 1.831254835173874165e-04
1.002201100550275100e+03 1.842376894337105248e-04
1.003101550775387636e+03 1.865493963519011074e-04
1.004002001000500172e+03 1.888649358496304422e-04
1.004902451225612708e+03 1.905012403791652331e-04
1.005802901450725358e+03 1.922050155852100231e-04
1.006703351675837894e+03 1.947731984630358547e-04
1.007603801900950430e+03 1.980113832543667720e-04
1.008504252126062966e+03 2.010591637191235588e-04
1.009404702351175501e+03 2.034504014703829376e-04
1.010305152576288151e+03 2.057107247716220659e-04
1.011205602801400687e+03 2.085564656872573245e-04
1.012106053026513223e+03 2.116491232480047983e-04
1.013006503251625759e+03 2.139257151674954917e-04
1.013906953476738295e+03 2.149332383463104586e-04
1.014807403701850831e+03 2.144671032737417769e-04
1.015707853926963480e+03 2.123193061168148236e-04
1.016608304152076016e+03 2.089715513625132787e-04
1.017508754377188552e+03 2.054012243186907052e-04
1.018409204602301088e+03 2.024913879356389176e-04
1.019309654827413624e+03 2.010238212089897152e-04
1.020210105052526160e+03 2.018540194486957825e-04
1.021110555277638809e+03 2.049732391122088783e-04
1.022011005502751345e+03 2.088787548563433817e-04
1.022911455727863881e+03 2.121460625339879143e-04
1.023811905952976417e+03 2.150834182798693189e-04
1.024712356178089067e+03 2.188077205196249013e-04
1.025612806403201603e+03 2.239898133252452191e-04
1.026513256628314139e+03 2.304616564388545284e-04
1.027413706853426675e+03 2.372651623002169257e-04
1.028314157078539210e+03 2.429314394279837963e-04
1.029214607303651746e+03 2.457461550046435893e-04
1.030115057528764282e+03 2.453554042804889125e-04
1.031015507753876818e+03 2.426935183641591210e-04
1.031915957978989354e+03 2.387198925095183064e-04
1.032816408204101890e+03 2.349277858948439486e-04
1.033716858429214653e+03 2.329626466863844790e-04
1.034617308654327189e+03 2.329833869234627811e-04
1.035517758879439725e+03 2.339067934551213826e-04
1.036418209104552261e+03 2.347612405467762887e-04
1.037318659329664797e+03 2.351380189754195132e-04
1.038219109554777333e+03 2.350591148900282098e-04
1.039119559779889869e+03 2.352337638820262394e-04
1.040020010005002405e+03 2.365001223364800057e-04
1.040920460230114941e+03 2.390287847822142732e-04
1.041820910455227477e+03 2.422186180138553055e-04
1.042721360680340013e+03 2.451064780927740636e-04
1.043621810905452776e+03 2.476603909287895811e-04
1.044522261130565312e+03 2.508699077555715841e-04
1.045422711355677848e+03 2.554173509577370720e-04
1.046323161580790384e+03 2.609603732816442238e-04
1.047223611805902920e+03 2.666944619228856211e-04
1.048124062031015455e+03 2.719389902244753309e-04
1.049024512256127991e+03 2.763160894689546806e-04
1.049924962481240527e+03 2.800754535877542886e-04
1.050825412706353063e+03 2.830112826223469169e-04
1.051725862931465599e+03 2.839131459837590478e-04
1.052626313156578135e+03 2.823479636705451216e-04
1.053526763381690898e+03 2.797674819059710674e-04
1.054427213606803434e+03 2.776903656215179038e-04
1.055327663831915970e+03 2.765546105496910815e-04
1.056228114057028506e+03 2.762807699816565636e-04
1.057128564282141042e+03 2.763362722686829327e-04
1.058029014507253578e+03 2.759311804640055942e-04
1.058929464732366114e+03 2.752348181857036105e-04
1.059829914957478650e+03 2.756826593418015012e-04
1.060730365182591186e+03 2.777904656436884110e-04
1.061630815407703722e+03 2.800648067066155780e-04
1.062531265632816257e+03 2.806137849073713354e-04
1.063431715857929021e+03 2.789607352580668049e-04
1.064332166083041557e+03 2.761519263458411051e-04
1.065232616308154093e+03 2.736030958999758700e-04
1.066133066533266629e+03 2.720739690504617907e-04
1.067033516758379164e+03 2.713162951363428982e-04
1.067933966983491700e+03 2.712605400467723313e-04
1.068834417208604236e+03 2.720574306853121489e-04
1.069734867433716772e+03 2.730487569698517828e-04
1.070635317658829308e+03 2.739337418698762619e-04
1.071535767883941844e+03 2.748859733232530988e-04
1.072436218109054380e+03 2.754175130189314498e-04
1.073336668334167143e+03 2.745938915861001473e-04
1.074237118559279679e+03 2.718133160434474697e-04
1.075137568784392215e+03 2.677656578055909176e-04
1.076038019009504751e+03 2.640790240696161634e-04
1.076938469234617287e+03 2.616958959986269038e-04
1.077838919459729823e+03 2.601539716945742509e-04
1.078739369684842359e+03 2.583172336880385249e-04
1.079639819909954895e+03 2.561298464693378876e-04
1.080540270135067431e+03 2.545552562221856715e-04
1.081440720360179967e+03 2.545116261722808726e-04
1.082341170585292502e+03 2.563283420844144006e-04
1.083241620810405038e+03 2.595322614109014784e-04
1.084142071035517802e+03 2.630154464307063824e-04
1.085042521260630338e+03 2.659117993660309104e-04
1.085942971485742873e+03 2.681839560588696221e-04
1.086843421710855409e+03 2.700282116322605549e-04
1.087743871935967945e+03 2.720112676300611874e-04
1.088644322161080481e+03 2.749313599137436794e-04
1.089544772386193017e+03 2.784902623340460861e-04
1.090445222611305553e+03 2.809245508557103258e-04
1.091345672836418089e+03 2.813966751425935249e-04
1.092246123061530625e+03 2.812314427294827454e-04
1.093146573286643161e+03 2.820090875893131385e-04
1.094047023511755924e+03 2.845922436835250343e-04
1.094947473736868460e+03 2.886836275645607839e-04
1.095847923961980996e+03 2.934021628470536661e-04
1.096748374187093532e+03 2.985137511902395484e-04
1.097648824412206068e+03 3.041683266687839342e-04
1.098549274637318604e+03 3.100982178110339911e-04
1.099449724862431140e+03 3.160182642784467783e-04
1.100350175087543676e+03 3.223750487700645004e-04
1.101250625312656211e+03 3.300804660657886210e-04
1.102151075537768747e+03 3.380380026585295700e-04
1.103051525762881283e+03 3.430581468755079929e-04
1.103951975987994047e+03 3.429884071296777524e-04
1.104852426213106583e+03 3.380029515662495232e-04
1.105752876438219118e+03 3.304315464301554720e-04
1.106653326663331654e+03 3.236336022185472023e-04
1.107553776888444190e+03 3.196013670595551463e-04
1.108454227113556726e+03 3.185507004305223027e-04
1.109354677338669262e+03 3.199564048507001486e-04
1.110255127563781798e+03 3.231412193697343342e-04
1.111155577788894334e+03 3.273187170106608046e-04
1.112056028014006870e+03 3.313097400993086157e-04
1.112956478239119406e+03 3.344759649206304700e-04
1.113856928464232169e+03 3.378423518103644053e-04
1.114757378689344705e+03 3.432854494406544291e-04
1.115657828914457241e+03 3.510394334698281040e-04
1.116558279139569777e+03 3.591001477907473601e-04
1.117458729364682313e+03 3.657812445766131125e-04
1.118359179589794849e+03 3.713650071045689061e-04
1.119259629814907385e+03 3.762949566449644702e-04
1.120160080040019920e+03 3.801142661755648518e-04
1.121060530265132456e+03 3.831681038764619854e-04
1.121960980490244992e+03 3.878046802562222853e-04
1.122861430715357528e+03 3.958431440815905690e-04
1.123761880940470292e+03 4.054983229564687640e-04
1.124662331165582827e+03 4.126528850838133205e-04
1.125562781390695363e+03 4.153835258127218312e-04
1.126463231615807899e+03 4.156971125508113641e-04
1.127363681840920435e+03 4.162912076357982603e-04
1.128264132066032971e+03 4.171741078635000065e-04
1.129164582291145507e+03 4.164363473738818384e-04
1.130065032516258043e+03 4.140075886147010702e-04
1.130965482741370579e+03 4.119910570024743618e-04
1.131865932966483115e+03 4.116066059300042671e-04
1.132766383191595651e+03 4.123643861844977082e-04
1.133666833416708187e+03 4.134611858397297854e-04
1.134567283641820950e+03 4.155812377241317117e-04
1.135467733866933486e+03 4.205961935835098140e-04
1.136368184092046022e+03 4.293860457362947140e-04
1.137268634317158558e+03 4.413321608316008132e-04
1.138169084542271094e+03 4.552167291467063785e-04
1.139069534767383630e+03 4.697355597917632786e-04
1.139969984992496165e+03 4.843796574901573218e-04
1.140870435217608701e+03 4.997055834538450527e-04
1.141770885442721237e+03 5.170105308780888155e-04
1.142671335667833773e+03 5.388582632546512832e-04
1.143571785892946309e+03 5.679766701003429287e-04
1.144472236118059072e+03 6.048796822119465550e-04
1.145372686343171608e+03 6.480040771090213010e-04
1.146273136568284144e+03 6.947041466544716425e-04
1.147173586793396680e+03 7.428345741230047219e-04
1.148074037018509216e+03 7.924952382989478971e-04
1.148974487243621752e+03 8.415141181319847922e-04
1.149874937468734288e+03 8.878134194681710188e-04
1.150775387693846824e+03 9.369371574025095288e-04
1.151675837918959360e+03 1.000197631902887850e-03
1.152576288144071896e+03 1.087957779378857532e-03
1.153476738369184432e+03 1.201150859811054607e-03
1.154377188594297195e+03 1.327039238006976667e-03
1.155277638819409731e+03 1.446913351750034457e-03
1.156178089044522267e+03 1.551316206557953317e-03
1.157078539269634803e+03 1.644369630990632700e-03
1.157978989494747339e+03 1.733197644592167526e-03
1.158879439719859874e+03 1.823334048073066167e-03
1.159779889944972410e+03 1.915307166698667230e-03
1.160680340170084946e+03 1.997039156653222011e-03
1.161580790395197482e+03 2.057018380501464405e-03
1.162481240620310018e+03 2.099404345826180220e-03
1.163381690845422554e+03 2.134004907388737608e-03
1.164282141070535317e+03 2.167282277199468216e-03
1.165182591295647853e+03 2.193955923972383450e-03
1.166083041520760389e+03 2.196671109082841584e-03
1.166983491745872925e+03 2.166970306693037553e-03
1.167883941970985461e+03 2.112078553554135128e-03
1.168784392196097997e+03 2.039038951235533012e-03
1.169684842421210533e+03 1.953211097973677184e-03
1.170585292646323069e+03 1.867337805002611826e-03
1.171485742871435605e+03 1.794323026724362969e-03
1.172386193096548141e+03 1.733804337951139543e-03
1.173286643321660677e+03 1.675509409527632882e-03
1.174187093546773440e+03 1.612135445626453707e-03
1.175087543771885976e+03 1.544645773711099401e-03
1.175987993996998512e+03 1.480122615662517443e-03
1.176888444222111048e+03 1.424014288343179550e-03
1.177788894447223583e+03 1.375546605288298059e-03
1.178689344672336119e+03 1.336095910638676696e-03
1.179589794897448655e+03 1.309701612449775060e-03
1.180490245122561191e+03 1.295756481241631085e-03
1.181390695347673727e+03 1.289267031402385874e-03
1.182291145572786263e+03 1.285263430255181340e-03
1.183191595797898799e+03 1.280279054179195904e-03
1.184092046023011562e+03 1.273380779882720857e-03
1.184992496248124098e+03 1.263173071959941942e-03
1.185892946473236634e+03 1.251965233800131664e-03
1.186793396698349170e+03 1.245442773143444698e-03
1.187693846923461706e+03 1.242280392301575677e-03
1.188594297148574242e+03 1.234913146672401247e-03
1.189494747373686778e+03 1.219219906306811185e-03
1.190395197598799314e+03 1.195763014792030308e-03
1.191295647823911850e+03 1.169233821962842182e-03
1.192196098049024386e+03 1.144144235572585244e-03
1.193096548274136921e+03 1.120978433850173357e-03
1.193996998499249457e+03 1.101474823977472263e-03
1.194897448724362221e+03 1.088433873946104699e-03
1.195797898949474757e+03 1.079049015311826570e-03
1.196698349174587293e+03 1.065055112685546305e-03
1.197598799399699828e+03 1.043972864674559600e-03
1.198499249624812364e+03 1.023081563798738502e-03
1.199399699849924900e+03 1.010095172097739838e-03
1.200300150075037436e+03 1.006398921032570452e-03
1.201200600300149972e+03 1.008680916898825391e-03
1.202101050525262508e+03 1.011928098838909976e-03
1.203001500750375044e+03 1.010951457400939774e-03
1.203901950975487580e+03 1.002995490797416612e-03
1.204802401200600343e+03 9.904153331546550372e-04
1.205702851425712879e+03 9.765824342008878455e-04
1.206603301650825415e+03 9.624910004162811564e-04
1.207503751875937951e+03 9.491392588692622832e-04
1.208404202101050487e+03 9.387764919984037133e-04
1.209304652326163023e+03 9.324110829902493985e-04
1.210205102551275559e+03 9.291961390327148915e-04
1.211105552776388095e+03 9.297816848488600974e-04
1.212006003001500630e+03 9.312200870957232845e-04
1.212906453226613166e+03 9.269778270094126103e-04
1.213806903451725702e+03 9.158673189294684516e-04
1.214707353676838466e+03 9.021458458544262451e-04
1.215607803901951002e+03 8.891291822176742221e-04
1.216508254127063537e+03 8.764739524714165253e-04
1.217408704352176073e+03 8.654592564356333164e-04
1.218309154577288609e+03 8.585547299774631130e-04
1.219209604802401145e+03 8.538103651708698737e-04
1.220110055027513681e+03 8.472412882467393993e-04
1.221010505252626217e+03 8.368037989569075815e-04
1.221910955477738753e+03 8.213229235817758175e-04
1.222811405702851289e+03 8.023822491749205274e-04
1.223711855927963825e+03 7.837826184602399550e-04
1.224612306153076588e+03 7.671234085009489764e-04
1.225512756378189124e+03 7.533753907756638108e-04
1.226413206603301660e+03 7.458496398834060619e-04
1.227313656828414196e+03 7.438446114091990012e-04
1.228214107053526732e+03 7.426571290233528484e-04
1.229114557278639268e+03 7.407251513224267234e-04
1.230015007503751804e+03 7.378268758383414337e-04
1.230915457728864340e+03 7.341135300317077565e-04
1.231815907953976875e+03 7.332113453175544962e-04
1.232716358179089411e+03 7.371068711461893240e-04
1.233616808404201947e+03 7.431173718257184967e-04
1.234517258629314711e+03 7.496910506404342580e-04
1.235417708854427246e+03 7.569865304242188358e-04
1.236318159079539782e+03 7.659630495857990473e-04
1.237218609304652318e+03 7.786089179953307625e-04
1.238119059529764854e+03 7.945089418029225182e-04
1.239019509754877390e+03 8.094701686947711108e-04
1.239919959979989926e+03 8.183422544244993782e-04
1.240820410205102462e+03 8.209209997432761682e-04
1.241720860430214998e+03 8.236814827732673707e-04
1.242621310655327534e+03 8.328721514147546670e-04
1.243521760880440070e+03 8.499473138620882145e-04
1.244422211105552606e+03 8.729907408365025247e-04
1.245322661330665369e+03 8.989410830560262472e-04
1.246223111555777905e+03 9.228099031880177775e-04
1.247123561780890441e+03 9.390636014480609152e-04
1.248024012006002977e+03 9.469993037038096232e-04
1.248924462231115513e+03 9.518338524410858374e-04
1.249824912456228049e+03 9.600182165543738079e-04
1.250725362681340584e+03 9.744069470884190098e-04
1.251625812906453120e+03 9.932717981429508170e-04
1.252526263131565656e+03 1.010391433679073362e-03
1.253426713356678192e+03 1.018435589158138985e-03
1.254327163581790728e+03 1.014440911572300199e-03
1.255227613806903491e+03 1.001344206742478971e-03
1.256128064032016027e+03 9.847718713326687311e-04
1.257028514257128563e+03 9.691314192115611098e-04
1.257928964482241099e+03 9.573250206457080977e-04
1.258829414707353635e+03 9.528283092508046167e-04
1.259729864932466171e+03 9.592458012174762171e-04
1.260630315157578707e+03 9.764880847617296101e-04
1.261530765382691243e+03 9.995356509072692366e-04
1.262431215607803779e+03 1.021571388164918591e-03
1.263331665832916315e+03 1.037546879420087617e-03
1.264232116058028851e+03 1.045999260787317670e-03
1.265132566283141614e+03 1.050040043050266174e-03
1.266033016508254150e+03 1.055982151402474990e-03
1.266933466733366686e+03 1.068627581929734597e-03
1.267833916958479222e+03 1.089413544416728292e-03
1.268734367183591758e+03 1.116569518672724109e-03
1.269634817408704293e+03 1.144973529157751555e-03
1.270535267633816829e+03 1.169334628365196419e-03
1.271435717858929365e+03 1.189990276452220419e-03
1.272336168084041901e+03 1.211403350208745903e-03
1.273236618309154437e+03 1.236330651281225025e-03
1.274137068534266973e+03 1.264301042923520217e-03
1.275037518759379736e+03 1.293826656140640175e-03
1.275937968984492272e+03 1.322932736067978458e-03
1.276838419209604808e+03 1.349957985332567428e-03
1.277738869434717344e+03 1.376644657048316147e-03
1.278639319659829880e+03 1.406730242840131600e-03
1.279539769884942416e+03 1.442187348553529294e-03
1.280440220110054952e+03 1.480653886603393960e-03
1.281340670335167488e+03 1.516274401087718340e-03
1.282241120560280024e+03 1.544293216364417236e-03
1.283141570785392560e+03 1.565688444517544927e-03
1.284042021010505096e+03 1.583805201653784578e-03
1.284942471235617859e+03 1.599343231248719424e-03
1.285842921460730395e+03 1.613114063581495448e-03
1.286743371685842931e+03 1.628018241903740051e-03
1.287643821910955467e+03 1.645182276354060537e-03
1.288544272136068003e+03 1.661518226562908691e-03
1.289444722361180538e+03 1.673982613259383237e-03
1.290345172586293074e+03 1.684464341401956935e-03
1.291245622811405610e+03 1.697868235299972378e-03
1.292146073036518146e+03 1.715438387545259458e-03
1.293046523261630682e+03 1.734572198474745299e-03
1.293946973486743218e+03 1.752231160027079189e-03
1.294847423711855754e+03 1.766362074253750771e-03
1.295747873936968517e+03 1.778005661006968599e-03
1.296648324162081053e+03 1.790409214937015419e-03
1.297548774387193589e+03 1.803769311231172116e-03
1.298449224612306125e+03 1.814795801941553651e-03
1.299349674837418661e+03 1.822916623953482577e-03
1.300250125062531197e+03 1.830564017169434080e-03
1.301150575287643733e+03 1.840292303247297164e-03
1.302051025512756269e+03 1.853177659072558804e-03
1.302951475737868805e+03 1.867492244213065462e-03
1.303851925962981340e+03 1.880074359798582879e-03
1.304752376188093876e+03 1.889353564820387375e-03
1.305652826413206640e+03 1.897409981474246134e-03
1.306553276638319176e+03 1.907499721174796313e-03
1.307453726863431712e+03 1.921317349000852817e-03
1.308354177088544247e+03 1.937200656239026694e-03
1.309254627313656783e+03 1.951735550756210401e-03
1.310155077538769319e+03 1.964329688139972857e-03
1.311055527763881855e+03 1.980864603084109277e-03
1.311955977988994391e+03 2.009957051187158394e-03
1.312856428214106927e+03 2.052772884559232736e-03
1.313756878439219463e+03 2.100726047944744771e-03
1.314657328664331999e+03 2.146612285120871357e-03
1.315557778889444762e+03 2.188548777670332440e-03
1.316458229114557298e+03 2.225484343160050952e-03
1.317358679339669834e+03 2.259280031450571543e-03
1.318259129564782370e+03 2.297054700338826191e-03
1.319159579789894906e+03 2.344769300905166255e-03
1.320060030015007442e+03 2.401013061806206439e-03
1.320960480240119978e+03 2.458411587237925144e-03
1.321860930465232514e+03 2.510711227291440115e-03
1.322761380690345050e+03 2.559190550712259031e-03
1.323661830915457585e+03 2.609440293913736428e-03
1.324562281140570121e+03 2.664120067518088632e-03
1.325462731365682885e+03 2.726834561736855411e-03
1.326363181590795421e+03 2.800977316700364352e-03
1.327263631815907956e+03 2.881548721772625010e-03
1.328164082041020492e+03 2.965182583653485152e-03
1.329064532266133028e+03 3.055815405291452663e-03
1.329964982491245564e+03 3.153523746094569896e-03
1.330865432716358100e+03 3.248865813936865909e-03
1.331765882941470636e+03 3.333949432013378743e-03
1.332666333166583172e+03 3.409797509374513924e-03
1.333566783391695708e+03 3.480402946453900123e-03
1.334467233616808244e+03 3.552586251541878411e-03
1.335367683841921007e+03 3.637629584708718805e-03
1.336268134067033543e+03 3.741367895525704156e-03
1.337168584292146079e+03 3.856134160843780346e-03
1.338069034517258615e+03 3.970841558615702434e-03
1.338969484742371151e+03 4.080482560431799785e-03
1.339869934967483687e+03 4.185200870478040375e-03
1.340770385192596223e+03 4.289969106079444955e-03
1.341670835417708759e+03 4.402047699217342958e-03
1.342571285642821294e+03 4.519025670392492686e-03
1.343471735867933830e+03 4.628430174858701521e-03
1.344372186093046366e+03 4.723664991211366272e-03
1.345272636318158902e+03 4.812502399617880205e-03
1.346173086543271666e+03 4.905720335573359597e-03
1.347073536768384201e+03 5.007331096970733808e-03
1.347973986993496737e+03 5.121601005538552187e-03
1.348874437218609273e+03 5.259942193802752582e-03
1.349774887443721809e+03 5.422246570154450052e-03
1.350675337668834345e+03 5.589046472845384667e-03
1.351575787893946881e+03 5.743247539014971481e-03
1.352476238119059417e+03 5.880753918786218830e-03
1.353376688344171953e+03 5.998450596815097131e-03
1.354277138569284489e+03 6.096445798007429050e-03
1.355177588794397025e+03 6.195944984978584043e-03
1.356078039019509788e+03 6.328940089155949897e-03
1.356978489244622324e+03 6.514009282475057526e-03
1.357878939469734860e+03 6.755069936352589913e-03
1.358779389694847396e+03 7.045472123308702331e-03
1.359679839919959932e+03 7.359133391104940441e-03
1.360580290145072468e+03 7.656255230011783756e-03
1.361480740370185003e+03 7.912931830414807882e-03
1.362381190595297539e+03 8.123271858981045632e-03
1.363281640820410075e+03 8.285878899971867856e-03
1.364182091045522611e+03 8.417063326249788272e-03
1.365082541270635147e+03 8.553522656182565784e-03
1.365982991495747910e+03 8.722706457492932636e-03
1.366883441720860446e+03 8.917334590617975384e-03
1.367783891945972982e+03 9.109151539793030813e-03
1.368684342171085518e+03 9.286155582753245763e-03
1.369584792396198054e+03 9.460525349810709056e-03
1.370485242621310590e+03 9.660325637586179154e-03
1.371385692846423126e+03 9.917841061118261650e-03
1.372286143071535662e+03 1.025193657766379843e-02
1.373186593296648198e+03 1.066215909559539536e-02
1.374087043521760734e+03 1.112346927651288592e-02
1.374987493746873270e+03 1.159855648179271281e-02
1.375887943971986033e+03 1.207187993086459958e-02
1.376788394197098569e+03 1.253539719680572123e-02
1.377688844422211105e+03 1.293882845896569302e-02
1.378589294647323641e+03 1.323464571095596398e-02
1.379489744872436177e+03 1.344235962874418440e-02
1.380390195097548713e+03 1.363182387361831956e-02
1.381290645322661248e+03 1.385366040971812082e-02
1.382191095547773784e+03 1.411791973435337112e-02
1.383091545772886320e+03 1.441003203010336221e-02
1.383991995997998856e+03 1.472081592433782150e-02
1.384892446223111392e+03 1.509586923640271992e-02
1.385792896448224155e+03 1.558107311780211612e-02
1.386693346673336691e+03 1.613559631363656321e-02
1.387593796898449227e+03 1.665832338718775327e-02
1.388494247123561763e+03 1.707587248481240091e-02
1.389394697348674299e+03 1.739473293065333173e-02
1.390295147573786835e+03 1.767595639810835492e-02
1.391195597798899371e+03 1.790480565360942980e-02
1.392096048024011907e+03 1.799408640200014786e-02
1.392996498249124443e+03 1.796295660310818360e-02
1.393896948474236979e+03 1.796904881250113023e-02
1.394797398699349515e+03 1.814899460814426574e-02
1.395697848924462278e+03 1.849763713169538110e-02
1.396598299149574814e+03 1.888587098785309698e-02
1.397498749374687350e+03 1.917517632448566614e-02
1.398399199599799886e+03 1.932670793567284676e-02
1.399299649824912422e+03 1.936190113006686780e-02
1.400200100050024957e+03 1.930136846151435034e-02
1.401100550275137493e+03 1.916328644936272918e-02
1.402001000500250029e+03 1.897952964659598007e-02
1.402901450725362565e+03 1.879803464995000173e-02
1.403801900950475101e+03 1.863923277596830907e-02
1.404702351175587637e+03 1.849381586182068798e-02
1.405602801400700173e+03 1.836761865441043085e-02
1.406503251625812936e+03 1.830262729673010069e-02
1.407403701850925472e+03 1.831650267199261273e-02
1.408304152076038008e+03 1.834556343108130830e-02
1.409204602301150544e+03 1.833051033614657710e-02
1.410105052526263080e+03 1.831281943529548817e-02
1.411005502751375616e+03 1.835981352856165191e-02
1.411905952976488152e+03 1.846455453975930083e-02
1.412806403201600688e+03 1.856966570028717456e-02
1.413706853426713224e+03 1.862897673375450008e-02
1.414607303651825760e+03 1.857783321396202364e-02
1.415507753876938295e+03 1.834287842422998790e-02
1.416408204102051059e+03 1.795427643835309853e-02
1.417308654327163595e+03 1.748268686119853338e-02
1.418209104552276131e+03 1.693531494123305323e-02
1.419109554777388666e+03 1.633976645162052779e-02
1.420010005002501202e+03 1.577124920393446067e-02
1.420910455227613738e+03 1.527527138489485729e-02
1.421810905452726274e+03 1.487843021652857436e-02
1.422711355677838810e+03 1.457315239813509154e-02
1.423611805902951346e+03 1.428130437215998153e-02
1.424512256128063882e+03 1.392204310145983386e-02
1.425412706353176418e+03 1.348062916118906475e-02
1.426313156578289181e+03 1.296583580597219371e-02
1.427213606803401717e+03 1.239857850675648611e-02
1.428114057028514253e+03 1.183018658554980777e-02
1.429014507253626789e+03 1.129979452363355508e-02
1.429914957478739325e+03 1.082607805718466785e-02
1.430815407703851861e+03 1.040887203408758996e-02
1.431715857928964397e+03 1.003202142521179667e-02
1.432616308154076933e+03 9.691839976486159997e-03
1.433516758379189469e+03 9.409850508431797517e-03
1.434417208604302004e+03 9.193136295511720318e-03
1.435317658829414540e+03 9.014331936809377027e-03
1.436218109054527304e+03 8.859390602799954023e-03
1.437118559279639840e+03 8.744236167775632645e-03
1.438019009504752376e+03 8.669864805875997227e-03
1.438919459729864911e+03 8.617083990688391773e-03
1.439819909954977447e+03 8.563189163863407782e-03
1.440720360180089983e+03 8.492425409568793437e-03
1.441620810405202519e+03 8.388553375476226481e-03
1.442521260630315055e+03 8.229728865931514384e-03
1.443421710855427591e+03 8.015489179250906426e-03
1.444322161080540127e+03 7.775937042407143895e-03
1.445222611305652663e+03 7.534303782103336095e-03
1.446123061530765426e+03 7.283675771754026008e-03
1.447023511755877962e+03 7.029637563159920645e-03
1.447923961980990498e+03 6.809299614119227254e-03
1.448824412206103034e+03 6.643926019961079316e-03
1.449724862431215570e+03 6.513675311013753834e-03
1.450625312656328106e+03 6.388631542883714196e-03
1.451525762881440642e+03 6.253091995337602821e-03
1.452426213106553178e+03 6.100656859995624501e-03
1.453326663331665713e+03 5.929809555809242676e-03
1.454227113556778249e+03 5.751449933153387518e-03
1.455127563781890785e+03 5.580383256926191651e-03
1.456028014007003321e+03 5.416558313894624839e-03
1.456928464232116085e+03 5.244606056307088079e-03
1.457828914457228620e+03 5.058390615292612282e-03
1.458729364682341156e+03 4.873677498450859451e-03
1.459629814907453692e+03 4.712588764026954744e-03
1.460530265132566228e+03 4.579624609092484804e-03
1.461430715357678764e+03 4.461890053010115868e-03
1.462331165582791300e+03 4.349994207864817629e-03
1.463231615807903836e+03 4.246189190893976013e-03
1.464132066033016372e+03 4.155467379821548707e-03
1.465032516258128908e+03 4.073785608008072615e-03
1.465932966483241444e+03 3.992784438890993083e-03
1.466833416708354207e+03 3.916544225121460637e-03
1.467733866933466743e+03 3.852591311363994311e-03
1.468634317158579279e+03 3.792004928181858924e-03
1.469534767383691815e+03 3.723876925963560264e-03
1.470435217608804351e+03 3.652813104890344220e-03
1.471335667833916887e+03 3.588092843815398822e-03
1.472236118059029423e+03 3.530232094654640364e-03
1.473136568284141958e+03 3.470878118819071927e-03
1.474037018509254494e+03 3.400588042867716716e-03
1.474937468734367030e+03 3.316159331787918701e-03
1.475837918959479566e+03 3.225743314386416306e-03
1.476738369184592329e+03 3.142951194185453039e-03
1.477638819409704865e+03 3.074684899356060815e-03
1.478539269634817401e+03 3.015467080471572088e-03
1.479439719859929937e+03 2.956474947593503832e-03
1.480340170085042473e+03 2.891199589791035134e-03
1.481240620310155009e+03 2.816413195532766010e-03
1.482141070535267545e+03 2.730385169774152306e-03
1.483041520760380081e+03 2.632525345314369689e-03
1.483941970985492617e+03 2.530739134502361671e-03
1.484842421210605153e+03 2.442999560833040117e-03
1.485742871435717689e+03 2.377001655889056288e-03
1.486643321660830452e+03 2.320322047514107328e-03
1.487543771885942988e+03 2.260565242214470239e-03
1.488444222111055524e+03 2.199563638715939379e-03
1.489344672336168060e+03 2.144487870891314835e-03
1.490245122561280596e+03 2.096745684510455381e-03
1.491145572786393132e+03 2.053704662509881970e-03
1.492046023011505667e+03 2.014236171984789669e-03
1.492946473236618203e+03 1.978214628063138230e-03
1.493846923461730739e+03 1.945346278048847542e-03
1.494747373686843275e+03 1.915781703815971080e-03
1.495647823911955811e+03 1.889222190787408088e-03
1.496548274137068574e+03 1.865508537474110237e-03
1.497448724362181110e+03 1.843988728160826521e-03
1.498349174587293646e+03 1.823847845052041115e-03
1.499249624812406182e+03 1.807148070714477634e-03
1.500150075037518718e+03 1.796956689031066305e-03
1.501050525262631254e+03 1.790251718168372076e-03
1.501950975487743790e+03 1.778049862232643653e-03
1.502851425712856326e+03 1.752959615178856321e-03
1.503751875937968862e+03 1.716177180915727431e-03
1.504652326163081398e+03 1.674509652877185064e-03
1.505552776388193934e+03 1.633148185972061166e-03
1.506453226613306470e+03 1.594006039638165388e-03
1.507353676838419233e+03 1.560505666974522495e-03
1.508254127063531769e+03 1.537515678984662697e-03
1.509154577288644305e+03 1.527907518853929012e-03
1.510055027513756841e+03 1.530337257715669655e-03
1.510955477738869376e+03 1.538478932672561819e-03
1.511855927963981912e+03 1.547477936914957303e-03
1.512756378189094448e+03 1.556587461105232674e-03
1.513656828414206984e+03 1.565648389739437334e-03
1.514557278639319520e+03 1.572582259637851903e-03
1.515457728864432056e+03 1.575041105627072958e-03
1.516358179089544592e+03 1.571216045255970474e-03
1.517258629314657355e+03 1.556975104847050468e-03
1.518159079539769891e+03 1.529363390221060055e-03
1.519059529764882427e+03 1.490135444051009575e-03
1.519959979989994963e+03 1.444943848018385730e-03
1.520860430215107499e+03 1.400308684131249112e-03
1.521760880440220035e+03 1.363055568659548872e-03
1.522661330665332571e+03 1.337899083711290319e-03
1.523561780890445107e+03 1.322537590022900911e-03
1.524462231115557643e+03 1.309789596298896117e-03
1.525362681340670179e+03 1.294820574491863064e-03
1.526263131565782714e+03 1.277396838673981044e-03
1.527163581790895478e+03 1.261630172299713255e-03
1.528064032016008014e+03 1.252165277074109061e-03
1.528964482241120550e+03 1.248516879782983089e-03
1.529864932466233086e+03 1.246666685313864474e-03
1.530765382691345621e+03 1.242301708272011262e-03
1.531665832916458157e+03 1.231219795499828747e-03
1.532566283141570693e+03 1.210956518224246947e-03
1.533466733366683229e+03 1.180572128449399296e-03
1.534367183591795765e+03 1.143048068497657657e-03
1.535267633816908301e+03 1.105640678784685325e-03
1.536168084042020837e+03 1.074969238747771607e-03
1.537068534267133600e+03 1.054916934164710357e-03
1.537968984492246136e+03 1.044898299633584488e-03
1.538869434717358672e+03 1.041236261802646907e-03
1.539769884942471208e+03 1.041117091013018994e-03
1.540670335167583744e+03 1.044684215495904041e-03
1.541570785392696280e+03 1.051999618232762586e-03
1.542471235617808816e+03 1.059868693492554016e-03
1.543371685842921352e+03 1.064118544360624901e-03
1.544272136068033888e+03 1.063296275553131127e-03
1.545172586293146423e+03 1.058375474012231447e-03
1.546073036518258959e+03 1.052985069715305783e-03
1.546973486743371723e+03 1.052161887167855046e-03
1.547873936968484259e+03 1.058585165493007010e-03
1.548774387193596795e+03 1.070501135177874714e-03
1.549674837418709330e+03 1.082221061789186579e-03
1.550575287643821866e+03 1.087821079134140096e-03
1.551475737868934402e+03 1.083585916915965871e-03
1.552376188094046938e+03 1.067431182793355951e-03
1.553276638319159474e+03 1.041734013339745864e-03
1.554177088544272010e+03 1.014431346767370561e-03
1.555077538769384546e+03 9.927006077675663148e-04
1.555977988994497082e+03 9.744636402400578667e-04
1.556878439219609618e+03 9.513657154200712979e-04
1.557778889444722381e+03 9.207248416472590914e-04
1.558679339669834917e+03 8.885851216104557592e-04
1.559579789894947453e+03 8.616532656041071608e-04
1.560480240120059989e+03 8.401950699016766388e-04
1.561380690345172525e+03 8.220081635683378508e-04
1.562281140570285061e+03 8.080905176488326763e-04
1.563181590795397597e+03 8.014632145977846180e-04
1.564082041020510133e+03 8.012336216908922792e-04
1.564982491245622668e+03 7.994166739912210743e-04
1.565882941470735204e+03 7.865359418684280757e-04
1.566783391695847740e+03 7.590564387783473466e-04
1.567683841920960504e+03 7.196074122655562576e-04
1.568584292146073039e+03 6.726228968679310487e-04
1.569484742371185575e+03 6.224202721698652522e-04
1.570385192596298111e+03 5.725833085345918535e-04
1.571285642821410647e+03 5.246413013846320476e-04
1.572186093046523183e+03 4.803083295132489720e-04
1.573086543271635719e+03 4.411413962452199957e-04
1.573986993496748255e+03 4.053178273742523712e-04
1.574887443721860791e+03 3.686767858751611895e-04
1.575787893946973327e+03 3.293442596889558554e-04
1.576688344172085863e+03 2.903549713586604363e-04
1.577588794397198626e+03 2.564930205223163212e-04
1.578489244622311162e+03 2.300465940875740835e-04
1.579389694847423698e+03 2.105386577859383985e-04
1.580290145072536234e+03 1.965331827014261013e-04
1.581190595297648770e+03 1.864558568705812199e-04
1.582091045522761306e+03 1.788674949080855490e-04
1.582991495747873842e+03 1.718163308154791054e-04
1.583891945972986377e+03 1.629325448120569775e-04
1.584792396198098913e+03 1.524034611987203384e-04
1.585692846423211449e+03 1.426198678575649171e-04
1.586593296648323985e+03 1.348980206603246558e-04
1.587493746873436749e+03 1.289019729262354036e-04
1.588394197098549284e+03 1.238561902183672769e-04
1.589294647323661820e+03 1.191822931359473174e-04
1.590195097548774356e+03 1.144003736199148482e-04
1.591095547773886892e+03 1.096294161347014895e-04
1.591995997998999428e+03 1.054854692827707484e-04
1.592896448224111964e+03 1.022344755397401107e-04
1.593796898449224500e+03 9.969329413571775811e-05
1.594697348674337036e+03 9.741543650121123571e-05
1.595597798899449572e+03 9.502273276050948205e-05
1.596498249124562108e+03 9.279114684849493883e-05
1.597398699349674871e+03 9.126184320442652144e-05
1.598299149574787407e+03 9.050654111011044477e-05
1.599199599799899943e+03 9.002447190965579297e-05
1.600100050025012479e+03 8.915360075820886402e-05
1.601000500250125015e+03 8.756031581973534904e-05
1.601900950475237551e+03 8.559882865399094122e-05
1.602801400700350086e+03 8.407570573573222073e-05
1.603701850925462622e+03 8.332309943556677001e-05
1.604602301150575158e+03 8.289732707691586065e-05
1.605502751375687694e+03 8.230509769787708351e-05
1.606403201600800230e+03 8.183944289940092460e-05
1.607303651825912766e+03 8.188016553405453083e-05
1.608204102051025529e+03 8.197668239695016083e-05
1.609104552276138065e+03 8.147670947485681091e-05
1.610005002501250601e+03 8.066105096478976726e-05
1.610905452726363137e+03 8.028965701075845051e-05
1.611805902951475673e+03 8.050247900504260365e-05
1.612706353176588209e+03 8.081733964883566345e-05
1.613606803401700745e+03 8.038129405453319333e-05
1.614507253626813281e+03 7.872897738363197743e-05
1.615407703851925817e+03 7.627671372146535090e-05
1.616308154077038353e+03 7.323230963577735144e-05
1.617208604302150889e+03 6.976299980761945386e-05
1.618109054527263652e+03 6.634454449584282316e-05
1.619009504752376188e+03 6.322208763752008311e-05
1.619909954977488724e+03 6.043381480503454205e-05
1.620810405202601260e+03 5.795217502105533714e-05
1.621710855427713796e+03 5.579438316174225161e-05
1.622611305652826331e+03 5.399567063212010225e-05
1.623511755877938867e+03 5.252500869709085437e-05
1.624412206103051403e+03 5.130668828542505992e-05
1.625312656328163939e+03 5.025788307994619392e-05
1.626213106553276475e+03 4.932145669702677160e-05
1.627113556778389011e+03 4.848350268165886790e-05
1.628014007003501774e+03 4.774750388710612820e-05
1.628914457228614310e+03 4.711426160930908875e-05
1.629814907453726846e+03 4.658569295873682831e-05
1.630715357678839382e+03 4.617187685736834016e-05
1.631615807903951918e+03 4.589529149582225148e-05
1.632516258129064454e+03 4.579157844061121493e-05
1.633416708354176990e+03 4.589692387829397266e-05
1.634317158579289526e+03 4.619136345211693247e-05
1.635217608804402062e+03 4.647932552209595939e-05
1.636118059029514598e+03 4.640644541010279195e-05
1.637018509254627133e+03 4.589661360624413259e-05
1.637918959479739897e+03 4.532599592809084837e-05
1.638819409704852433e+03 4.503575257535871214e-05
1.639719859929964969e+03 4.502343109619149221e-05
1.640620310155077505e+03 4.489692943215177094e-05
1.641520760380190040e+03 4.415422541407209683e-05
1.642421210605302576e+03 4.283033006700319716e-05
1.643321660830415112e+03 4.139543642304479003e-05
1.644222111055527648e+03 4.014855324429153418e-05
1.645122561280640184e+03 3.913661191218313428e-05
1.646023011505752720e+03 3.831357603582904601e-05
1.646923461730865256e+03 3.762583658263853807e-05
1.647823911955978019e+03 3.703286470627564531e-05
1.648724362181090555e+03 3.650711095189963312e-05
1.649624812406203091e+03 3.603028999698893229e-05
1.650525262631315627e+03 3.559019654309449927e-05
1.651425712856428163e+03 3.517854431718435090e-05
1.652326163081540699e+03 3.478958936777580324e-05
1.653226613306653235e+03 3.441926426699145871e-05
1.654127063531765771e+03 3.406463015804588658e-05
1.655027513756878307e+03 3.372352506674087516e-05
1.655927963981990843e+03 3.339433442565037944e-05
1.656828414207103378e+03 3.307583890688997038e-05
1.657728864432216142e+03 3.276711212929607562e-05
1.658629314657328678e+03 3.246745127912971927e-05
1.659529764882441214e+03 3.217633003471874307e-05
1.660430215107553749e+03 3.189336711001489400e-05
1.661330665332666285e+03 3.161830622194722145e-05
1.662231115557778821e+03 3.135100492822572694e-05
1.663131565782891357e+03 3.109143093181894008e-05
1.664032016008003893e+03 3.083966533309124073e-05
1.664932466233116429e+03 3.059591309052009205e-05
1.665832916458228965e+03 3.036052175849196229e-05
1.666733366683341501e+03 3.013401054190925751e-05
1.667633816908454037e+03 2.991711301332389684e-05
1.668534267133566800e+03 2.971083872651421028e-05
1.669434717358679336e+03 2.951656181838741911e-05
1.670335167583791872e+03 2.933614915286731834e-05
1.671235617808904408e+03 2.917214769034683433e-05
1.672136068034016944e+03 2.902806237982879459e-05
1.673036518259129480e+03 2.890877508821998752e-05
1.673936968484242016e+03 2.882118723939533511e-05
1.674837418709354552e+03 2.877522279577195873e-05
1.675737868934467087e+03 2.878541738577352954e-05
1.676638319159579623e+03 2.887345832966233203e-05
1.677538769384692159e+03 2.907221828190447937e-05
1.678439219609804923e+03 2.943187989561730472e-05
1.679339669834917459e+03 3.002784852225326659e-05
1.680240120060029994e+03 3.096491906496333851e-05
1.681140570285142530e+03 3.235163603323451900e-05
1.682041020510255066e+03 3.416470010298938253e-05
1.682941470735367602e+03 3.591035671418823063e-05
1.683841920960480138e+03 3.648753436459894778e-05
1.684742371185592674e+03 3.527942509057945512e-05
1.685642821410705210e+03 3.308617780518840042e-05
1.686543271635817746e+03 3.094904642903616431e-05
1.687443721860930282e+03 2.926222558768613706e-05
1.688344172086043045e+03 2.801139003033413719e-05
1.689244622311155581e+03 2.708395981769839522e-05
1.690145072536268117e+03 2.637944984206031930e-05
1.691045522761380653e+03 2.582701740366678003e-05
1.691945972986493189e+03 2.537983147441964565e-05
1.692846423211605725e+03 2.500731364373580978e-05
1.693746873436718261e+03 2.468937941428622383e-05
1.694647323661830796e+03 2.441269778220256947e-05
1.695547773886943332e+03 2.416835500436592709e-05
1.696448224112055868e+03 2.395040955865804423e-05
1.697348674337168404e+03 2.375500226877073112e-05
1.698249124562281168e+03 2.357981786050097843e-05
1.699149574787393703e+03 2.342377947007588267e-05
1.700050025012506239e+03 2.328691153699268714e-05
1.700950475237618775e+03 2.317034276811099353e-05
1.701850925462731311e+03 2.307644933137605568e-05
1.702751375687843847e+03 2.300916688996348084e-05
1.703651825912956383e+03 2.297453628116689155e-05
1.704552276138068919e+03 2.298160147614327411e-05
1.705452726363181455e+03 2.304386383508200034e-05
1.706353176588293991e+03 2.318163048198970636e-05
1.707253626813406527e+03 2.342577970391810239e-05
1.708154077038519290e+03 2.382360332593034472e-05
1.709054527263631826e+03 2.444689934777312927e-05
1.709954977488744362e+03 2.539891352433731178e-05
1.710855427713856898e+03 2.680141140258555495e-05
1.711755877938969434e+03 2.869644990716323945e-05
1.712656328164081970e+03 3.074378254267168769e-05
1.713556778389194506e+03 3.190280567598001974e-05
1.714457228614307041e+03 3.118789819472569296e-05
1.715357678839419577e+03 2.907217422573212030e-05
1.716258129064532113e+03 2.676017556354356943e-05
1.717158579289644649e+03 2.487160715140002425e-05
1.718059029514757185e+03 2.347125992023136064e-05
1.718959479739869948e+03 2.244916811360933855e-05
1.719859929964982484e+03 2.169006128371019003e-05
1.720760380190095020e+03 2.110935127097174617e-05
1.721660830415207556e+03 2.065041797744045034e-05
1.722561280640320092e+03 2.027612343894885842e-05
1.723461730865432628e+03 1.996196576802025422e-05
1.724362181090545164e+03 1.969151955462644508e-05
1.725262631315657700e+03 1.945355623495910539e-05
1.726163081540770236e+03 1.924024271111596777e-05
1.727063531765882772e+03 1.904600582906566128e-05
1.727963981990995308e+03 1.886680588858053744e-05
1.728864432216108071e+03 1.869966356828501797e-05
1.729764882441220607e+03 1.854234614768404953e-05
1.730665332666333143e+03 1.839315557468269535e-05
1.731565782891445679e+03 1.825078280710368088e-05
1.732466233116558215e+03 1.811420604179226330e-05
1.733366683341670750e+03 1.798261850199798828e-05
1.734267133566783286e+03 1.785537645538370593e-05
1.735167583791895822e+03 1.773196129100459864e-05
1.736068034017008358e+03 1.761195150759878756e-05
1.736968484242120894e+03 1.749500178423674731e-05
1.737868934467233430e+03 1.738082717671759700e-05
1.738769384692346193e+03 1.726919106861034904e-05
1.739669834917458729e+03 1.715989590428638881e-05
1.740570285142571265e+03 1.705277600603932606e-05
1.741470735367683801e+03 1.694769196921951234e-05
1.742371185592796337e+03 1.684452626488404048e-05
1.743271635817908873e+03 1.674317977637488023e-05
1.744172086043021409e+03 1.664356906634021290e-05
1.745072536268133945e+03 1.654562422198737457e-05
1.745972986493246481e+03 1.644928716433677164e-05
1.746873436718359017e+03 1.635451033574924530e-05
1.747773886943471553e+03 1.626125570172604762e-05
1.748674337168584316e+03 1.616949401987996003e-05
1.749574787393696852e+03 1.607920434242394254e-05
1.750475237618809388e+03 1.599037372961547630e-05
1.751375687843921924e+03 1.590299716110018304e-05
1.752276138069034459e+03 1.581707764071738686e-05
1.753176588294146995e+03 1.573262649860753706e-05
1.754077038519259531e+03 1.564966390295556919e-05
1.754977488744372067e+03 1.556821960296351357e-05
1.755877938969484603e+03 1.548833393530210062e-05
1.756778389194597139e+03 1.541005913908882852e-05
1.757678839419709675e+03 1.533346104035074019e-05
1.758579289644822438e+03 1.525862118720548659e-05
1.759479739869934974e+03 1.518563954335612559e-05
1.760380190095047510e+03 1.511463788230893926e-05
1.761280640320160046e+03 1.504576407131783875e-05
1.762181090545272582e+03 1.497919749715769319e-05
1.763081540770385118e+03 1.491515597225650857e-05
1.763981990995497654e+03 1.485390457939189925e-05
1.764882441220610190e+03 1.479576708073254277e-05
1.765782891445722726e+03 1.474114075434674439e-05
1.766683341670835262e+03 1.469051586147909628e-05
1.767583791895947797e+03 1.464450144158880878e-05
1.768484242121060333e+03 1.460385985809461350e-05
1.769384692346173097e+03 1.456955360009428795e-05
1.770285142571285633e+03 1.454280948256608165e-05
1.771185592796398169e+03 1.452520790221002218e-05
1.772086043021510704e+03 1.451880872991836966e-05
1.772986493246623240e+03 1.452633164383852859e-05
1.773886943471735776e+03 1.455141873849887205e-05
1.774787393696848312e+03 1.459902367224796954e-05
1.775687843921960848e+03 1.467599888913278455e-05
1.776588294147073384e+03 1.479199816949326247e-05
1.777488744372185920e+03 1.496088842214594708e-05
1.778389194597298456e+03 1.520299059383147129e-05
1.779289644822411219e+03 1.554866222186881351e-05
1.780190095047523755e+03 1.604396412184188703e-05
1.781090545272636291e+03 1.675913413863757540e-05
1.781990995497748827e+03 1.779892900845498051e-05
1.782891445722861363e+03 1.930511384661425694e-05
1.783791895947973899e+03 2.140869068050407754e-05
1.784692346173086435e+03 2.401266229800063856e-05
1.785592796398198971e+03 2.632278311728645495e-05
1.786493246623311506e+03 2.686421123403124884e-05
1.787393696848424042e+03 2.513877274971128821e-05
1.788294147073536578e+03 2.239374981004186593e-05
1.789194597298649342e+03 1.986643680246942095e-05
1.790095047523761878e+03 1.794119163681664141e-05
1.790995497748874413e+03 1.655711456003485343e-05
1.791895947973986949e+03 1.556518863118792401e-05
1.792796398199099485e+03 1.484085712502737343e-05
1.793696848424212021e+03 1.429773323555229755e-05
1.794597298649324557e+03 1.387882212943466440e-05
1.795497748874437093e+03 1.354672484989286005e-05
1.796398199099549629e+03 1.327661606508813739e-05
1.797298649324662165e+03 1.305171760741184853e-05
1.798199099549774701e+03 1.286046130445127647e-05
1.799099549774887464e+03 1.269471041889498695e-05
1.800000000000000000e+03 1.254863159987611791e-05
