0.000000000000000000e+00 8.812503083838677930e-04
9.004502251125562351e-01 1.181663583611526408e-03
1.800900450225112470e+00 1.559456937370049066e-03
2.701350675337668594e+00 1.932236001881531108e-03
3.601800900450224940e+00 2.134199868969115666e-03
4.502251125562780842e+00 2.048505624546875532e-03
5.402701350675337189e+00 1.726694071273961965e-03
6.303151575787893535e+00 1.335312174642661401e-03
7.203601800900449881e+00 9.989559119558111527e-04
8.104052026013006227e+00 7.488345089771277852e-04
9.004502251125561685e+00 5.711869992453291701e-04
9.904952476238118919e+00 4.451083652195498555e-04
1.080540270135067438e+01 3.542209393879253371e-04
1.170585292646323161e+01 2.874431127165983898e-04
1.260630315157578707e+01 2.374171574383089655e-04
1.350675337668834430e+01 1.992274113121262399e-04
1.440720360180089976e+01 1.695759742148463423e-04
1.530765382691345522e+01 1.462295238607407824e-04
1.620810405202601245e+01 1.276265317851263382e-04
1.710855427713856969e+01 1.125778467579659393e-04
1.800900450225112337e+01 1.000623525946642864e-04
1.890945472736368060e+01 8.927972450299933899e-05
1.980990495247623784e+01 7.986388452252642155e-05
2.071035517758879507e+01 7.173890366077793066e-05
2.161080540270134875e+01 6.481225787129921319e-05
2.251125562781390599e+01 5.892278794166867447e-05
2.341170585292646322e+01 5.390462817714761218e-05
2.431215607803901690e+01 4.962019400742067265e-05
2.521260630315157414e+01 4.595624388393096605e-05
2.611305652826413137e+01 4.280109337196333802e-05
2.701350675337668861e+01 4.003703674780236817e-05
2.791395697848924229e+01 3.757031684235405806e-05
2.881440720360179952e+01 3.531727348290990309e-05
2.971485742871435676e+01 3.319058537245712356e-05
3.061530765382691044e+01 3.117061775898037163e-05
3.151575787893946767e+01 2.930520004221245467e-05
3.241620810405202491e+01 2.763626203699092598e-05
3.331665832916458214e+01 2.618029003266085524e-05
3.421710855427713938e+01 2.493264295364345558e-05
3.511755877938969661e+01 2.386807122940411851e-05
3.601800900450224674e+01 2.292646317557052977e-05
3.691845922961480397e+01 2.199321626178295765e-05
3.781890945472736121e+01 2.096716607919795505e-05
3.871935967983991844e+01 1.985372962708927406e-05
3.961980990495247568e+01 1.873831691118478009e-05
4.052026013006503291e+01 1.770716982429694039e-05
4.142071035517759015e+01 1.679992224262438682e-05
4.232116058029014027e+01 1.602037071156585456e-05
4.322161080540269751e+01 1.535946819535635185e-05
4.412206103051525474e+01 1.480880637162225403e-05
4.502251125562781198e+01 1.436255577827486370e-05
4.592296148074036921e+01 1.401218845203356739e-05
4.682341170585292645e+01 1.373950918134146913e-05
4.772386193096548368e+01 1.351165096265383696e-05
4.862431215607803381e+01 1.328037813545884784e-05
4.952476238119059104e+01 1.300733704856154864e-05
5.042521260630314828e+01 1.269099271889689033e-05
5.132566283141570551e+01 1.235028688756043397e-05
5.222611305652826275e+01 1.201839634574219035e-05
5.312656328164081998e+01 1.174277411299513808e-05
5.402701350675337721e+01 1.154560169704339832e-05
5.492746373186592734e+01 1.138846719657929209e-05
5.582791395697848458e+01 1.120675333383786045e-05
5.672836418209104181e+01 1.099204720044600612e-05
5.762881440720359905e+01 1.076782874056038272e-05
5.852926463231615628e+01 1.052371124030154187e-05
5.942971485742871351e+01 1.026222915288950027e-05
6.033016508254127075e+01 1.003963894050451547e-05
6.123061530765382088e+01 9.910872611318675938e-06
6.213106553276637811e+01 9.867710980050218046e-06
6.303151575787893535e+01 9.857702954593279660e-06
6.393196598299149258e+01 9.830124362130398375e-06
6.483241620810404982e+01 9.756552477981687664e-06
6.573286643321659994e+01 9.623287720265382380e-06
6.663331665832916428e+01 9.414685845678298103e-06
6.753376688344171441e+01 9.147202726977883655e-06
6.843421710855427875e+01 8.892272584614494498e-06
6.933466733366682888e+01 8.725391492885395473e-06
7.023511755877939322e+01 8.675213730511193710e-06
7.113556778389194335e+01 8.719554044235353261e-06
7.203601800900449348e+01 8.831610743759482746e-06
7.293646823411705782e+01 8.989543737382499556e-06
7.383691845922960795e+01 9.137900671131672753e-06
7.473736868434217229e+01 9.214938010383986387e-06
7.563781890945472242e+01 9.218843051748883149e-06
7.653826913456728676e+01 9.192257318192260839e-06
7.743871935967983688e+01 9.194910412545553505e-06
7.833916958479238701e+01 9.256418895024660988e-06
7.923961980990495135e+01 9.345040774719685133e-06
8.014007003501750148e+01 9.382208285383439978e-06
8.104052026013006582e+01 9.332504931927268358e-06
8.194097048524261595e+01 9.251285745709613825e-06
8.284142071035518029e+01 9.185680535098757481e-06
8.374187093546773042e+01 9.120684909215218342e-06
8.464232116058028055e+01 9.026984954191754265e-06
8.554277138569284489e+01 8.942221676682903349e-06
8.644322161080539502e+01 8.941655500102630978e-06
8.734367183591795936e+01 9.042310928324680071e-06
8.824412206103050949e+01 9.149956007633352619e-06
8.914457228614307382e+01 9.117360078034633875e-06
9.004502251125562395e+01 8.924926124155828852e-06
9.094547273636817408e+01 8.705680994285636256e-06
9.184592296148073842e+01 8.592567549189740068e-06
9.274637318659328855e+01 8.639909929314388117e-06
9.364682341170585289e+01 8.842071052421498876e-06
9.454727363681840302e+01 9.169146952333256722e-06
9.544772386193096736e+01 9.579671217453001729e-06
9.634817408704351749e+01 1.002464002296239570e-05
9.724862431215606762e+01 1.043106658837450576e-05
9.814907453726863196e+01 1.071505504457707941e-05
9.904952476238118209e+01 1.080028109055228959e-05
9.994997498749374643e+01 1.062227672925338451e-05
1.008504252126062966e+02 1.021981688119764551e-05
1.017508754377188609e+02 9.749985759753644539e-06
1.026513256628314110e+02 9.366079009486434479e-06
1.035517758879439612e+02 9.132451500375903113e-06
1.044522261130565255e+02 9.000936731282929357e-06
1.053526763381690756e+02 8.855910788083020188e-06
1.062531265632816400e+02 8.655623787574958102e-06
1.071535767883941901e+02 8.478443127333106993e-06
1.080540270135067544e+02 8.391988588233845441e-06
1.089544772386193046e+02 8.410610540412740631e-06
1.098549274637318547e+02 8.498302775601896555e-06
1.107553776888444190e+02 8.617071970179621609e-06
1.116558279139569692e+02 8.806341948261806860e-06
1.125562781390695335e+02 9.135826381160437924e-06
1.134567283641820836e+02 9.621137732970534755e-06
1.143571785892946480e+02 1.019863267144085407e-05
1.152576288144071981e+02 1.072878220605809516e-05
1.161580790395197482e+02 1.101591363109643032e-05
1.170585292646323126e+02 1.099593525772436853e-05
1.179589794897448627e+02 1.082090897196077132e-05
1.188594297148574270e+02 1.060780677590707913e-05
1.197598799399699772e+02 1.037601090943919836e-05
1.206603301650825415e+02 1.017821009898003090e-05
1.215607803901950916e+02 1.003478736556929154e-05
1.224612306153076418e+02 9.899620078358971120e-06
1.233616808404202061e+02 9.797681426399559398e-06
1.242621310655327562e+02 9.803426904246783258e-06
1.251625812906453206e+02 9.940913856502200171e-06
1.260630315157578707e+02 1.019677948439164522e-05
1.269634817408704350e+02 1.054910280142674264e-05
1.278639319659829852e+02 1.102071694081686188e-05
1.287643821910955353e+02 1.168074931755965573e-05
1.296648324162080996e+02 1.249232580506735450e-05
1.305652826413206640e+02 1.325881589012832533e-05
1.314657328664331999e+02 1.380696533958848446e-05
1.323661830915457642e+02 1.406909349867551431e-05
1.332666333166583286e+02 1.403448255674876938e-05
1.341670835417708929e+02 1.379560153230160445e-05
1.350675337668834288e+02 1.355677980165763072e-05
1.359679839919959932e+02 1.346821396928438732e-05
1.368684342171085575e+02 1.351136341192470362e-05
1.377688844422210934e+02 1.361382968332589105e-05
1.386693346673336578e+02 1.379594256549591879e-05
1.395697848924462221e+02 1.416422163243988916e-05
1.404702351175587864e+02 1.471390109897705951e-05
1.413706853426713224e+02 1.527932593419675371e-05
1.422711355677838867e+02 1.567611905685279639e-05
1.431715857928964510e+02 1.580052065801904632e-05
1.440720360180089870e+02 1.566900084739630938e-05
1.449724862431215513e+02 1.535327181223012006e-05
1.458729364682341156e+02 1.496174769226210253e-05
1.467733866933466800e+02 1.462468832598951303e-05
1.476738369184592159e+02 1.440158283174435855e-05
1.485742871435717802e+02 1.430869268507370748e-05
1.494747373686843446e+02 1.433952988163254045e-05
1.503751875937968805e+02 1.450904982286633176e-05
1.512756378189094448e+02 1.485389632492080951e-05
1.521760880440220092e+02 1.536913177734933197e-05
1.530765382691345735e+02 1.599056498270207943e-05
1.539769884942471094e+02 1.663049659102117781e-05
1.548774387193596738e+02 1.719637322798191594e-05
1.557778889444722381e+02 1.764757050756886572e-05
1.566783391695847740e+02 1.802094838305800267e-05
1.575787893946973384e+02 1.826829231144348170e-05
1.584792396198099027e+02 1.825568433813802075e-05
1.593796898449224670e+02 1.798213924817583073e-05
1.602801400700350030e+02 1.760467263595325610e-05
1.611805902951475673e+02 1.728031947138466347e-05
1.620810405202601316e+02 1.704693761274614694e-05
1.629814907453726676e+02 1.685624678696328373e-05
1.638819409704852319e+02 1.671083495107055403e-05
1.647823911955977962e+02 1.670568623274082181e-05
1.656828414207103606e+02 1.689837499649347568e-05
1.665832916458228965e+02 1.718189958684710893e-05
1.674837418709354608e+02 1.737988204706534523e-05
1.683841920960480252e+02 1.741634626843523785e-05
1.692846423211605611e+02 1.737054121590587386e-05
1.701850925462731254e+02 1.736580880039722836e-05
1.710855427713856898e+02 1.739088539254090101e-05
1.719859929964982541e+02 1.736644198020504179e-05
1.728864432216107900e+02 1.727418153391662979e-05
1.737868934467233544e+02 1.709895560985498438e-05
1.746873436718359187e+02 1.684445668997799626e-05
1.755877938969484546e+02 1.656927431198130249e-05
1.764882441220610190e+02 1.630824965491871047e-05
1.773886943471735833e+02 1.612374834364583130e-05
1.782891445722861476e+02 1.612141107595724715e-05
1.791895947973986836e+02 1.634640962046293787e-05
1.800900450225112479e+02 1.672634184310828608e-05
1.809904952476238122e+02 1.710555967165133202e-05
1.818909454727363482e+02 1.733574978413061508e-05
1.827913956978489125e+02 1.735755050202354737e-05
1.836918459229614768e+02 1.726055205897045148e-05
1.845922961480740412e+02 1.720612046288054348e-05
1.854927463731865771e+02 1.730195769925822104e-05
1.863931965982991414e+02 1.747031461093354095e-05
1.872936468234117058e+02 1.756167011502464108e-05
1.881940970485242417e+02 1.753859554368251852e-05
1.890945472736368060e+02 1.741074920961513831e-05
1.899949974987493704e+02 1.717359098032943831e-05
1.908954477238619347e+02 1.694318999491597609e-05
1.917958979489744706e+02 1.688122027666589549e-05
1.926963481740870350e+02 1.701190940646778426e-05
1.935967983991995993e+02 1.723073410653098197e-05
1.944972486243121352e+02 1.742402414535448263e-05
1.953976988494246996e+02 1.765348380341039789e-05
1.962981490745372639e+02 1.807014753730833690e-05
1.971985992996498283e+02 1.866584992326906088e-05
1.980990495247623642e+02 1.934471111266619493e-05
1.989994997498749285e+02 2.013298219177808073e-05
1.998999499749874929e+02 2.109432810199071088e-05
2.008004002001000288e+02 2.212789117108621926e-05
2.017008504252125931e+02 2.293182992817520253e-05
2.026013006503251574e+02 2.327289954396718385e-05
2.035017508754377218e+02 2.322099579902778502e-05
2.044022011005502577e+02 2.299099661183422186e-05
2.053026513256628220e+02 2.272526432733901542e-05
2.062031015507753864e+02 2.246081347156917015e-05
2.071035517758879223e+02 2.221576798499841370e-05
2.080040020010004866e+02 2.199879230354141743e-05
2.089044522261130510e+02 2.174683966066320496e-05
2.098049024512256153e+02 2.144534178395102059e-05
2.107053526763381512e+02 2.119432333799892707e-05
2.116058029014507156e+02 2.101816054706345794e-05
2.125062531265632799e+02 2.080328427027831751e-05
2.134067033516758158e+02 2.049898181833841471e-05
2.143071535767883802e+02 2.020109191685821412e-05
2.152076038019009445e+02 2.002985724883590992e-05
2.161080540270135089e+02 2.002645008847043514e-05
2.170085042521260448e+02 2.015864192523263076e-05
2.179089544772386091e+02 2.035735460793217192e-05
2.188094047023511735e+02 2.056345268181486381e-05
2.197098549274637094e+02 2.073718169387469941e-05
2.206103051525762737e+02 2.088659513237341170e-05
2.215107553776888381e+02 2.115537549965637270e-05
2.224112056028014024e+02 2.167195384822253045e-05
2.233116558279139383e+02 2.228602895334857190e-05
2.242121060530265027e+02 2.259681318740642492e-05
2.251125562781390670e+02 2.239229541938151497e-05
2.260130065032516029e+02 2.197258953281139833e-05
2.269134567283641672e+02 2.176013179391674446e-05
2.278139069534767316e+02 2.186239342649715897e-05
2.287143571785892959e+02 2.211954803835698767e-05
2.296148074037018318e+02 2.232849438026850110e-05
2.305152576288143962e+02 2.239046302071318509e-05
2.314157078539269605e+02 2.234684521305731837e-05
2.323161580790394964e+02 2.232688786679412333e-05
2.332166083041520608e+02 2.245724337117437761e-05
2.341170585292646251e+02 2.277979503047028367e-05
2.350175087543771895e+02 2.313913120786225276e-05
2.359179589794897254e+02 2.330153060343778364e-05
2.368184092046022897e+02 2.323833040444799964e-05
2.377188594297148541e+02 2.301557393463447683e-05
2.386193096548273900e+02 2.272321756541496955e-05
2.395197598799399543e+02 2.251433769690464146e-05
2.404202101050525187e+02 2.247789580583843503e-05
2.413206603301650830e+02 2.264624166916651013e-05
2.422211105552776189e+02 2.299557240543138230e-05
2.431215607803901833e+02 2.340227099584411946e-05
2.440220110055027476e+02 2.366731471709913450e-05
2.449224612306152835e+02 2.360495713951653573e-05
2.458229114557278479e+02 2.323000295750067860e-05
2.467233616808404122e+02 2.277446707844239644e-05
2.476238119059529765e+02 2.241378835624578030e-05
2.485242621310655124e+02 2.214969379918758639e-05
2.494247123561780768e+02 2.192006581577358732e-05
2.503251625812906411e+02 2.166601917477768387e-05
2.512256128064031770e+02 2.139210549025880915e-05
2.521260630315157414e+02 2.121063873216172415e-05
2.530265132566283057e+02 2.117128500852398124e-05
2.539269634817408701e+02 2.120145746407148203e-05
2.548274137068534060e+02 2.126680403653891292e-05
2.557278639319659703e+02 2.141344339128397139e-05
2.566283141570785347e+02 2.167610569177887673e-05
2.575287643821910706e+02 2.206442412879828566e-05
2.584292146073036633e+02 2.263854432956705588e-05
2.593296648324161993e+02 2.337700576501224346e-05
2.602301150575287352e+02 2.409968970118424032e-05
2.611305652826413279e+02 2.475241187437898630e-05
2.620310155077538639e+02 2.548568857795402862e-05
2.629314657328663998e+02 2.641456794145608994e-05
2.638319159579789925e+02 2.741212034949071975e-05
2.647323661830915285e+02 2.824830049661757376e-05
2.656328164082040644e+02 2.887495461726356585e-05
2.665332666333166571e+02 2.942184426775030332e-05
2.674337168584291931e+02 3.001461492915728470e-05
2.683341670835417858e+02 3.057418980783404395e-05
2.692346173086543217e+02 3.080199986778281310e-05
2.701350675337668577e+02 3.053783349523705163e-05
2.710355177588794504e+02 2.994661177861168472e-05
2.719359679839919863e+02 2.924410006544325637e-05
2.728364182091045222e+02 2.856851803464248733e-05
2.737368684342171150e+02 2.797723886634155560e-05
2.746373186593296509e+02 2.746169274399662028e-05
2.755377688844421868e+02 2.707374282885095429e-05
2.764382191095547796e+02 2.682786071092752080e-05
2.773386693346673155e+02 2.669766488248635666e-05
2.782391195597798514e+02 2.676682127712267165e-05
2.791395697848924442e+02 2.716565113351299140e-05
2.800400200100049801e+02 2.789713426320920400e-05
2.809404702351175729e+02 2.876931230611396527e-05
2.818409204602301088e+02 2.943282161984353665e-05
2.827413706853426447e+02 2.958368999072858268e-05
2.836418209104552375e+02 2.929769149410322340e-05
2.845422711355677734e+02 2.894990787690821053e-05
2.854427213606803093e+02 2.886145013639123530e-05
2.863431715857929021e+02 2.907511076815939697e-05
2.872436218109054380e+02 2.945115673151785989e-05
2.881440720360179739e+02 2.990603994070751146e-05
2.890445222611305667e+02 3.047886240973399387e-05
2.899449724862431026e+02 3.116150775485323376e-05
2.908454227113556385e+02 3.181139780679505046e-05
2.917458729364682313e+02 3.230625702617275061e-05
2.926463231615807672e+02 3.266561659171502964e-05
2.935467733866933600e+02 3.292691153339057368e-05
2.944472236118058959e+02 3.304804903495335675e-05
2.953476738369184318e+02 3.303183793549863253e-05
2.962481240620310246e+02 3.291292639656244093e-05
2.971485742871435605e+02 3.265517329067463444e-05
2.980490245122560964e+02 3.222894585535628141e-05
2.989494747373686891e+02 3.167335976203082120e-05
2.998499249624812251e+02 3.104935291966244115e-05
3.007503751875937610e+02 3.044527942709486317e-05
3.016508254127063537e+02 2.997518052627830330e-05
3.025512756378188897e+02 2.967750453599993433e-05
3.034517258629314256e+02 2.951170264738866344e-05
3.043521760880440183e+02 2.952607349412658810e-05
3.052526263131565543e+02 2.981640296703282671e-05
3.061530765382691470e+02 3.032966880530319940e-05
3.070535267633816829e+02 3.089376268245370863e-05
3.079539769884942189e+02 3.138816500054626479e-05
3.088544272136068116e+02 3.184549918162563861e-05
3.097548774387193475e+02 3.234292814393059792e-05
3.106553276638318835e+02 3.286392959884319476e-05
3.115557778889444762e+02 3.325462817702067194e-05
3.124562281140570121e+02 3.331416851799699454e-05
3.133566783391695481e+02 3.311025806763478010e-05
3.142571285642821408e+02 3.293829970896313449e-05
3.151575787893946767e+02 3.303520906930184004e-05
3.160580290145072127e+02 3.346099130893294551e-05
3.169584792396198054e+02 3.408282146280497453e-05
3.178589294647323413e+02 3.468726987602167166e-05
3.187593796898449341e+02 3.511097550907168162e-05
3.196598299149574700e+02 3.529106327528768356e-05
3.205602801400700059e+02 3.530291171538214721e-05
3.214607303651825987e+02 3.536517023887290943e-05
3.223611805902951346e+02 3.561297290192190479e-05
3.232616308154076705e+02 3.598054278756289317e-05
3.241620810405202633e+02 3.649276751634606731e-05
3.250625312656327992e+02 3.723227564847553348e-05
3.259629814907453351e+02 3.810060375992807758e-05
3.268634317158579279e+02 3.890353881867590548e-05
3.277638819409704638e+02 3.950064730192236087e-05
3.286643321660829997e+02 3.982934505799687249e-05
3.295647823911955925e+02 3.988305744491708638e-05
3.304652326163081284e+02 3.972383163179612114e-05
3.313656828414207212e+02 3.950003803843307835e-05
3.322661330665332571e+02 3.919594476753077595e-05
3.331665832916457930e+02 3.872549815999193514e-05
3.340670335167583858e+02 3.824983907819815042e-05
3.349674837418709217e+02 3.797639394213449840e-05
3.358679339669834576e+02 3.795284679670827302e-05
3.367683841920960504e+02 3.816476775752661044e-05
3.376688344172085863e+02 3.855916770814103630e-05
3.385692846423211222e+02 3.892074372026041869e-05
3.394697348674337150e+02 3.910573272046583671e-05
3.403701850925462509e+02 3.924905590582511135e-05
3.412706353176587868e+02 3.945333893807691494e-05
3.421710855427713796e+02 3.964416617215083661e-05
3.430715357678839155e+02 3.976084084914091067e-05
3.439719859929965082e+02 3.984236560828557174e-05
3.448724362181090441e+02 3.973845036350115591e-05
3.457728864432215801e+02 3.927441136244085940e-05
3.466733366683341728e+02 3.867867135800998144e-05
3.475737868934467087e+02 3.827940787638964954e-05
3.484742371185592447e+02 3.815534142946695723e-05
3.493746873436718374e+02 3.819249677032074403e-05
3.502751375687843733e+02 3.823731529770062724e-05
3.511755877938969093e+02 3.827031844550186538e-05
3.520760380190095020e+02 3.830324805543670798e-05
3.529764882441220379e+02 3.822455553454142237e-05
3.538769384692345739e+02 3.787611602376887466e-05
3.547773886943471666e+02 3.717274762147385281e-05
3.556778389194597025e+02 3.618117759278540553e-05
3.565782891445722953e+02 3.505812971603257481e-05
3.574787393696848312e+02 3.389588516473687730e-05
3.583791895947973671e+02 3.278991524906819190e-05
3.592796398199099599e+02 3.195404802363500154e-05
3.601800900450224958e+02 3.159437529462647383e-05
3.610805402701350317e+02 3.165786430893275213e-05
3.619809904952476245e+02 3.187999669002811491e-05
3.628814407203601604e+02 3.214050939535351544e-05
3.637818909454726963e+02 3.244817311065150355e-05
3.646823411705852891e+02 3.270215724949157164e-05
3.655827913956978250e+02 3.272733894178897620e-05
3.664832416208103609e+02 3.255237703690185838e-05
3.673836918459229537e+02 3.241026919059505652e-05
3.682841420710354896e+02 3.243902806624012001e-05
3.691845922961480824e+02 3.253831944738436974e-05
3.700850425212606183e+02 3.262637954230358041e-05
3.709854927463731542e+02 3.281414630783586328e-05
3.718859429714857470e+02 3.322185264982102735e-05
3.727863931965982829e+02 3.378324625354300691e-05
3.736868434217108188e+02 3.433925754863314758e-05
3.745872936468234116e+02 3.477529469644982446e-05
3.754877438719359475e+02 3.502949955982052546e-05
3.763881940970484834e+02 3.515478010770449767e-05
3.772886443221610762e+02 3.525108850293069728e-05
3.781890945472736121e+02 3.527424852624119371e-05
3.790895447723861480e+02 3.511127279481898408e-05
3.799899949974987408e+02 3.480592599411038617e-05
3.808904452226112767e+02 3.444006012181258713e-05
3.817908954477238694e+02 3.395667451424944544e-05
3.826913456728364054e+02 3.336554492790695306e-05
3.835917958979489413e+02 3.288677910703924269e-05
3.844922461230615340e+02 3.276123459279718756e-05
3.853926963481740700e+02 3.297965939048428242e-05
3.862931465732866059e+02 3.332122960414806708e-05
3.871935967983991986e+02 3.368375191253402903e-05
3.880940470235117346e+02 3.406839703868490857e-05
3.889944972486242705e+02 3.439606700126623018e-05
3.898949474737368632e+02 3.459605445677816304e-05
3.907953976988493991e+02 3.475386584077956424e-05
3.916958479239619351e+02 3.499963512972362293e-05
3.925962981490745278e+02 3.528809610501340419e-05
3.934967483741870637e+02 3.538272160401502052e-05
3.943971985992996565e+02 3.517194480885103456e-05
3.952976488244121924e+02 3.480727464125248300e-05
3.961980990495247283e+02 3.449326936552285088e-05
3.970985492746373211e+02 3.426968283507866181e-05
3.979989994997498570e+02 3.407952674458157707e-05
3.988994497248623929e+02 3.402409367944089812e-05
3.997998999499749857e+02 3.421598753009500761e-05
4.007003501750875216e+02 3.466044482169083083e-05
4.016008004002000575e+02 3.527710923085542068e-05
4.025012506253126503e+02 3.590877058750055679e-05
4.034017008504251862e+02 3.640325560674159363e-05
4.043021510755377221e+02 3.651858574772031145e-05
4.052026013006503149e+02 3.608893023307627537e-05
4.061030515257628508e+02 3.528516255588888691e-05
4.070035017508754436e+02 3.444211155694541679e-05
4.079039519759879795e+02 3.374252612627338347e-05
4.088044022011005154e+02 3.318926998964364880e-05
4.097048524262131082e+02 3.272210813936911203e-05
4.106053026513256441e+02 3.227280791330756931e-05
4.115057528764381800e+02 3.187886397508132630e-05
4.124062031015507728e+02 3.169273159556939098e-05
4.133066533266633087e+02 3.176855488825951147e-05
4.142071035517758446e+02 3.203026839261741279e-05
4.151075537768884374e+02 3.238324235125270489e-05
4.160080040020009733e+02 3.273588642768437154e-05
4.169084542271135092e+02 3.299206283583204258e-05
4.178089044522261020e+02 3.309261530062511516e-05
4.187093546773386379e+02 3.304929241149349176e-05
4.196098049024512306e+02 3.290723867304997389e-05
4.205102551275637666e+02 3.269708824428946167e-05
4.214107053526763025e+02 3.241178408314597704e-05
4.223111555777888952e+02 3.207219254060270438e-05
4.232116058029014312e+02 3.172019704579257313e-05
4.241120560280139671e+02 3.136896521589099352e-05
4.250125062531265598e+02 3.099230536911997547e-05
4.259129564782390958e+02 3.059993051122285958e-05
4.268134067033516317e+02 3.030823053426961715e-05
4.277138569284642244e+02 3.021563993546059760e-05
4.286143071535767604e+02 3.029592651414864682e-05
4.295147573786892963e+02 3.052918011701123637e-05
4.304152076038018890e+02 3.095398844981268188e-05
4.313156578289144250e+02 3.156654209079179970e-05
4.322161080540270177e+02 3.231068023588668940e-05
4.331165582791395536e+02 3.311415788023475961e-05
4.340170085042520896e+02 3.388246475266834843e-05
4.349174587293646823e+02 3.451503718417433641e-05
4.358179089544772182e+02 3.499361249962816003e-05
4.367183591795897541e+02 3.533893890867218402e-05
4.376188094047023469e+02 3.551580667091243528e-05
4.385192596298148828e+02 3.551363378648656654e-05
4.394197098549274187e+02 3.539798192990284621e-05
4.403201600800400115e+02 3.524170152377063033e-05
4.412206103051525474e+02 3.508588841802392182e-05
4.421210605302650833e+02 3.496640212237287935e-05
4.430215107553776761e+02 3.500446890985112560e-05
4.439219609804902120e+02 3.527841670632193128e-05
4.448224112056028048e+02 3.569692610025513625e-05
4.457228614307153407e+02 3.611350627293652177e-05
4.466233116558278766e+02 3.644406340748855474e-05
4.475237618809404694e+02 3.662305712833251252e-05
4.484242121060530053e+02 3.656062012321153852e-05
4.493246623311655412e+02 3.625098104349194046e-05
4.502251125562781340e+02 3.587786802530491614e-05
4.511255627813906699e+02 3.564669337695316120e-05
4.520260130065032058e+02 3.562025771287453361e-05
4.529264632316157986e+02 3.583786313121066529e-05
4.538269134567283345e+02 3.630604540265131193e-05
4.547273636818408704e+02 3.685283244419723176e-05
4.556278139069534632e+02 3.728630640220456785e-05
4.565282641320659991e+02 3.762114634299963299e-05
4.574287143571785919e+02 3.798294805357058161e-05
4.583291645822911278e+02 3.844968579203634259e-05
4.592296148074036637e+02 3.898076813999689776e-05
4.601300650325162565e+02 3.938002650631293135e-05
4.610305152576287924e+02 3.944532095771063061e-05
4.619309654827413283e+02 3.916874802868642539e-05
4.628314157078539210e+02 3.864788261444401254e-05
4.637318659329664570e+02 3.799878094560539489e-05
4.646323161580789929e+02 3.738635358580504861e-05
4.655327663831915856e+02 3.690399380421232001e-05
4.664332166083041216e+02 3.657903381188544408e-05
4.673336668334167143e+02 3.648648734838098000e-05
4.682341170585292502e+02 3.662887216949435663e-05
4.691345672836417862e+02 3.690567542157058788e-05
4.700350175087543789e+02 3.728311489367523712e-05
4.709354677338669148e+02 3.777788739893965075e-05
4.718359179589794508e+02 3.823657438338471125e-05
4.727363681840920435e+02 3.840822370883767764e-05
4.736368184092045794e+02 3.824319980198250110e-05
4.745372686343171154e+02 3.790400024565166554e-05
4.754377188594297081e+02 3.757317372580321421e-05
4.763381690845422440e+02 3.743004957954312715e-05
4.772386193096547800e+02 3.757543347650944642e-05
4.781390695347673727e+02 3.782962679701783258e-05
4.790395197598799086e+02 3.797532801048389487e-05
4.799399699849925014e+02 3.808015320008992412e-05
4.808404202101050373e+02 3.822839974256077636e-05
4.817408704352175732e+02 3.830273409127937534e-05
4.826413206603301660e+02 3.820231411208291995e-05
4.835417708854427019e+02 3.802525681675026877e-05
4.844422211105552378e+02 3.796170929431908441e-05
4.853426713356678306e+02 3.809181079836517251e-05
4.862431215607803665e+02 3.836886883184220789e-05
4.871435717858929024e+02 3.867464127936082012e-05
4.880440220110054952e+02 3.895275706105729243e-05
4.889444722361180311e+02 3.921744694772198389e-05
4.898449224612305670e+02 3.936293197793116274e-05
4.907453726863431598e+02 3.930874077681641772e-05
4.916458229114556957e+02 3.924827797897103974e-05
4.925462731365682885e+02 3.942003922970892363e-05
4.934467233616808244e+02 3.988290188733013993e-05
4.943471735867933603e+02 4.058553423997322883e-05
4.952476238119059531e+02 4.139915283365937140e-05
4.961480740370184890e+02 4.212890379856025762e-05
4.970485242621310249e+02 4.249329452292466568e-05
4.979489744872436177e+02 4.230149783911228787e-05
4.988494247123561536e+02 4.168202432303736376e-05
4.997498749374686895e+02 4.093605994486864465e-05
5.006503251625812823e+02 4.036524909042748757e-05
5.015507753876938182e+02 4.008563675590661493e-05
5.024512256128063541e+02 4.002385050152009485e-05
5.033516758379189469e+02 4.010984010281638568e-05
5.042521260630314828e+02 4.029986083249566036e-05
5.051525762881440755e+02 4.050690234499836480e-05
5.060530265132566115e+02 4.072451878514938629e-05
5.069534767383691474e+02 4.102944810704391257e-05
5.078539269634817401e+02 4.144919232707829733e-05
5.087543771885942760e+02 4.206714454948655234e-05
5.096548274137068120e+02 4.290093111592734759e-05
5.105552776388194047e+02 4.370492474775981297e-05
5.114557278639319406e+02 4.428974660099723490e-05
5.123561780890445334e+02 4.477326191113598097e-05
5.132566283141570693e+02 4.537031760559868222e-05
5.141570785392696052e+02 4.615722599264026314e-05
5.150575287643821412e+02 4.695195612370575353e-05
5.159579789894946771e+02 4.751283077161690013e-05
5.168584292146073267e+02 4.788174464622311919e-05
5.177588794397198626e+02 4.832075129095561328e-05
5.186593296648323985e+02 4.891821607470026837e-05
5.195597798899449344e+02 4.952030098833371723e-05
5.204602301150574704e+02 5.000039394489111502e-05
5.213606803401700063e+02 5.035162204245546754e-05
5.222611305652826559e+02 5.049463703120687968e-05
5.231615807903951918e+02 5.039771728206866652e-05
5.240620310155077277e+02 5.029912363901199311e-05
5.249624812406202636e+02 5.048633931537161471e-05
5.258629314657327996e+02 5.099583363564614538e-05
5.267633816908454492e+02 5.169368871818811267e-05
5.276638319159579851e+02 5.243201333816066302e-05
5.285642821410705210e+02 5.309605887652450658e-05
5.294647323661830569e+02 5.353786434547847033e-05
5.303651825912955928e+02 5.375901162374692563e-05
5.312656328164081287e+02 5.399918906946700789e-05
5.321660830415207784e+02 5.440230620990445671e-05
5.330665332666333143e+02 5.492014083205617721e-05
5.339669834917458502e+02 5.552915197130666971e-05
5.348674337168583861e+02 5.633012213463295772e-05
5.357678839419709220e+02 5.738623127035708844e-05
5.366683341670835716e+02 5.863820422791897631e-05
5.375687843921961075e+02 5.995736822250633484e-05
5.384692346173086435e+02 6.121000911235807652e-05
5.393696848424211794e+02 6.240098195756159458e-05
5.402701350675337153e+02 6.347072984880124168e-05
5.411705852926462512e+02 6.419681603109905061e-05
5.420710355177589008e+02 6.444797094439140366e-05
5.429714857428714367e+02 6.443171016027475007e-05
5.438719359679839727e+02 6.446745026411629322e-05
5.447723861930965086e+02 6.469410137209177921e-05
5.456728364182090445e+02 6.502090760768270566e-05
5.465732866433215804e+02 6.527821565666103425e-05
5.474737368684342300e+02 6.548316784467961174e-05
5.483741870935467659e+02 6.569309167867089000e-05
5.492746373186593019e+02 6.571810127565993337e-05
5.501750875437718378e+02 6.532350550361441560e-05
5.510755377688843737e+02 6.452059107765951334e-05
5.519759879939970233e+02 6.341204559883351511e-05
5.528764382191095592e+02 6.213503379667630066e-05
5.537768884442220951e+02 6.103109959953401608e-05
5.546773386693346310e+02 6.050759766961014808e-05
5.555777888944471670e+02 6.071383630657265173e-05
5.564782391195597029e+02 6.153696719222316364e-05
5.573786893446723525e+02 6.269003036515522582e-05
5.582791395697848884e+02 6.374231700577182589e-05
5.591795897948974243e+02 6.416314485248929907e-05
5.600800400200099602e+02 6.356044157447535733e-05
5.609804902451224962e+02 6.210020524143080299e-05
5.618809404702351458e+02 6.043272059101274254e-05
5.627813906953476817e+02 5.922054982072100102e-05
5.636818409204602176e+02 5.875173945956683482e-05
5.645822911455727535e+02 5.899153426257859302e-05
5.654827413706852894e+02 5.980483285555262955e-05
5.663831915957978254e+02 6.093171281213467913e-05
5.672836418209104750e+02 6.199581608639425441e-05
5.681840920460230109e+02 6.269206379729036938e-05
5.690845422711355468e+02 6.284130815211653900e-05
5.699849924962480827e+02 6.245218259829156697e-05
5.708854427213606186e+02 6.185203502472399638e-05
5.717858929464731546e+02 6.143264419278604625e-05
5.726863431715858042e+02 6.127375002604916942e-05
5.735867933966983401e+02 6.122632771534642303e-05
5.744872436218108760e+02 6.108550184223119804e-05
5.753876938469234119e+02 6.066089753596025900e-05
5.762881440720359478e+02 5.994214079679951535e-05
5.771885942971485974e+02 5.917413919792745579e-05
5.780890445222611334e+02 5.863218100824398076e-05
5.789894947473736693e+02 5.852055577490160722e-05
5.798899449724862052e+02 5.894647145901079586e-05
5.807903951975987411e+02 5.982258336269491265e-05
5.816908454227112770e+02 6.086184045771887463e-05
5.825912956478239266e+02 6.182501590718923344e-05
5.834917458729364625e+02 6.258329138851706855e-05
5.843921960980489985e+02 6.295561249300162573e-05
5.852926463231615344e+02 6.282076131702877219e-05
5.861930965482740703e+02 6.223440132920383852e-05
5.870935467733867199e+02 6.126431559846369187e-05
5.879939969984992558e+02 6.000619253013416375e-05
5.888944472236117917e+02 5.874867605293920326e-05
5.897948974487243277e+02 5.774200838852991901e-05
5.906953476738368636e+02 5.706752237685290227e-05
5.915957978989493995e+02 5.678285053926372710e-05
5.924962481240620491e+02 5.684289337142948192e-05
5.933966983491745850e+02 5.704397334578549078e-05
5.942971485742871209e+02 5.721972712214822682e-05
5.951975987993996569e+02 5.723045027012142613e-05
5.960980490245121928e+02 5.687554131623338794e-05
5.969984992496247287e+02 5.605544935959353245e-05
5.978989494747373783e+02 5.492433538130382881e-05
5.987993996998499142e+02 5.374111873185336176e-05
5.996998499249624501e+02 5.271862541713628479e-05
6.006003001500749860e+02 5.197559309682094644e-05
6.015007503751875220e+02 5.151749571074432517e-05
6.024012006003001716e+02 5.132614739919842705e-05
6.033016508254127075e+02 5.135898818869035962e-05
6.042021010505252434e+02 5.151055584544136354e-05
6.051025512756377793e+02 5.173457198711664350e-05
6.060030015007503152e+02 5.202780071925508303e-05
6.069034517258628512e+02 5.233569758750949204e-05
6.078039019509755008e+02 5.260176313403952211e-05
6.087043521760880367e+02 5.275872364086018441e-05
6.096048024012005726e+02 5.276441289206856286e-05
6.105052526263131085e+02 5.269217987485503121e-05
6.114057028514256444e+02 5.270146437263746608e-05
6.123061530765382940e+02 5.284117393370699390e-05
6.132066033016508300e+02 5.296138217304164990e-05
6.141070535267633659e+02 5.282258868483163196e-05
6.150075037518759018e+02 5.241990880397744726e-05
6.159079539769884377e+02 5.197576092015007324e-05
6.168084042021009736e+02 5.154895955518495865e-05
6.177088544272136232e+02 5.101268850607432962e-05
6.186093046523261592e+02 5.040678347331999847e-05
6.195097548774386951e+02 4.996427225236096655e-05
6.204102051025512310e+02 4.977680106880853539e-05
6.213106553276637669e+02 4.976318857776923575e-05
6.222111055527763028e+02 4.994118548243692686e-05
6.231115557778889524e+02 5.039369149439276225e-05
6.240120060030014884e+02 5.105362834715326028e-05
6.249124562281140243e+02 5.165031228252007595e-05
6.258129064532265602e+02 5.193918800228595849e-05
6.267133566783390961e+02 5.194576584741545804e-05
6.276138069034517457e+02 5.183129093367962582e-05
6.285142571285642816e+02 5.150147046491004480e-05
6.294147073536768175e+02 5.072056412110121363e-05
6.303151575787893535e+02 4.963055852229372619e-05
6.312156078039018894e+02 4.873786767087195048e-05
6.321160580290144253e+02 4.843555909750786001e-05
6.330165082541270749e+02 4.872711251746336697e-05
6.339169584792396108e+02 4.936905811530448748e-05
6.348174087043521467e+02 5.004509882261678973e-05
6.357178589294646827e+02 5.031959521294034732e-05
6.366183091545772186e+02 4.985811428555550923e-05
6.375187593796898682e+02 4.881258003688207725e-05
6.384192096048024041e+02 4.764099250188065325e-05
6.393196598299149400e+02 4.661723818684405230e-05
6.402201100550274759e+02 4.577999130080211544e-05
6.411205602801400119e+02 4.511822976348553785e-05
6.420210105052525478e+02 4.461762064199836911e-05
6.429214607303651974e+02 4.427475018981520617e-05
6.438219109554777333e+02 4.416884770243615434e-05
6.447223611805902692e+02 4.439587228970461724e-05
6.456228114057028051e+02 4.486137256512335420e-05
6.465232616308153411e+02 4.540576331487834223e-05
6.474237118559278770e+02 4.603650502000485733e-05
6.483241620810405266e+02 4.680350045028873891e-05
6.492246123061530625e+02 4.752498418482086731e-05
6.501250625312655984e+02 4.792762091483919478e-05
6.510255127563781343e+02 4.801280124107025737e-05
6.519259629814906702e+02 4.806654789281136455e-05
6.528264132066033198e+02 4.830618074233412559e-05
6.537268634317158558e+02 4.869924390191511266e-05
6.546273136568283917e+02 4.912932991631575988e-05
6.555277638819409276e+02 4.941946395063439630e-05
6.564282141070534635e+02 4.934759752256736816e-05
6.573286643321659994e+02 4.884905505054018912e-05
6.582291145572786490e+02 4.798138282467760495e-05
6.591295647823911850e+02 4.681688306895371568e-05
6.600300150075037209e+02 4.564199343897934664e-05
6.609304652326162568e+02 4.485609958908007083e-05
6.618309154577287927e+02 4.461315662464881900e-05
6.627313656828414423e+02 4.479269143469389767e-05
6.636318159079539782e+02 4.510797869047024594e-05
6.645322661330665142e+02 4.528048570298001923e-05
6.654327163581790501e+02 4.522047356613146985e-05
6.663331665832915860e+02 4.501925678342471405e-05
6.672336168084041219e+02 4.481247169840620948e-05
6.681340670335167715e+02 4.466216075384728636e-05
6.690345172586293074e+02 4.451762009105269792e-05
6.699349674837418434e+02 4.429316221901496536e-05
6.708354177088543793e+02 4.396124081013625095e-05
6.717358679339669152e+02 4.360733049057751587e-05
6.726363181590794511e+02 4.338191840010952591e-05
6.735367683841921007e+02 4.337402466955686542e-05
6.744372186093046366e+02 4.349865378554957225e-05
6.753376688344171725e+02 4.359165775562395741e-05
6.762381190595297085e+02 4.359226718766486821e-05
6.771385692846422444e+02 4.357568991835783105e-05
6.780390195097548940e+02 4.366477444252790245e-05
6.789394697348674299e+02 4.390482660942518728e-05
6.798399199599799658e+02 4.426496797677074112e-05
6.807403701850925017e+02 4.465761023989574111e-05
6.816408204102050377e+02 4.493522925760204753e-05
6.825412706353175736e+02 4.498536874034875157e-05
6.834417208604302232e+02 4.474511224681289090e-05
6.843421710855427591e+02 4.426778402347876344e-05
6.852426213106552950e+02 4.380438496009834721e-05
6.861430715357678309e+02 4.364706103442616766e-05
6.870435217608803669e+02 4.387743852065621611e-05
6.879439719859930165e+02 4.429491279790513241e-05
6.888444222111055524e+02 4.453733302145774494e-05
6.897448724362180883e+02 4.440830314320389074e-05
6.906453226613306242e+02 4.405131423218212005e-05
6.915457728864431601e+02 4.375535501620370110e-05
6.924462231115556961e+02 4.379621987667114968e-05
6.933466733366683457e+02 4.432282954332633082e-05
6.942471235617808816e+02 4.517077045507974950e-05
6.951475737868934175e+02 4.601452902752974035e-05
6.960480240120059534e+02 4.661650102487882070e-05
6.969484742371184893e+02 4.682453400587180013e-05
6.978489244622311389e+02 4.672809235353837456e-05
6.987493746873436749e+02 4.657528747086200248e-05
6.996498249124562108e+02 4.642652694766451823e-05
7.005502751375687467e+02 4.618454714623943869e-05
7.014507253626812826e+02 4.582011970282342357e-05
7.023511755877938185e+02 4.540688929959578771e-05
7.032516258129064681e+02 4.500947210662139712e-05
7.041520760380190040e+02 4.454522795037302226e-05
7.050525262631315400e+02 4.397187231723568711e-05
7.059529764882440759e+02 4.354327995988035115e-05
7.068534267133566118e+02 4.354622996236845591e-05
7.077538769384691477e+02 4.390136025597583347e-05
7.086543271635817973e+02 4.431152181394852640e-05
7.095547773886943332e+02 4.468572594825502412e-05
7.104552276138068692e+02 4.506135049306144135e-05
7.113556778389194051e+02 4.528184938704270441e-05
7.122561280640319410e+02 4.519131126251438790e-05
7.131565782891445906e+02 4.503014851922827511e-05
7.140570285142571265e+02 4.518243072124577463e-05
7.149574787393696624e+02 4.576426058469835502e-05
7.158579289644821984e+02 4.662669882867680800e-05
7.167583791895947343e+02 4.750163260719086574e-05
7.176588294147072702e+02 4.810766663783252686e-05
7.185592796398199198e+02 4.829496790236682531e-05
7.194597298649324557e+02 4.814476253826100100e-05
7.203601800900449916e+02 4.789698703826233164e-05
7.212606303151575275e+02 4.773512093335490614e-05
7.221610805402700635e+02 4.771352565131220004e-05
7.230615307653827131e+02 4.784019271786596705e-05
7.239619809904952490e+02 4.806626736445726464e-05
7.248624312156077849e+02 4.824655150920346410e-05
7.257628814407203208e+02 4.827322014088904190e-05
7.266633316658328567e+02 4.822440282669817046e-05
7.275637818909453927e+02 4.823983920340176740e-05
7.284642321160580423e+02 4.829251584770778168e-05
7.293646823411705782e+02 4.828766309271944577e-05
7.302651325662831141e+02 4.830023671857025058e-05
7.311655827913956500e+02 4.851691564844435564e-05
7.320660330165081859e+02 4.904611935772271836e-05
7.329664832416207219e+02 4.986518335457397353e-05
7.338669334667333715e+02 5.081978415815033517e-05
7.347673836918459074e+02 5.166030651883852620e-05
7.356678339169584433e+02 5.217864016422877011e-05
7.365682841420709792e+02 5.224800618971041128e-05
7.374687343671835151e+02 5.184168702515336145e-05
7.383691845922961647e+02 5.116642977434001516e-05
7.392696348174087007e+02 5.058648028081624978e-05
7.401700850425212366e+02 5.031885535922209950e-05
7.410705352676337725e+02 5.028192270302459736e-05
7.419709854927463084e+02 5.020968044469071169e-05
7.428714357178588443e+02 4.990795050317145922e-05
7.437718859429714939e+02 4.941081939530293435e-05
7.446723361680840299e+02 4.890627645810065674e-05
7.455727863931965658e+02 4.848449409459217735e-05
7.464732366183091017e+02 4.813862768442778915e-05
7.473736868434216376e+02 4.788958121497072554e-05
7.482741370685342872e+02 4.782497561487508264e-05
7.491745872936468231e+02 4.804400036085023463e-05
7.500750375187593590e+02 4.852975736907507738e-05
7.509754877438718950e+02 4.915477962940292383e-05
7.518759379689844309e+02 4.990082161568847534e-05
7.527763881940969668e+02 5.091775731199067240e-05
7.536768384192096164e+02 5.235646539433162495e-05
7.545772886443221523e+02 5.418699201031831094e-05
7.554777388694346882e+02 5.598899071699613215e-05
7.563781890945472242e+02 5.711129554359306652e-05
7.572786393196597601e+02 5.726660757433853411e-05
7.581790895447722960e+02 5.677364003566759935e-05
7.590795397698849456e+02 5.621733704157732625e-05
7.599799899949974815e+02 5.590761976517092475e-05
7.608804402201100174e+02 5.576420018136056604e-05
7.617808904452225534e+02 5.567358040019105008e-05
7.626813406703350893e+02 5.563535453764162055e-05
7.635817908954477389e+02 5.567954877638038998e-05
7.644822411205602748e+02 5.587776236161802815e-05
7.653826913456728107e+02 5.615498237572517150e-05
7.662831415707853466e+02 5.611338131675196709e-05
7.671835917958978825e+02 5.520190382138373151e-05
7.680840420210104185e+02 5.339159540674722555e-05
7.689844922461230681e+02 5.140725304854041873e-05
7.698849424712356040e+02 5.007708421686796467e-05
7.707853926963481399e+02 4.973451477583743728e-05
7.716858429214606758e+02 5.017008716746576634e-05
7.725862931465732117e+02 5.096192552052606522e-05
7.734867433716858613e+02 5.189638565548604718e-05
7.743871935967983973e+02 5.299385464527991285e-05
7.752876438219109332e+02 5.418050862775129192e-05
7.761880940470234691e+02 5.510365203124389547e-05
7.770885442721360050e+02 5.543602097016119760e-05
7.779889944972485409e+02 5.531876488194178168e-05
7.788894447223611905e+02 5.513458653847346164e-05
7.797898949474737265e+02 5.504349041248068642e-05
7.806903451725862624e+02 5.482488469787044567e-05
7.815907953976987983e+02 5.415105402742736540e-05
7.824912456228113342e+02 5.311803775715472493e-05
7.833916958479238701e+02 5.225524397215659155e-05
7.842921460730365197e+02 5.191137049643836370e-05
7.851925962981490557e+02 5.196942661214726386e-05
7.860930465232615916e+02 5.211499511215052791e-05
7.869934967483741275e+02 5.230701727503388730e-05
7.878939469734866634e+02 5.271914002364610130e-05
7.887943971985993130e+02 5.340858234426735921e-05
7.896948474237118489e+02 5.427724384444726090e-05
7.905952976488243849e+02 5.509679640471633322e-05
7.914957478739369208e+02 5.560323698684460023e-05
7.923961980990494567e+02 5.572980620445843169e-05
7.932966483241619926e+02 5.576138225454254374e-05
7.941970985492746422e+02 5.604946520606220812e-05
7.950975487743871781e+02 5.661561104856097207e-05
7.959979989994997140e+02 5.723653673456884403e-05
7.968984492246122500e+02 5.788014664630220614e-05
7.977988994497247859e+02 5.859500429462748312e-05
7.986993496748374355e+02 5.905999637821430836e-05
7.995997998999499714e+02 5.879380388860944525e-05
8.005002501250625073e+02 5.791897710798113842e-05
8.014007003501750432e+02 5.709484048734698970e-05
8.023011505752875792e+02 5.683910325132303485e-05
8.032016008004001151e+02 5.733424189257884008e-05
8.041020510255127647e+02 5.843824580784295750e-05
8.050025012506253006e+02 5.981005424032087830e-05
8.059029514757378365e+02 6.105570413494648024e-05
8.068034017008503724e+02 6.184522979239090066e-05
8.077038519259629084e+02 6.209888951432280938e-05
8.086043021510754443e+02 6.198781395069209927e-05
8.095047523761880939e+02 6.170013666338748409e-05
8.104052026013006298e+02 6.132868760615528872e-05
8.113056528264131657e+02 6.104690537282953444e-05
8.122061030515257016e+02 6.105686602939735771e-05
8.131065532766382375e+02 6.144056822469912658e-05
8.140070035017508872e+02 6.216942923405664419e-05
8.149074537268634231e+02 6.305687765275894065e-05
8.158079039519759590e+02 6.397106661184345669e-05
8.167083541770884949e+02 6.497951735409472054e-05
8.176088044022010308e+02 6.595042776251496149e-05
8.185092546273135667e+02 6.642240483397529789e-05
8.194097048524262163e+02 6.610033017239125243e-05
8.203101550775387523e+02 6.511170135112071477e-05
8.212106053026512882e+02 6.383493033066936679e-05
8.221110555277638241e+02 6.271310189907323908e-05
8.230115057528763600e+02 6.203656948174768836e-05
8.239119559779890096e+02 6.174504342637775450e-05
8.248124062031015455e+02 6.161113858015482845e-05
8.257128564282140815e+02 6.155749742815101765e-05
8.266133066533266174e+02 6.167807192931829723e-05
8.275137568784391533e+02 6.205185424343216867e-05
8.284142071035516892e+02 6.260769252983280171e-05
8.293146573286643388e+02 6.319033213626876113e-05
8.302151075537768747e+02 6.368047288406751604e-05
8.311155577788894107e+02 6.411369488570835577e-05
8.320160080040019466e+02 6.460532480338145186e-05
8.329164582291144825e+02 6.515859855965736643e-05
8.338169084542270184e+02 6.566657944873530921e-05
8.347173586793396680e+02 6.597819752062512465e-05
8.356178089044522039e+02 6.592691354988418351e-05
8.365182591295647399e+02 6.548708700074023527e-05
8.374187093546772758e+02 6.489833818252405909e-05
8.383191595797898117e+02 6.434662703920161861e-05
8.392196098049024613e+02 6.389864485467617152e-05
8.401200600300149972e+02 6.383808300664975215e-05
8.410205102551275331e+02 6.448048046324061022e-05
8.419209604802400690e+02 6.558733668477406209e-05
8.428214107053526050e+02 6.644000532133410636e-05
8.437218609304651409e+02 6.659666864677546427e-05
8.446223111555777905e+02 6.619706129660483951e-05
8.455227613806903264e+02 6.560307296679721131e-05
8.464232116058028623e+02 6.513133032824859744e-05
8.473236618309153982e+02 6.483258681622741096e-05
8.482241120560279342e+02 6.454860329159931389e-05
8.491245622811405838e+02 6.430992744718877399e-05
8.500250125062531197e+02 6.429778199051900810e-05
8.509254627313656556e+02 6.441748064654826810e-05
8.518259129564781915e+02 6.439836879922572574e-05
8.527263631815907274e+02 6.420761443440593254e-05
8.536268134067032634e+02 6.392348830650573560e-05
8.545272636318159130e+02 6.365877718224559453e-05
8.554277138569284489e+02 6.350624903573941606e-05
8.563281640820409848e+02 6.336694530809188462e-05
8.572286143071535207e+02 6.328235930448803976e-05
8.581290645322660566e+02 6.345136525454895008e-05
8.590295147573785925e+02 6.386867851590157831e-05
8.599299649824912422e+02 6.441930540784574952e-05
8.608304152076037781e+02 6.508412418970452936e-05
8.617308654327163140e+02 6.590013703024669004e-05
8.626313156578288499e+02 6.661003732314816727e-05
8.635317658829413858e+02 6.674821887887515354e-05
8.644322161080540354e+02 6.626603794657710627e-05
8.653326663331665713e+02 6.543785941015045659e-05
8.662331165582791073e+02 6.448281141654765109e-05
8.671335667833916432e+02 6.368249067339296662e-05
8.680340170085041791e+02 6.327121969353965752e-05
8.689344672336167150e+02 6.328895845526280952e-05
8.698349174587293646e+02 6.364981129977395733e-05
8.707353676838419005e+02 6.419049566874622135e-05
8.716358179089544365e+02 6.483705677966971389e-05
8.725362681340669724e+02 6.577873336748965333e-05
8.734367183591795083e+02 6.729364872495883696e-05
8.743371685842921579e+02 6.917981350596896480e-05
8.752376188094046938e+02 7.075883728575559626e-05
8.761380690345172297e+02 7.148752581485788365e-05
8.770385192596297657e+02 7.124862565373044966e-05
8.779389694847423016e+02 7.031450254787759808e-05
8.788394197098548375e+02 6.912805568559175057e-05
8.797398699349674871e+02 6.802281613717062875e-05
8.806403201600800230e+02 6.719101620425297402e-05
8.815407703851925589e+02 6.681542663016526722e-05
8.824412206103050949e+02 6.694973172251253630e-05
8.833416708354176308e+02 6.730320550355837323e-05
8.842421210605301667e+02 6.760938997474497017e-05
8.851425712856428163e+02 6.806330918527708730e-05
8.860430215107553522e+02 6.898549256163723394e-05
8.869434717358678881e+02 7.029818426528404462e-05
8.878439219609804240e+02 7.170369279522198903e-05
8.887443721860929600e+02 7.300990174246263346e-05
8.896448224112056096e+02 7.390174679744591403e-05
8.905452726363181455e+02 7.392237032762197647e-05
8.914457228614306814e+02 7.324054476553401702e-05
8.923461730865432173e+02 7.264556430569232316e-05
8.932466233116557532e+02 7.255156175704248478e-05
8.941470735367682892e+02 7.298688144901137808e-05
8.950475237618809388e+02 7.397100402726433513e-05
8.959479739869934747e+02 7.542062903542087163e-05
8.968484242121060106e+02 7.719807972520281399e-05
8.977488744372185465e+02 7.907633069937768534e-05
8.986493246623310824e+02 8.048041171578954197e-05
8.995497748874437320e+02 8.078869074081059128e-05
9.004502251125562680e+02 8.006112164373389536e-05
9.013506753376688039e+02 7.920085517124348491e-05
9.022511255627813398e+02 7.909967227642301663e-05
9.031515757878938757e+02 7.976425615328825477e-05
9.040520260130064116e+02 8.055176673757923848e-05
9.049524762381190612e+02 8.074018021345141013e-05
9.058529264632315972e+02 7.995698857484420956e-05
9.067533766883441331e+02 7.864765199942140659e-05
9.076538269134566690e+02 7.767936707807110474e-05
9.085542771385692049e+02 7.773295801832641949e-05
9.094547273636817408e+02 7.902774782406108594e-05
9.103551775887943904e+02 8.120340796650667506e-05
9.112556278139069263e+02 8.367910609779185746e-05
9.121560780390194623e+02 8.593711818300818028e-05
9.130565282641319982e+02 8.754845683255963774e-05
9.139569784892445341e+02 8.852712949794849860e-05
9.148574287143571837e+02 8.933805486400895647e-05
9.157578789394697196e+02 9.013439527873618991e-05
9.166583291645822555e+02 9.077174011875347684e-05
9.175587793896947915e+02 9.136431087144378227e-05
9.184592296148073274e+02 9.206986608366351556e-05
9.193596798399198633e+02 9.261083841185275710e-05
9.202601300650325129e+02 9.273256786481035637e-05
9.211605802901450488e+02 9.284709319919919968e-05
9.220610305152575847e+02 9.357621340663519090e-05
9.229614807403701207e+02 9.522226862942800504e-05
9.238619309654826566e+02 9.737051304577777481e-05
9.247623811905953062e+02 9.914558410774672217e-05
9.256628314157078421e+02 1.002322518685264271e-04
9.265632816408203780e+02 1.008759286106226542e-04
9.274637318659329139e+02 1.012922649104226373e-04
9.283641820910454499e+02 1.016246380367718415e-04
9.292646323161579858e+02 1.020814203812342723e-04
9.301650825412706354e+02 1.028188223924814972e-04
9.310655327663831713e+02 1.037249668623949680e-04
9.319659829914957072e+02 1.045398941602927880e-04
9.328664332166082431e+02 1.050235488370141124e-04
9.337668834417207790e+02 1.050637104951086359e-04
9.346673336668334287e+02 1.048754510930229489e-04
9.355677838919459646e+02 1.048114247180256245e-04
9.364682341170585005e+02 1.051788442497182728e-04
9.373686843421710364e+02 1.064560916095247200e-04
9.382691345672835723e+02 1.089704266021421025e-04
9.391695847923961082e+02 1.124715121130354643e-04
9.400700350175087578e+02 1.162831204315363368e-04
9.409704852426212938e+02 1.197899236319976545e-04
9.418709354677338297e+02 1.225539839122245258e-04
9.427713856928463656e+02 1.243371957422999448e-04
9.436718359179589015e+02 1.253452833767379959e-04
9.445722861430714374e+02 1.259633876425151060e-04
9.454727363681840870e+02 1.263787337406155906e-04
9.463731865932966230e+02 1.269227965130965974e-04
9.472736368184091589e+02 1.281382012624810720e-04
9.481740870435216948e+02 1.298419934819970603e-04
9.490745372686342307e+02 1.312885713713476087e-04
9.499749874937468803e+02 1.322903476698561974e-04
9.508754377188594162e+02 1.332788419956517701e-04
9.517758879439719522e+02 1.349140040037028084e-04
9.526763381690844881e+02 1.376986806694342638e-04
9.535767883941970240e+02 1.412246311717176895e-04
9.544772386193095599e+02 1.441088864577044109e-04
9.553776888444222095e+02 1.454061373146735173e-04
9.562781390695347454e+02 1.456701652665476593e-04
9.571785892946472813e+02 1.459995552632902720e-04
9.580790395197598173e+02 1.465820430758141019e-04
9.589794897448723532e+02 1.465187671278086730e-04
9.598799399699850028e+02 1.450105239421739577e-04
9.607803901950975387e+02 1.425278120082184088e-04
9.616808404202100746e+02 1.402368215298966997e-04
9.625812906453226105e+02 1.388064198516989519e-04
9.634817408704351465e+02 1.381783821931899692e-04
9.643821910955476824e+02 1.381463675246514611e-04
9.652826413206603320e+02 1.386130026036474366e-04
9.661830915457728679e+02 1.396299262140815066e-04
9.670835417708854038e+02 1.414740324575608846e-04
9.679839919959979397e+02 1.442256726499761333e-04
9.688844422211104757e+02 1.475760634612539228e-04
9.697848924462230116e+02 1.512970079543576299e-04
9.706853426713356612e+02 1.550539083633806290e-04
9.715857928964481971e+02 1.580078624069093608e-04
9.724862431215607330e+02 1.596288092172356838e-04
9.733866933466732689e+02 1.603979429048274887e-04
9.742871435717858049e+02 1.613147419027281023e-04
9.751875937968984545e+02 1.629130298273723330e-04
9.760880440220109904e+02 1.649054260658332975e-04
9.769884942471235263e+02 1.667468740397073153e-04
9.778889444722360622e+02 1.682098225685817183e-04
9.787893946973485981e+02 1.695319828209089399e-04
9.796898449224611340e+02 1.708923730954393797e-04
9.805902951475737837e+02 1.720924557575645192e-04
9.814907453726863196e+02 1.725739467504172424e-04
9.823911955977988555e+02 1.719195594059161802e-04
9.832916458229113914e+02 1.703230105542359813e-04
9.841920960480239273e+02 1.682502089341307084e-04
9.850925462731365769e+02 1.663389294232953846e-04
9.859929964982491128e+02 1.651383174844841541e-04
9.868934467233616488e+02 1.646376256747296939e-04
9.877938969484741847e+02 1.644924105724399749e-04
9.886943471735867206e+02 1.645918650187268783e-04
9.895947973986992565e+02 1.651847217799135568e-04
9.904952476238119061e+02 1.664643998618035370e-04
9.913956978489244420e+02 1.682436890007190495e-04
9.922961480740369780e+02 1.700935743649945975e-04
9.931965982991495139e+02 1.717166955842275126e-04
9.940970485242620498e+02 1.727428536681555407e-04
9.949974987493745857e+02 1.730722145856962977e-04
9.958979489744872353e+02 1.730440385545957600e-04
9.967983991995997712e+02 1.730483074610146565e-04
9.976988494247123072e+02 1.734530637984802598e-04
9.985992996498248431e+02 1.745456041315511986e-04
9.994997498749373790e+02 1.763561687440683774e-04
1.000400200100050029e+03 1.784918963439670629e-04
1.001300650325162565e+03 1.803381743139674965e-04
1.002201100550275100e+03 1.816352429600539631e-04
1.003101550775387636e+03 1.823040684497543500e-04
1.004002001000500172e+03 1.820685650951296176e-04
1.004902451225612708e+03 1.813602930185666978e-04
1.005802901450725358e+03 1.810355005358792006e-04
1.006703351675837894e+03 1.814336509736224961e-04
1.007603801900950430e+03 1.827918597098557871e-04
1.008504252126062966e+03 1.851495552262684570e-04
1.009404702351175501e+03 1.883269424486678524e-04
1.010305152576288151e+03 1.919070509742576154e-04
1.011205602801400687e+03 1.949413487455495448e-04
1.012106053026513223e+03 1.965968906146136870e-04
1.013006503251625759e+03 1.972250730201491277e-04
1.013906953476738295e+03 1.981285925934102396e-04
1.014807403701850831e+03 2.007061940410405723e-04
1.015707853926963480e+03 2.055642736527952608e-04
1.016608304152076016e+03 2.118770532632688135e-04
1.017508754377188552e+03 2.176589786726022639e-04
1.018409204602301088e+03 2.210296615714107732e-04
1.019309654827413624e+03 2.216502347512220087e-04
1.020210105052526160e+03 2.208299298267721604e-04
1.021110555277638809e+03 2.198061860631515829e-04
1.022011005502751345e+03 2.189652476159939271e-04
1.022911455727863881e+03 2.187676791825424020e-04
1.023811905952976417e+03 2.197774254818475289e-04
1.024712356178089067e+03 2.217256966776811841e-04
1.025612806403201603e+03 2.239828195166739346e-04
1.026513256628314139e+03 2.262188735034884892e-04
1.027413706853426675e+03 2.285184708668622211e-04
1.028314157078539210e+03 2.312631389836963759e-04
1.029214607303651746e+03 2.347064613027866043e-04
1.030115057528764282e+03 2.384632904288160439e-04
1.031015507753876818e+03 2.419237673957963302e-04
1.031915957978989354e+03 2.451233656007053945e-04
1.032816408204101890e+03 2.479095899681432822e-04
1.033716858429214653e+03 2.495480740752096605e-04
1.034617308654327189e+03 2.497187154185331274e-04
1.035517758879439725e+03 2.487668875396233754e-04
1.036418209104552261e+03 2.474989502320978354e-04
1.037318659329664797e+03 2.463929731275509884e-04
1.038219109554777333e+03 2.452061624337602730e-04
1.039119559779889869e+03 2.438201093480877745e-04
1.040020010005002405e+03 2.426463287260489661e-04
1.040920460230114941e+03 2.415178077479097766e-04
1.041820910455227477e+03 2.397940625411383803e-04
1.042721360680340013e+03 2.377946640380203106e-04
1.043621810905452776e+03 2.371528304422423385e-04
1.044522261130565312e+03 2.390714274713782973e-04
1.045422711355677848e+03 2.426485933672426680e-04
1.046323161580790384e+03 2.457609703926606271e-04
1.047223611805902920e+03 2.468822192033825222e-04
1.048124062031015455e+03 2.454478613002399881e-04
1.049024512256127991e+03 2.422070121253977254e-04
1.049924962481240527e+03 2.388844472122977371e-04
1.050825412706353063e+03 2.365848164431441267e-04
1.051725862931465599e+03 2.356692545249684399e-04
1.052626313156578135e+03 2.361746275066684995e-04
1.053526763381690898e+03 2.373012402202922361e-04
1.054427213606803434e+03 2.379164963583177189e-04
1.055327663831915970e+03 2.374641904401160171e-04
1.056228114057028506e+03 2.360705387928785392e-04
1.057128564282141042e+03 2.342056264815000027e-04
1.058029014507253578e+03 2.321247446284406969e-04
1.058929464732366114e+03 2.297407953688709772e-04
1.059829914957478650e+03 2.275099176283789694e-04
1.060730365182591186e+03 2.265323704064953713e-04
1.061630815407703722e+03 2.274241944917092197e-04
1.062531265632816257e+03 2.299708663933100093e-04
1.063431715857929021e+03 2.335644749316706666e-04
1.064332166083041557e+03 2.377070434793256961e-04
1.065232616308154093e+03 2.425404815799127398e-04
1.066133066533266629e+03 2.483172749711691669e-04
1.067033516758379164e+03 2.542205217611210048e-04
1.067933966983491700e+03 2.589307768369584649e-04
1.068834417208604236e+03 2.622021708776887971e-04
1.069734867433716772e+03 2.649443775265778464e-04
1.070635317658829308e+03 2.674477785536163543e-04
1.071535767883941844e+03 2.691078582236389486e-04
1.072436218109054380e+03 2.693648755852964512e-04
1.073336668334167143e+03 2.680428060095903621e-04
1.074237118559279679e+03 2.657971190081614694e-04
1.075137568784392215e+03 2.642018443756745643e-04
1.076038019009504751e+03 2.642657509108942474e-04
1.076938469234617287e+03 2.650517178637286733e-04
1.077838919459729823e+03 2.648291797961985542e-04
1.078739369684842359e+03 2.633307222355504330e-04
1.079639819909954895e+03 2.625480190406989569e-04
1.080540270135067431e+03 2.643093088707868096e-04
1.081440720360179967e+03 2.684225715909093011e-04
1.082341170585292502e+03 2.737598524337908645e-04
1.083241620810405038e+03 2.796228349149037476e-04
1.084142071035517802e+03 2.858419511567235902e-04
1.085042521260630338e+03 2.915540386847571331e-04
1.085942971485742873e+03 2.949082994412385449e-04
1.086843421710855409e+03 2.947962024249791237e-04
1.087743871935967945e+03 2.915100432858620696e-04
1.088644322161080481e+03 2.866534815147891361e-04
1.089544772386193017e+03 2.822630488255210368e-04
1.090445222611305553e+03 2.793143330654560366e-04
1.091345672836418089e+03 2.779198701896887593e-04
1.092246123061530625e+03 2.780826541266593851e-04
1.093146573286643161e+03 2.794145091329520167e-04
1.094047023511755924e+03 2.808835262782061822e-04
1.094947473736868460e+03 2.816818954042624970e-04
1.095847923961980996e+03 2.821538991204188451e-04
1.096748374187093532e+03 2.836916064816848919e-04
1.097648824412206068e+03 2.875443837809985004e-04
1.098549274637318604e+03 2.936302851774675433e-04
1.099449724862431140e+03 3.009039492715674820e-04
1.100350175087543676e+03 3.077894261686970560e-04
1.101250625312656211e+03 3.125354394621613924e-04
1.102151075537768747e+03 3.144709494697608596e-04
1.103051525762881283e+03 3.145359705523306250e-04
1.103951975987994047e+03 3.142548829471125899e-04
1.104852426213106583e+03 3.147800632227320812e-04
1.105752876438219118e+03 3.167383851998788863e-04
1.106653326663331654e+03 3.202279514343013751e-04
1.107553776888444190e+03 3.244972611968877747e-04
1.108454227113556726e+03 3.278947508030351557e-04
1.109354677338669262e+03 3.297057578524941000e-04
1.110255127563781798e+03 3.305966677967308947e-04
1.111155577788894334e+03 3.306780113063382924e-04
1.112056028014006870e+03 3.298429553619465124e-04
1.112956478239119406e+03 3.287705817843113035e-04
1.113856928464232169e+03 3.284148235981572471e-04
1.114757378689344705e+03 3.290437945112724199e-04
1.115657828914457241e+03 3.305848182733693965e-04
1.116558279139569777e+03 3.334347999537474691e-04
1.117458729364682313e+03 3.374067275986306525e-04
1.118359179589794849e+03 3.410062423080531600e-04
1.119259629814907385e+03 3.442311227765642700e-04
1.120160080040019920e+03 3.489741219730873884e-04
1.121060530265132456e+03 3.558051269993302681e-04
1.121960980490244992e+03 3.633569358806904449e-04
1.122861430715357528e+03 3.692007780130026305e-04
1.123761880940470292e+03 3.717832508485177266e-04
1.124662331165582827e+03 3.718187338065000983e-04
1.125562781390695363e+03 3.707020845274141370e-04
1.126463231615807899e+03 3.697434706732688741e-04
1.127363681840920435e+03 3.698176378140789365e-04
1.128264132066032971e+03 3.709732284034483090e-04
1.129164582291145507e+03 3.730403612107424617e-04
1.130065032516258043e+03 3.769857898028497315e-04
1.130965482741370579e+03 3.849119370547550130e-04
1.131865932966483115e+03 3.974737950214644270e-04
1.132766383191595651e+03 4.132051748759514326e-04
1.133666833416708187e+03 4.298938712815846257e-04
1.134567283641820950e+03 4.452613056865926478e-04
1.135467733866933486e+03 4.574300619062144648e-04
1.136368184092046022e+03 4.642105185820404848e-04
1.137268634317158558e+03 4.651987757301883643e-04
1.138169084542271094e+03 4.659766349833600538e-04
1.139069534767383630e+03 4.739261703727820196e-04
1.139969984992496165e+03 4.924818142746550985e-04
1.140870435217608701e+03 5.206306081174345629e-04
1.141770885442721237e+03 5.543886364638091245e-04
1.142671335667833773e+03 5.913147723779457916e-04
1.143571785892946309e+03 6.333892468782421773e-04
1.144472236118059072e+03 6.826819456603703011e-04
1.145372686343171608e+03 7.358140778093388325e-04
1.146273136568284144e+03 7.856565193201615546e-04
1.147173586793396680e+03 8.325725274277066086e-04
1.148074037018509216e+03 8.836041236128218748e-04
1.148974487243621752e+03 9.419181346109776684e-04
1.149874937468734288e+03 1.005686345745840588e-03
1.150775387693846824e+03 1.071409009486869570e-03
1.151675837918959360e+03 1.138105244558676845e-03
1.152576288144071896e+03 1.211203185353051590e-03
1.153476738369184432e+03 1.298330664364129999e-03
1.154377188594297195e+03 1.395806879064389293e-03
1.155277638819409731e+03 1.483805638825823987e-03
1.156178089044522267e+03 1.553327938764181371e-03
1.157078539269634803e+03 1.626060346136876675e-03
1.157978989494747339e+03 1.728072593281949594e-03
1.158879439719859874e+03 1.864936358780782625e-03
1.159779889944972410e+03 2.018856778191014095e-03
1.160680340170084946e+03 2.158689690463508511e-03
1.161580790395197482e+03 2.261509553170256651e-03
1.162481240620310018e+03 2.331439029431159153e-03
1.163381690845422554e+03 2.381649683833080879e-03
1.164282141070535317e+03 2.415136445834927155e-03
1.165182591295647853e+03 2.430572333119204297e-03
1.166083041520760389e+03 2.418455497877395038e-03
1.166983491745872925e+03 2.371961557229994473e-03
1.167883941970985461e+03 2.301969721066158669e-03
1.168784392196097997e+03 2.222706957419078120e-03
1.169684842421210533e+03 2.138469863639041405e-03
1.170585292646323069e+03 2.045121409971167696e-03
1.171485742871435605e+03 1.933452313255947658e-03
1.172386193096548141e+03 1.807517247639115181e-03
1.173286643321660677e+03 1.689217391654225346e-03
1.174187093546773440e+03 1.591761029267876664e-03
1.175087543771885976e+03 1.512203961489335139e-03
1.175987993996998512e+03 1.445738482309371058e-03
1.176888444222111048e+03 1.396082503958144625e-03
1.177788894447223583e+03 1.370052832521242341e-03
1.178689344672336119e+03 1.362962553518366456e-03
1.179589794897448655e+03 1.362558862852873177e-03
1.180490245122561191e+03 1.363475798481714836e-03
1.181390695347673727e+03 1.364365096634070299e-03
1.182291145572786263e+03 1.359565018661961812e-03
1.183191595797898799e+03 1.343161241177131702e-03
1.184092046023011562e+03 1.312642570985633056e-03
1.184992496248124098e+03 1.271479840200854042e-03
1.185892946473236634e+03 1.229207204529696520e-03
1.186793396698349170e+03 1.193931295648875028e-03
1.187693846923461706e+03 1.167979768753847234e-03
1.188594297148574242e+03 1.150637066392889811e-03
1.189494747373686778e+03 1.142401306504743381e-03
1.190395197598799314e+03 1.143230181610396714e-03
1.191295647823911850e+03 1.148157476415568798e-03
1.192196098049024386e+03 1.149167431522294443e-03
1.193096548274136921e+03 1.139762661420671164e-03
1.193996998499249457e+03 1.123032802834780797e-03
1.194897448724362221e+03 1.110179378130062835e-03
1.195797898949474757e+03 1.106928441704738619e-03
1.196698349174587293e+03 1.109856311336604494e-03
1.197598799399699828e+03 1.113264129750118512e-03
1.198499249624812364e+03 1.113729475563608826e-03
1.199399699849924900e+03 1.109288343508641611e-03
1.200300150075037436e+03 1.100924877361934709e-03
1.201200600300149972e+03 1.090162742775423839e-03
1.202101050525262508e+03 1.076624539254556357e-03
1.203001500750375044e+03 1.061327805832393799e-03
1.203901950975487580e+03 1.047662885429204768e-03
1.204802401200600343e+03 1.038971597739782012e-03
1.205702851425712879e+03 1.033873503441724980e-03
1.206603301650825415e+03 1.027640273080244636e-03
1.207503751875937951e+03 1.018067846056466092e-03
1.208404202101050487e+03 1.005905556005274020e-03
1.209304652326163023e+03 9.928457664244703419e-04
1.210205102551275559e+03 9.798831579802952645e-04
1.211105552776388095e+03 9.676171824564551525e-04
1.212006003001500630e+03 9.562462358121629879e-04
1.212906453226613166e+03 9.440444336424585331e-04
1.213806903451725702e+03 9.278890905903780734e-04
1.214707353676838466e+03 9.088493284213531405e-04
1.215607803901951002e+03 8.918410390586605906e-04
1.216508254127063537e+03 8.779852818557102841e-04
1.217408704352176073e+03 8.655717503088437934e-04
1.218309154577288609e+03 8.546212437841030005e-04
1.219209604802401145e+03 8.442549033305478531e-04
1.220110055027513681e+03 8.307683758271799902e-04
1.221010505252626217e+03 8.119892180082838914e-04
1.221910955477738753e+03 7.918335944086235924e-04
1.222811405702851289e+03 7.747255276720202075e-04
1.223711855927963825e+03 7.616537241807644484e-04
1.224612306153076588e+03 7.527932386666545553e-04
1.225512756378189124e+03 7.481539217514635584e-04
1.226413206603301660e+03 7.471095520370338479e-04
1.227313656828414196e+03 7.452656775964780055e-04
1.228214107053526732e+03 7.374791759761886766e-04
1.229114557278639268e+03 7.252656586904576491e-04
1.230015007503751804e+03 7.145059530528596577e-04
1.230915457728864340e+03 7.095223306519875348e-04
1.231815907953976875e+03 7.110640470073102291e-04
1.232716358179089411e+03 7.169660909337708006e-04
1.233616808404201947e+03 7.248878892759401176e-04
1.234517258629314711e+03 7.328642823754737612e-04
1.235417708854427246e+03 7.381765319057209673e-04
1.236318159079539782e+03 7.409467862714516238e-04
1.237218609304652318e+03 7.452872106449184679e-04
1.238119059529764854e+03 7.542040769556741103e-04
1.239019509754877390e+03 7.656244265346138491e-04
1.239919959979989926e+03 7.743260057204587061e-04
1.240820410205102462e+03 7.797494689931295337e-04
1.241720860430214998e+03 7.849563948889401888e-04
1.242621310655327534e+03 7.903589769309020711e-04
1.243521760880440070e+03 7.973889613611825043e-04
1.244422211105552606e+03 8.109366663187972868e-04
1.245322661330665369e+03 8.330490464166552273e-04
1.246223111555777905e+03 8.590050433436529189e-04
1.247123561780890441e+03 8.825035750538025130e-04
1.248024012006002977e+03 9.003371589329313461e-04
1.248924462231115513e+03 9.117718299405367819e-04
1.249824912456228049e+03 9.171721100318156426e-04
1.250725362681340584e+03 9.178524899313819565e-04
1.251625812906453120e+03 9.165772236779103034e-04
1.252526263131565656e+03 9.164428345740373251e-04
1.253426713356678192e+03 9.195611112861238170e-04
1.254327163581790728e+03 9.265625701836387174e-04
1.255227613806903491e+03 9.352718049898099423e-04
1.256128064032016027e+03 9.422820355328899054e-04
1.257028514257128563e+03 9.455294425847704477e-04
1.257928964482241099e+03 9.477635701533672396e-04
1.258829414707353635e+03 9.552335429471557615e-04
1.259729864932466171e+03 9.706449014091924048e-04
1.260630315157578707e+03 9.912465188271065916e-04
1.261530765382691243e+03 1.012770976818462348e-03
1.262431215607803779e+03 1.033084062676267473e-03
1.263331665832916315e+03 1.052045131941344068e-03
1.264232116058028851e+03 1.069935652999615691e-03
1.265132566283141614e+03 1.087812378049642439e-03
1.266033016508254150e+03 1.108194006264021049e-03
1.266933466733366686e+03 1.133147752133437927e-03
1.267833916958479222e+03 1.160697166777834412e-03
1.268734367183591758e+03 1.187157812800381787e-03
1.269634817408704293e+03 1.211702591904858508e-03
1.270535267633816829e+03 1.235607229348714394e-03
1.271435717858929365e+03 1.258899534315194258e-03
1.272336168084041901e+03 1.279319638042035120e-03
1.273236618309154437e+03 1.293837022420422228e-03
1.274137068534266973e+03 1.303085611945762126e-03
1.275037518759379736e+03 1.313578707550670972e-03
1.275937968984492272e+03 1.330785240138415574e-03
1.276838419209604808e+03 1.353690690584980535e-03
1.277738869434717344e+03 1.378439661967040611e-03
1.278639319659829880e+03 1.401666024475144330e-03
1.279539769884942416e+03 1.422183051161971185e-03
1.280440220110054952e+03 1.441922143291365747e-03
1.281340670335167488e+03 1.461710678494534390e-03
1.282241120560280024e+03 1.480822722947379389e-03
1.283141570785392560e+03 1.500586901348420531e-03
1.284042021010505096e+03 1.522889557553256095e-03
1.284942471235617859e+03 1.546492183486546925e-03
1.285842921460730395e+03 1.567063699083281981e-03
1.286743371685842931e+03 1.582509732218901352e-03
1.287643821910955467e+03 1.594272296263937955e-03
1.288544272136068003e+03 1.605659230656717416e-03
1.289444722361180538e+03 1.620710793902786209e-03
1.290345172586293074e+03 1.639758490607446653e-03
1.291245622811405610e+03 1.659239773460393676e-03
1.292146073036518146e+03 1.676127780895965425e-03
1.293046523261630682e+03 1.690392202351917754e-03
1.293946973486743218e+03 1.704129248820882491e-03
1.294847423711855754e+03 1.718871457711594174e-03
1.295747873936968517e+03 1.733518400841473376e-03
1.296648324162081053e+03 1.747456956942092503e-03
1.297548774387193589e+03 1.762788058550994724e-03
1.298449224612306125e+03 1.781140216632975297e-03
1.299349674837418661e+03 1.802197802049366115e-03
1.300250125062531197e+03 1.825944485235035230e-03
1.301150575287643733e+03 1.852736650410171260e-03
1.302051025512756269e+03 1.878708330334696863e-03
1.302951475737868805e+03 1.898660803724437846e-03
1.303851925962981340e+03 1.913377127947951672e-03
1.304752376188093876e+03 1.926409271294836877e-03
1.305652826413206640e+03 1.938272773845256969e-03
1.306553276638319176e+03 1.949559395220937805e-03
1.307453726863431712e+03 1.964533629692887320e-03
1.308354177088544247e+03 1.987805744154496311e-03
1.309254627313656783e+03 2.018822261023956767e-03
1.310155077538769319e+03 2.050750422533583698e-03
1.311055527763881855e+03 2.078953710808950899e-03
1.311955977988994391e+03 2.107542559252907882e-03
1.312856428214106927e+03 2.141941051453406710e-03
1.313756878439219463e+03 2.183847919679363526e-03
1.314657328664331999e+03 2.230585588412233641e-03
1.315557778889444762e+03 2.276152531760907045e-03
1.316458229114557298e+03 2.315501909665259109e-03
1.317358679339669834e+03 2.345963789356056168e-03
1.318259129564782370e+03 2.370587043464384390e-03
1.319159579789894906e+03 2.398397240375695072e-03
1.320060030015007442e+03 2.433732321922317011e-03
1.320960480240119978e+03 2.473271859411903164e-03
1.321860930465232514e+03 2.515268435307934421e-03
1.322761380690345050e+03 2.564626730367831290e-03
1.323661830915457585e+03 2.626879912720197097e-03
1.324562281140570121e+03 2.702345488310220478e-03
1.325462731365682885e+03 2.787858162710008490e-03
1.326363181590795421e+03 2.877710146832745085e-03
1.327263631815907956e+03 2.963865680252527040e-03
1.328164082041020492e+03 3.041538799347872930e-03
1.329064532266133028e+03 3.113722216360058099e-03
1.329964982491245564e+03 3.184017529337365964e-03
1.330865432716358100e+03 3.252924985924365506e-03
1.331765882941470636e+03 3.321926286925083304e-03
1.332666333166583172e+03 3.395669485493902490e-03
1.333566783391695708e+03 3.475903811064144470e-03
1.334467233616808244e+03 3.560090837618375397e-03
1.335367683841921007e+03 3.649158191421704011e-03
1.336268134067033543e+03 3.746329355605031598e-03
1.337168584292146079e+03 3.852577722657445428e-03
1.338069034517258615e+03 3.970909692943475934e-03
1.338969484742371151e+03 4.106854252857804199e-03
1.339869934967483687e+03 4.256032356470835359e-03
1.340770385192596223e+03 4.399650990274730014e-03
1.341670835417708759e+03 4.525845237342649569e-03
1.342571285642821294e+03 4.640507136876842638e-03
1.343471735867933830e+03 4.756633591729566950e-03
1.344372186093046366e+03 4.883518948404727902e-03
1.345272636318158902e+03 5.025722296662590155e-03
1.346173086543271666e+03 5.181915276101886625e-03
1.347073536768384201e+03 5.340791186240627202e-03
1.347973986993496737e+03 5.493899084461507237e-03
1.348874437218609273e+03 5.642186021964681365e-03
1.349774887443721809e+03 5.786123082108851623e-03
1.350675337668834345e+03 5.927997736086891047e-03
1.351575787893946881e+03 6.079941961658584526e-03
1.352476238119059417e+03 6.259367402281734889e-03
1.353376688344171953e+03 6.476906477175353206e-03
1.354277138569284489e+03 6.722392706432525969e-03
1.355177588794397025e+03 6.961869826097104655e-03
1.356078039019509788e+03 7.158500203816134042e-03
1.356978489244622324e+03 7.308685203277924536e-03
1.357878939469734860e+03 7.441698167570433287e-03
1.358779389694847396e+03 7.574882752786489190e-03
1.359679839919959932e+03 7.700042353246111006e-03
1.360580290145072468e+03 7.813764766033013884e-03
1.361480740370185003e+03 7.935953334762838041e-03
1.362381190595297539e+03 8.110152055684383132e-03
1.363281640820410075e+03 8.364736821822208596e-03
1.364182091045522611e+03 8.681495974394579790e-03
1.365082541270635147e+03 9.015657183358432442e-03
1.365982991495747910e+03 9.331646343792096218e-03
1.366883441720860446e+03 9.596080196420010353e-03
1.367783891945972982e+03 9.780234693201945995e-03
1.368684342171085518e+03 9.895645092908350940e-03
1.369584792396198054e+03 9.983504358375572957e-03
1.370485242621310590e+03 1.007652941805494903e-02
1.371385692846423126e+03 1.019853756827335950e-02
1.372286143071535662e+03 1.037479148560778268e-02
1.373186593296648198e+03 1.062478821926689937e-02
1.374087043521760734e+03 1.094522505315935132e-02
1.374987493746873270e+03 1.130907589635173419e-02
1.375887943971986033e+03 1.168416902334350367e-02
1.376788394197098569e+03 1.205200730936897835e-02
1.377688844422211105e+03 1.241472572875856016e-02
1.378589294647323641e+03 1.277575575656549577e-02
1.379489744872436177e+03 1.313934586034415548e-02
1.380390195097548713e+03 1.352707797131671823e-02
1.381290645322661248e+03 1.393722809654145654e-02
1.382191095547773784e+03 1.433342627990505727e-02
1.383091545772886320e+03 1.469774662073909666e-02
1.383991995997998856e+03 1.503901895441897042e-02
1.384892446223111392e+03 1.537541344703178929e-02
1.385792896448224155e+03 1.572151332139277990e-02
1.386693346673336691e+03 1.605754169093884590e-02
1.387593796898449227e+03 1.633279184496684924e-02
1.388494247123561763e+03 1.653692119451702011e-02
1.389394697348674299e+03 1.673327117284513846e-02
1.390295147573786835e+03 1.698966495738902030e-02
1.391195597798899371e+03 1.731044512287152615e-02
1.392096048024011907e+03 1.763887934460177387e-02
1.392996498249124443e+03 1.791078877014551721e-02
1.393896948474236979e+03 1.808874745196642139e-02
1.394797398699349515e+03 1.815691079083123563e-02
1.395697848924462278e+03 1.817086430036903358e-02
1.396598299149574814e+03 1.821105986532199975e-02
1.397498749374687350e+03 1.829276024276786650e-02
1.398399199599799886e+03 1.837490002496999092e-02
1.399299649824912422e+03 1.842269020482483963e-02
1.400200100050024957e+03 1.844143796031118623e-02
1.401100550275137493e+03 1.843993628782461883e-02
1.402001000500250029e+03 1.839845761096946253e-02
1.402901450725362565e+03 1.830981688120377621e-02
1.403801900950475101e+03 1.821553679439947768e-02
1.404702351175587637e+03 1.817313229501979488e-02
1.405602801400700173e+03 1.814516472609372516e-02
1.406503251625812936e+03 1.803118367068853520e-02
1.407403701850925472e+03 1.782762904350319172e-02
1.408304152076038008e+03 1.760391678173999636e-02
1.409204602301150544e+03 1.739939672702657883e-02
1.410105052526263080e+03 1.723310197668238494e-02
1.411005502751375616e+03 1.713112308630060018e-02
1.411905952976488152e+03 1.709801213206185028e-02
1.412806403201600688e+03 1.710378577915725243e-02
1.413706853426713224e+03 1.710189484023823606e-02
1.414607303651825760e+03 1.704241024264935983e-02
1.415507753876938295e+03 1.687927737557052416e-02
1.416408204102051059e+03 1.658505737873198702e-02
1.417308654327163595e+03 1.618523285691065780e-02
1.418209104552276131e+03 1.574371416145863359e-02
1.419109554777388666e+03 1.528494475478653705e-02
1.420010005002501202e+03 1.478633758332190129e-02
1.420910455227613738e+03 1.424249878765046842e-02
1.421810905452726274e+03 1.370349805784610436e-02
1.422711355677838810e+03 1.322150119138630793e-02
1.423611805902951346e+03 1.281081948687518533e-02
1.424512256128063882e+03 1.247079826547546622e-02
1.425412706353176418e+03 1.220114115363117764e-02
1.426313156578289181e+03 1.200202899358994782e-02
1.427213606803401717e+03 1.188083396152952824e-02
1.428114057028514253e+03 1.182850963019420505e-02
1.429014507253626789e+03 1.177514924263252209e-02
1.429914957478739325e+03 1.166006775620886428e-02
1.430815407703851861e+03 1.149356375384802051e-02
1.431715857928964397e+03 1.128376829774774097e-02
1.432616308154076933e+03 1.101804235767162542e-02
1.433516758379189469e+03 1.072824740975912745e-02
1.434417208604302004e+03 1.047743784811122972e-02
1.435317658829414540e+03 1.025186169641059165e-02
1.436218109054527304e+03 9.987690534503039508e-03
1.437118559279639840e+03 9.672229521533301858e-03
1.438019009504752376e+03 9.332764406437994709e-03
1.438919459729864911e+03 8.995216589357736547e-03
1.439819909954977447e+03 8.676496435411127847e-03
1.440720360180089983e+03 8.401195386398958159e-03
1.441620810405202519e+03 8.207186537483097954e-03
1.442521260630315055e+03 8.104349878304500585e-03
1.443421710855427591e+03 8.038377569691975214e-03
1.444322161080540127e+03 7.935517720249814222e-03
1.445222611305652663e+03 7.777279081638263647e-03
1.446123061530765426e+03 7.598748176935435708e-03
1.447023511755877962e+03 7.432797879606246015e-03
1.447923961980990498e+03 7.290165278492060502e-03
1.448824412206103034e+03 7.162965197182580464e-03
1.449724862431215570e+03 7.021003230989383490e-03
1.450625312656328106e+03 6.847366996854460652e-03
1.451525762881440642e+03 6.661287063517791832e-03
1.452426213106553178e+03 6.492230842246284744e-03
1.453326663331665713e+03 6.356369411619438789e-03
1.454227113556778249e+03 6.244138404328873973e-03
1.455127563781890785e+03 6.120646151762933369e-03
1.456028014007003321e+03 5.961904757659939637e-03
1.456928464232116085e+03 5.786314447296860008e-03
1.457828914457228620e+03 5.623462620924839402e-03
1.458729364682341156e+03 5.466480577524151889e-03
1.459629814907453692e+03 5.293461971027251835e-03
1.460530265132566228e+03 5.113961872287467285e-03
1.461430715357678764e+03 4.954955393084737973e-03
1.462331165582791300e+03 4.818137462837618172e-03
1.463231615807903836e+03 4.678574852960349501e-03
1.464132066033016372e+03 4.516580192746321581e-03
1.465032516258128908e+03 4.336042150370725441e-03
1.465932966483241444e+03 4.153482768410702262e-03
1.466833416708354207e+03 3.988364145271291843e-03
1.467733866933466743e+03 3.860083951649611374e-03
1.468634317158579279e+03 3.775564113563304510e-03
1.469534767383691815e+03 3.722202881231822299e-03
1.470435217608804351e+03 3.679284496656170730e-03
1.471335667833916887e+03 3.629125266890691377e-03
1.472236118059029423e+03 3.558541821031091772e-03
1.473136568284141958e+03 3.459146683606454612e-03
1.474037018509254494e+03 3.333971067986355504e-03
1.474937468734367030e+03 3.196441418024302625e-03
1.475837918959479566e+03 3.059146477982904126e-03
1.476738369184592329e+03 2.930774548545859049e-03
1.477638819409704865e+03 2.818595296474795796e-03
1.478539269634817401e+03 2.726295642318910407e-03
1.479439719859929937e+03 2.653590172317130125e-03
1.480340170085042473e+03 2.593984725053039876e-03
1.481240620310155009e+03 2.536913117616676830e-03
1.482141070535267545e+03 2.476956740605577075e-03
1.483041520760380081e+03 2.416546991087412978e-03
1.483941970985492617e+03 2.360231975854893815e-03
1.484842421210605153e+03 2.306106206023035045e-03
1.485742871435717689e+03 2.248194130334074062e-03
1.486643321660830452e+03 2.189608746639297270e-03
1.487543771885942988e+03 2.136211487978342469e-03
1.488444222111055524e+03 2.087379382957898349e-03
1.489344672336168060e+03 2.043896975465965288e-03
1.490245122561280596e+03 2.008410587071064908e-03
1.491145572786393132e+03 1.977088592369537646e-03
1.492046023011505667e+03 1.943014135421119266e-03
1.492946473236618203e+03 1.906424336563095415e-03
1.493846923461730739e+03 1.873449257579049140e-03
1.494747373686843275e+03 1.846890561283192787e-03
1.495647823911955811e+03 1.823680314961212976e-03
1.496548274137068574e+03 1.800004577915427116e-03
1.497448724362181110e+03 1.776335380389387720e-03
1.498349174587293646e+03 1.759146761199993940e-03
1.499249624812406182e+03 1.751920354417171302e-03
1.500150075037518718e+03 1.749004430736940440e-03
1.501050525262631254e+03 1.743763289764362632e-03
1.501950975487743790e+03 1.733676812676128833e-03
1.502851425712856326e+03 1.718366662427903363e-03
1.503751875937968862e+03 1.700066442359963624e-03
1.504652326163081398e+03 1.681818103110649214e-03
1.505552776388193934e+03 1.666485719800431167e-03
1.506453226613306470e+03 1.655976805233841170e-03
1.507353676838419233e+03 1.648345905370222648e-03
1.508254127063531769e+03 1.637610606885445824e-03
1.509154577288644305e+03 1.619010937546369686e-03
1.510055027513756841e+03 1.593871354880072120e-03
1.510955477738869376e+03 1.566706223476012393e-03
1.511855927963981912e+03 1.540185527652540489e-03
1.512756378189094448e+03 1.516256410519087154e-03
1.513656828414206984e+03 1.498391353515139864e-03
1.514557278639319520e+03 1.487630326844062651e-03
1.515457728864432056e+03 1.478697204261902485e-03
1.516358179089544592e+03 1.468061927927867679e-03
1.517258629314657355e+03 1.457003666496154825e-03
1.518159079539769891e+03 1.448007695169562176e-03
1.519059529764882427e+03 1.443848876200452217e-03
1.519959979989994963e+03 1.443265830241855082e-03
1.520860430215107499e+03 1.440699996540371420e-03
1.521760880440220035e+03 1.434167640206098502e-03
1.522661330665332571e+03 1.426150297851485607e-03
1.523561780890445107e+03 1.420238398953010918e-03
1.524462231115557643e+03 1.419009455482397831e-03
1.525362681340670179e+03 1.421038287150053854e-03
1.526263131565782714e+03 1.421969198962861735e-03
1.527163581790895478e+03 1.420175839457848803e-03
1.528064032016008014e+03 1.417284103970792904e-03
1.528964482241120550e+03 1.413562289724932348e-03
1.529864932466233086e+03 1.409103684536359546e-03
1.530765382691345621e+03 1.405564653725921691e-03
1.531665832916458157e+03 1.399205453002582865e-03
1.532566283141570693e+03 1.383646228349415426e-03
1.533466733366683229e+03 1.363104086501679699e-03
1.534367183591795765e+03 1.346127924803378322e-03
1.535267633816908301e+03 1.331873660685608130e-03
1.536168084042020837e+03 1.315083674979464776e-03
1.537068534267133600e+03 1.294805155413358616e-03
1.537968984492246136e+03 1.270807137978691723e-03
1.538869434717358672e+03 1.242035005334215549e-03
1.539769884942471208e+03 1.209583971998846397e-03
1.540670335167583744e+03 1.177213420543516981e-03
1.541570785392696280e+03 1.149749748426153123e-03
1.542471235617808816e+03 1.127950529328535607e-03
1.543371685842921352e+03 1.107876388602908576e-03
1.544272136068033888e+03 1.085462145394818509e-03
1.545172586293146423e+03 1.058091563370558257e-03
1.546073036518258959e+03 1.027770508091286825e-03
1.546973486743371723e+03 1.001982976244005560e-03
1.547873936968484259e+03 9.866272887016911460e-04
1.548774387193596795e+03 9.814167512480463391e-04
1.549674837418709330e+03 9.833826397948996611e-04
1.550575287643821866e+03 9.873566697926193687e-04
1.551475737868934402e+03 9.868433598807201113e-04
1.552376188094046938e+03 9.793756892697224551e-04
1.553276638319159474e+03 9.693057269450951067e-04
1.554177088544272010e+03 9.626189382840212713e-04
1.555077538769384546e+03 9.606630720297717422e-04
1.555977988994497082e+03 9.589063623655683620e-04
1.556878439219609618e+03 9.510771482905371185e-04
1.557778889444722381e+03 9.354396880876869125e-04
1.558679339669834917e+03 9.149684472749033655e-04
1.559579789894947453e+03 8.962277128165026382e-04
1.560480240120059989e+03 8.838865748946896474e-04
1.561380690345172525e+03 8.751827512383242172e-04
1.562281140570285061e+03 8.633155380723413728e-04
1.563181590795397597e+03 8.447161848488559700e-04
1.564082041020510133e+03 8.188284539863533535e-04
1.564982491245622668e+03 7.863507283269486692e-04
1.565882941470735204e+03 7.495900966431183780e-04
1.566783391695847740e+03 7.112830424879038743e-04
1.567683841920960504e+03 6.750740887452749174e-04
1.568584292146073039e+03 6.426277921030571893e-04
1.569484742371185575e+03 6.124539922376075066e-04
1.570385192596298111e+03 5.825344657517839315e-04
1.571285642821410647e+03 5.509387330459905021e-04
1.572186093046523183e+03 5.160050978695162466e-04
1.573086543271635719e+03 4.762528088697409148e-04
1.573986993496748255e+03 4.331998408935204482e-04
1.574887443721860791e+03 3.894809677014904911e-04
1.575787893946973327e+03 3.455248651757022874e-04
1.576688344172085863e+03 3.042357546356030062e-04
1.577588794397198626e+03 2.703950915768569803e-04
1.578489244622311162e+03 2.450659911937723358e-04
1.579389694847423698e+03 2.251967598624162782e-04
1.580290145072536234e+03 2.071589025770990901e-04
1.581190595297648770e+03 1.895239272016221294e-04
1.582091045522761306e+03 1.731592295296165184e-04
1.582991495747873842e+03 1.591636209678249378e-04
1.583891945972986377e+03 1.475440391874266552e-04
1.584792396198098913e+03 1.377892105951405608e-04
1.585692846423211449e+03 1.296077964285439446e-04
1.586593296648323985e+03 1.229354604501408396e-04
1.587493746873436749e+03 1.176689307706853781e-04
1.588394197098549284e+03 1.136825476484339261e-04
1.589294647323661820e+03 1.109254066885441279e-04
1.590195097548774356e+03 1.094534413413097952e-04
1.591095547773886892e+03 1.093635809202344456e-04
1.591995997998999428e+03 1.104921705374564830e-04
1.592896448224111964e+03 1.117567890276812776e-04
1.593796898449224500e+03 1.110820005821022965e-04
1.594697348674337036e+03 1.074913504700671704e-04
1.595597798899449572e+03 1.023545627397165226e-04
1.596498249124562108e+03 9.748048032692471386e-05
1.597398699349674871e+03 9.370600615770290152e-05
1.598299149574787407e+03 9.089512836637444494e-05
1.599199599799899943e+03 8.852317500944430694e-05
1.600100050025012479e+03 8.646296193266442276e-05
1.601000500250125015e+03 8.504854734447473276e-05
1.601900950475237551e+03 8.443854092875166799e-05
1.602801400700350086e+03 8.426490752325273227e-05
1.603701850925462622e+03 8.381176539413736661e-05
1.604602301150575158e+03 8.285169389830416913e-05
1.605502751375687694e+03 8.202073824348684033e-05
1.606403201600800230e+03 8.187026870484883148e-05
1.607303651825912766e+03 8.214082116986587997e-05
1.608204102051025529e+03 8.210861178053848104e-05
1.609104552276138065e+03 8.143970412583456057e-05
1.610005002501250601e+03 8.065521137598615148e-05
1.610905452726363137e+03 8.070429164650365123e-05
1.611805902951475673e+03 8.196586619816163789e-05
1.612706353176588209e+03 8.385916106100071586e-05
1.613606803401700745e+03 8.535948900594983533e-05
1.614507253626813281e+03 8.578814645523464416e-05
1.615407703851925817e+03 8.494479201634313993e-05
1.616308154077038353e+03 8.321778385423153623e-05
1.617208604302150889e+03 8.142213610380916579e-05
1.618109054527263652e+03 8.000708835980267796e-05
1.619009504752376188e+03 7.884958993727547965e-05
1.619909954977488724e+03 7.782535285388710803e-05
1.620810405202601260e+03 7.670801784151924858e-05
1.621710855427713796e+03 7.496944734969912040e-05
1.622611305652826331e+03 7.259213352836414582e-05
1.623511755877938867e+03 6.997246931543918598e-05
1.624412206103051403e+03 6.722690258489740270e-05
1.625312656328163939e+03 6.445003952031918128e-05
1.626213106553276475e+03 6.167073929396511432e-05
1.627113556778389011e+03 5.880798652297345439e-05
1.628014007003501774e+03 5.612549941691936142e-05
1.628914457228614310e+03 5.395840619267183811e-05
1.629814907453726846e+03 5.239480223528315459e-05
1.630715357678839382e+03 5.134922785779120769e-05
1.631615807903951918e+03 5.060876657312055358e-05
1.632516258129064454e+03 4.982554921917852321e-05
1.633416708354176990e+03 4.876850336950821016e-05
1.634317158579289526e+03 4.758645381460904165e-05
1.635217608804402062e+03 4.653673204646830748e-05
1.636118059029514598e+03 4.573268394373303073e-05
1.637018509254627133e+03 4.519251951987701866e-05
1.637918959479739897e+03 4.492446275106012579e-05
1.638819409704852433e+03 4.496045525291556211e-05
1.639719859929964969e+03 4.535133054718794873e-05
1.640620310155077505e+03 4.610111822282997459e-05
1.641520760380190040e+03 4.698206606678171640e-05
1.642421210605302576e+03 4.738196123334463566e-05
1.643321660830415112e+03 4.678456708914740793e-05
1.644222111055527648e+03 4.547136738446642799e-05
1.645122561280640184e+03 4.411328892935803482e-05
1.646023011505752720e+03 4.312077852088094110e-05
1.646923461730865256e+03 4.261648834909979926e-05
1.647823911955978019e+03 4.263384706174921029e-05
1.648724362181090555e+03 4.323467842673201509e-05
1.649624812406203091e+03 4.452912400657427596e-05
1.650525262631315627e+03 4.657778506866063178e-05
1.651425712856428163e+03 4.905079761453972996e-05
1.652326163081540699e+03 5.075270896046758058e-05
1.653226613306653235e+03 5.018700294151280932e-05
1.654127063531765771e+03 4.744138185708635168e-05
1.655027513756878307e+03 4.405210612809292440e-05
1.655927963981990843e+03 4.111089594461859602e-05
1.656828414207103378e+03 3.885630374142144130e-05
1.657728864432216142e+03 3.717142120977982400e-05
1.658629314657328678e+03 3.589225836752718958e-05
1.659529764882441214e+03 3.489096247580913469e-05
1.660430215107553749e+03 3.408033551621295607e-05
1.661330665332666285e+03 3.340287805028833063e-05
1.662231115557778821e+03 3.282063168174390044e-05
1.663131565782891357e+03 3.230816909926299011e-05
1.664032016008003893e+03 3.184811924434715474e-05
1.664932466233116429e+03 3.142836263578329092e-05
1.665832916458228965e+03 3.104026612059927905e-05
1.666733366683341501e+03 3.067755669036926932e-05
1.667633816908454037e+03 3.033559044343794726e-05
1.668534267133566800e+03 3.001086916241571428e-05
1.669434717358679336e+03 2.970071465765212494e-05
1.670335167583791872e+03 2.940304542672029711e-05
1.671235617808904408e+03 2.911622085706919556e-05
1.672136068034016944e+03 2.883893079213896933e-05
1.673036518259129480e+03 2.857011607054094776e-05
1.673936968484242016e+03 2.830891054519270227e-05
1.674837418709354552e+03 2.805459821923676379e-05
1.675737868934467087e+03 2.780658116829825063e-05
1.676638319159579623e+03 2.756435525936053312e-05
1.677538769384692159e+03 2.732749157398725958e-05
1.678439219609804923e+03 2.709562205286159702e-05
1.679339669834917459e+03 2.686842829771174374e-05
1.680240120060029994e+03 2.664563275868358431e-05
1.681140570285142530e+03 2.642699174104277431e-05
1.682041020510255066e+03 2.621228981185457085e-05
1.682941470735367602e+03 2.600133529303058424e-05
1.683841920960480138e+03 2.579395660409825709e-05
1.684742371185592674e+03 2.558999927461139633e-05
1.685642821410705210e+03 2.538932348804884143e-05
1.686543271635817746e+03 2.519180205041445954e-05
1.687443721860930282e+03 2.499731870038785555e-05
1.688344172086043045e+03 2.480576669584303045e-05
1.689244622311155581e+03 2.461704762529866829e-05
1.690145072536268117e+03 2.443107040345389368e-05
1.691045522761380653e+03 2.424775041819134526e-05
1.691945972986493189e+03 2.406700880283704525e-05
1.692846423211605725e+03 2.388877181251843298e-05
1.693746873436718261e+03 2.371297028743591715e-05
1.694647323661830796e+03 2.353953918903116770e-05
1.695547773886943332e+03 2.336841719756555392e-05
1.696448224112055868e+03 2.319954636164204114e-05
1.697348674337168404e+03 2.303287179185223204e-05
1.698249124562281168e+03 2.286834139204495573e-05
1.699149574787393703e+03 2.270590562280366402e-05
1.700050025012506239e+03 2.254551729259170504e-05
1.700950475237618775e+03 2.238713137276041897e-05
1.701850925462731311e+03 2.223070483320615902e-05
1.702751375687843847e+03 2.207619649596047708e-05
1.703651825912956383e+03 2.192356690440409639e-05
1.704552276138068919e+03 2.177277820614956322e-05
1.705452726363181455e+03 2.162379404790993665e-05
1.706353176588293991e+03 2.147657948092432769e-05
1.707253626813406527e+03 2.133110087570960661e-05
1.708154077038519290e+03 2.118732584507763400e-05
1.709054527263631826e+03 2.104522317451177488e-05
1.709954977488744362e+03 2.090476275910988670e-05
1.710855427713856898e+03 2.076591554641906188e-05
1.711755877938969434e+03 2.062865348457097029e-05
1.712656328164081970e+03 2.049294947521118133e-05
1.713556778389194506e+03 2.035877733077999234e-05
1.714457228614307041e+03 2.022611173576660049e-05
1.715357678839419577e+03 2.009492821160930090e-05
1.716258129064532113e+03 1.996520308495852751e-05
1.717158579289644649e+03 1.983691345906450705e-05
1.718059029514757185e+03 1.971003718808648543e-05
1.718959479739869948e+03 1.958455285415420822e-05
1.719859929964982484e+03 1.946043974704094931e-05
1.720760380190095020e+03 1.933767784634428909e-05
1.721660830415207556e+03 1.921624780608385024e-05
1.722561280640320092e+03 1.909613094166457306e-05
1.723461730865432628e+03 1.897730921917192997e-05
1.724362181090545164e+03 1.885976524699262157e-05
1.725262631315657700e+03 1.874348226977702752e-05
1.726163081540770236e+03 1.862844416479283462e-05
1.727063531765882772e+03 1.851463544073608726e-05
1.727963981990995308e+03 1.840204123910431925e-05
1.728864432216108071e+03 1.829064733826454473e-05
1.729764882441220607e+03 1.818044016037927724e-05
1.730665332666333143e+03 1.807140678140286690e-05
1.731565782891445679e+03 1.796353494438993306e-05
1.732466233116558215e+03 1.785681307641924517e-05
1.733366683341670750e+03 1.775123030948269710e-05
1.734267133566783286e+03 1.764677650576087188e-05
1.735167583791895822e+03 1.754344228777429083e-05
1.736068034017008358e+03 1.744121907399175702e-05
1.736968484242120894e+03 1.734009912057530350e-05
1.737868934467233430e+03 1.724007557005960699e-05
1.738769384692346193e+03 1.714114250791031924e-05
1.739669834917458729e+03 1.704329502806187587e-05
1.740570285142571265e+03 1.694652930874385871e-05
1.741470735367683801e+03 1.685084270013551254e-05
1.742371185592796337e+03 1.675623382567385024e-05
1.743271635817908873e+03 1.666270269918026416e-05
1.744172086043021409e+03 1.657025086038495406e-05
1.745072536268133945e+03 1.647888153192929162e-05
1.745972986493246481e+03 1.638859980152938342e-05
1.746873436718359017e+03 1.629941283373566297e-05
1.747773886943471553e+03 1.621133011663221913e-05
1.748674337168584316e+03 1.612436374994545462e-05
1.749574787393696852e+03 1.603852878243172534e-05
1.750475237618809388e+03 1.595384360814265670e-05
1.751375687843921924e+03 1.587033043334391409e-05
1.752276138069034459e+03 1.578801582858825560e-05
1.753176588294146995e+03 1.570693138388927907e-05
1.754077038519259531e+03 1.562711448932577331e-05
1.754977488744372067e+03 1.554860926899611227e-05
1.755877938969484603e+03 1.547146770343822209e-05
1.756778389194597139e+03 1.539575098493611044e-05
1.757678839419709675e+03 1.532153116224287308e-05
1.758579289644822438e+03 1.524889314714899780e-05
1.759479739869934974e+03 1.517793717630065874e-05
1.760380190095047510e+03 1.510878184961746478e-05
1.761280640320160046e+03 1.504156790414102987e-05
1.762181090545272582e+03 1.497646293288939338e-05
1.763081540770385118e+03 1.491366732758238999e-05
1.763981990995497654e+03 1.485342181964289675e-05
1.764882441220610190e+03 1.479601712693064522e-05
1.765782891445722726e+03 1.474180640094562373e-05
1.766683341670835262e+03 1.469122143582835501e-05
1.767583791895947797e+03 1.464479398451665383e-05
1.768484242121060333e+03 1.460318408764381427e-05
1.769384692346173097e+03 1.456721814897119212e-05
1.770285142571285633e+03 1.453794073286114549e-05
1.771185592796398169e+03 1.451668594866570153e-05
1.772086043021510704e+03 1.450517720652059508e-05
1.772986493246623240e+03 1.450566871346291726e-05
1.773886943471735776e+03 1.452114939578126032e-05
1.774787393696848312e+03 1.455564180223885211e-05
1.775687843921960848e+03 1.461464808906417806e-05
1.776588294147073384e+03 1.470582778439544651e-05
1.777488744372185920e+03 1.484004675950787175e-05
1.778389194597298456e+03 1.503302819732053464e-05
1.779289644822411219e+03 1.530798369185794447e-05
1.780190095047523755e+03 1.569981482085846026e-05
1.781090545272636291e+03 1.626166812071786134e-05
1.781990995497748827e+03 1.707426245458739671e-05
1.782891445722861363e+03 1.825511587592300335e-05
1.783791895947973899e+03 1.994994647172249020e-05
1.784692346173086435e+03 2.224019245040366672e-05
1.785592796398198971e+03 2.482571414237720920e-05
1.786493246623311506e+03 2.658679252474087062e-05
1.787393696848424042e+03 2.620380201220111002e-05
1.788294147073536578e+03 2.394727149037886339e-05
1.789194597298649342e+03 2.125725513978835534e-05
1.790095047523761878e+03 1.901294455866119960e-05
1.790995497748874413e+03 1.736112036878406100e-05
1.791895947973986949e+03 1.618363747194551792e-05
1.792796398199099485e+03 1.533906025432100627e-05
1.793696848424212021e+03 1.472070239721994952e-05
1.794597298649324557e+03 1.425670627700825775e-05
1.795497748874437093e+03 1.390002964110531940e-05
1.796398199099549629e+03 1.361984539891239865e-05
1.797298649324662165e+03 1.339572659295470039e-05
1.798199099549774701e+03 1.321396731403160433e-05
1.799099549774887464e+03 1.306529390423057422e-05
1.800000000000000000e+03 1.294344175887174650e-05
