0.000000000000000000e+00 1.009310956263446491e-03
9.004502251125562351e-01 1.345181243899460722e-03
1.800900450225112470e+00 1.753049050518369232e-03
2.701350675337668594e+00 2.129741240483170369e-03
3.601800900450224940e+00 2.325380157956471842e-03
4.502251125562780842e+00 2.304335574168045811e-03
5.402701350675337189e+00 2.118641929580714588e-03
6.303151575787893535e+00 1.797338598193157005e-03
7.203601800900449881e+00 1.416761290710021048e-03
8.104052026013006227e+00 1.076586040225931129e-03
9.004502251125561685e+00 8.154762661502190342e-04
9.904952476238118919e+00 6.260366856161267597e-04
1.080540270135067438e+01 4.900612641901601688e-04
1.170585292646323161e+01 3.916011536861970627e-04
1.260630315157578707e+01 3.190466023718757085e-04
1.350675337668834430e+01 2.644783803470404952e-04
1.440720360180089976e+01 2.226140522806979933e-04
1.530765382691345522e+01 1.899260486310553838e-04
1.620810405202601245e+01 1.640173845946232096e-04
1.710855427713856969e+01 1.432074895953352339e-04
1.800900450225112337e+01 1.262340522297982295e-04
1.890945472736368060e+01 1.120714908747142671e-04
1.980990495247623784e+01 9.997757280875739841e-05
2.071035517758879507e+01 8.957754983104589987e-05
2.161080540270134875e+01 8.066758292894931118e-05
2.251125562781390599e+01 7.303782982420503654e-05
2.341170585292646322e+01 6.647496883947831678e-05
2.431215607803901690e+01 6.079387143036119252e-05
2.521260630315157414e+01 5.584503118741982548e-05
2.611305652826413137e+01 5.151065909696205274e-05
2.701350675337668861e+01 4.769902086503516878e-05
2.791395697848924229e+01 4.433838921177530500e-05
2.881440720360179952e+01 4.136935574864259037e-05
2.971485742871435676e+01 3.873335526388689521e-05
3.061530765382691044e+01 3.636304784313907501e-05
3.151575787893946767e+01 3.419576612174914375e-05
3.241620810405202491e+01 3.218925528722305551e-05
3.331665832916458214e+01 3.031718536665677546e-05
3.421710855427713938e+01 2.858378125831764267e-05
3.511755877938969661e+01 2.700883718111320739e-05
3.601800900450224674e+01 2.559271552541497508e-05
3.691845922961480397e+01 2.430985334347361573e-05
3.781890945472736121e+01 2.311914718820838529e-05
3.871935967983991844e+01 2.199381858090827203e-05
3.961980990495247568e+01 2.094050142696923732e-05
4.052026013006503291e+01 1.997358434816329868e-05
4.142071035517759015e+01 1.909559319926905935e-05
4.232116058029014027e+01 1.830202348098470958e-05
4.322161080540269751e+01 1.758852576085887244e-05
4.412206103051525474e+01 1.695389528904453843e-05
4.502251125562781198e+01 1.640036997645180066e-05
4.592296148074036921e+01 1.593108240339684387e-05
4.682341170585292645e+01 1.554354387484999930e-05
4.772386193096548368e+01 1.522370460810292744e-05
4.862431215607803381e+01 1.493882771717369139e-05
4.952476238119059104e+01 1.461978005676644946e-05
5.042521260630314828e+01 1.420972595406336527e-05
5.132566283141570551e+01 1.375295566995223814e-05
5.222611305652826275e+01 1.332975831786726447e-05
5.312656328164081998e+01 1.296861680133888949e-05
5.402701350675337721e+01 1.267152349708325205e-05
5.492746373186592734e+01 1.242770471611931835e-05
5.582791395697848458e+01 1.218504057075519320e-05
5.672836418209104181e+01 1.186798317919385089e-05
5.762881440720359905e+01 1.147192488020245597e-05
5.852926463231615628e+01 1.107728349672323746e-05
5.942971485742871351e+01 1.073580499148512688e-05
6.033016508254127075e+01 1.044755489777140043e-05
6.123061530765382088e+01 1.021230583801619086e-05
6.213106553276637811e+01 1.003621661733967988e-05
6.303151575787893535e+01 9.916805972977586696e-06
6.393196598299149258e+01 9.831226520151604132e-06
6.483241620810404982e+01 9.757873572415902124e-06
6.573286643321659994e+01 9.697044869401075709e-06
6.663331665832916428e+01 9.625176331928317179e-06
6.753376688344171441e+01 9.471642370939425016e-06
6.843421710855427875e+01 9.211750592030656630e-06
6.933466733366682888e+01 8.924632609856564700e-06
7.023511755877939322e+01 8.711341478860853811e-06
7.113556778389194335e+01 8.623698334197301297e-06
7.203601800900449348e+01 8.669638470755375482e-06
7.293646823411705782e+01 8.822375785396757169e-06
7.383691845922960795e+01 8.994093574030213433e-06
7.473736868434217229e+01 9.062179533349328677e-06
7.563781890945472242e+01 9.000700988494020796e-06
7.653826913456728676e+01 8.901052464129130740e-06
7.743871935967983688e+01 8.866534299229254288e-06
7.833916958479238701e+01 8.941654381018798080e-06
7.923961980990495135e+01 9.063196252796858378e-06
8.014007003501750148e+01 9.113336987314667737e-06
8.104052026013006582e+01 9.049039007036420546e-06
8.194097048524261595e+01 8.926665655887416139e-06
8.284142071035518029e+01 8.822337275440309763e-06
8.374187093546773042e+01 8.763842317041915358e-06
8.464232116058028055e+01 8.723117702495647698e-06
8.554277138569284489e+01 8.653539889426440846e-06
8.644322161080539502e+01 8.531046628332021126e-06
8.734367183591795936e+01 8.360736951112033818e-06
8.824412206103050949e+01 8.168997967804650790e-06
8.914457228614307382e+01 7.990166859372637237e-06
9.004502251125562395e+01 7.801627359384819577e-06
9.094547273636817408e+01 7.555064401953292198e-06
9.184592296148073842e+01 7.265910857522666831e-06
9.274637318659328855e+01 6.989782841468924522e-06
9.364682341170585289e+01 6.780463876699115967e-06
9.454727363681840302e+01 6.675483371401417176e-06
9.544772386193096736e+01 6.686899217475688093e-06
9.634817408704351749e+01 6.773573384037551350e-06
9.724862431215606762e+01 6.843025297045642508e-06
9.814907453726863196e+01 6.837217965137404201e-06
9.904952476238118209e+01 6.788338167619904389e-06
9.994997498749374643e+01 6.749438828443833349e-06
1.008504252126062966e+02 6.739173796146444393e-06
1.017508754377188609e+02 6.785408758248267134e-06
1.026513256628314110e+02 6.926353792279895649e-06
1.035517758879439612e+02 7.129361055916390286e-06
1.044522261130565255e+02 7.297991693847740734e-06
1.053526763381690756e+02 7.381315478026824248e-06
1.062531265632816400e+02 7.396850700886400242e-06
1.071535767883941901e+02 7.401307950921427865e-06
1.080540270135067544e+02 7.483126667491462750e-06
1.089544772386193046e+02 7.656490597484789110e-06
1.098549274637318547e+02 7.804139363948671944e-06
1.107553776888444190e+02 7.801641839980368452e-06
1.116558279139569692e+02 7.675021246633259182e-06
1.125562781390695335e+02 7.561995993887294065e-06
1.134567283641820836e+02 7.543043843450559207e-06
1.143571785892946480e+02 7.596204636359683741e-06
1.152576288144071981e+02 7.680064838630589868e-06
1.161580790395197482e+02 7.764508628670733530e-06
1.170585292646323126e+02 7.792569228372460202e-06
1.179589794897448627e+02 7.745275692614902408e-06
1.188594297148574270e+02 7.716888717775595262e-06
1.197598799399699772e+02 7.812482751959237663e-06
1.206603301650825415e+02 8.019346161686555439e-06
1.215607803901950916e+02 8.188923332009889956e-06
1.224612306153076418e+02 8.125497303596151554e-06
1.233616808404202061e+02 7.792262834814641970e-06
1.242621310655327562e+02 7.383127963273514973e-06
1.251625812906453206e+02 7.118009441390440810e-06
1.260630315157578707e+02 7.094696654903653666e-06
1.269634817408704350e+02 7.305391322285677997e-06
1.278639319659829852e+02 7.695525114651595864e-06
1.287643821910955353e+02 8.170377830958932769e-06
1.296648324162080996e+02 8.587195758077654912e-06
1.305652826413206640e+02 8.825176907493731263e-06
1.314657328664331999e+02 8.838388823682609194e-06
1.323661830915457642e+02 8.635401365619088039e-06
1.332666333166583286e+02 8.294835681816937784e-06
1.341670835417708929e+02 7.957712103765543743e-06
1.350675337668834288e+02 7.730792417099269378e-06
1.359679839919959932e+02 7.664736098364201234e-06
1.368684342171085575e+02 7.756060288050557804e-06
1.377688844422210934e+02 7.910754324871610921e-06
1.386693346673336578e+02 8.002373941155525465e-06
1.395697848924462221e+02 7.983572559537080912e-06
1.404702351175587864e+02 7.857404656106018340e-06
1.413706853426713224e+02 7.652951950077827731e-06
1.422711355677838867e+02 7.478013408334703116e-06
1.431715857928964510e+02 7.444826852261976977e-06
1.440720360180089870e+02 7.567201050181626252e-06
1.449724862431215513e+02 7.776075164809558601e-06
1.458729364682341156e+02 7.973305669726519308e-06
1.467733866933466800e+02 8.099220322452598632e-06
1.476738369184592159e+02 8.130895247502217441e-06
1.485742871435717802e+02 8.058392003361765764e-06
1.494747373686843446e+02 7.912410679702442019e-06
1.503751875937968805e+02 7.753943551329105021e-06
1.512756378189094448e+02 7.633119959102214753e-06
1.521760880440220092e+02 7.580490078238989815e-06
1.530765382691345735e+02 7.632686353554566595e-06
1.539769884942471094e+02 7.824984010275864928e-06
1.548774387193596738e+02 8.142184094254954221e-06
1.557778889444722381e+02 8.486040488146274181e-06
1.566783391695847740e+02 8.738590466320394874e-06
1.575787893946973384e+02 8.843196425620890758e-06
1.584792396198099027e+02 8.820102831517962605e-06
1.593796898449224670e+02 8.745811479419857298e-06
1.602801400700350030e+02 8.713362586754897675e-06
1.611805902951475673e+02 8.775654258718240300e-06
1.620810405202601316e+02 8.908501574270212314e-06
1.629814907453726676e+02 9.029853198426752552e-06
1.638819409704852319e+02 9.087118581255525441e-06
1.647823911955977962e+02 9.106152005721448049e-06
1.656828414207103606e+02 9.121860509055051706e-06
1.665832916458228965e+02 9.103157360810428260e-06
1.674837418709354608e+02 8.995847064296026116e-06
1.683841920960480252e+02 8.808136481836595897e-06
1.692846423211605611e+02 8.591818957148799653e-06
1.701850925462731254e+02 8.380184289037980014e-06
1.710855427713856898e+02 8.202193500239681246e-06
1.719859929964982541e+02 8.088974770397663899e-06
1.728864432216107900e+02 8.051166373711975219e-06
1.737868934467233544e+02 8.092620224905130850e-06
1.746873436718359187e+02 8.208523719120344340e-06
1.755877938969484546e+02 8.375585274301747501e-06
1.764882441220610190e+02 8.561859887866213160e-06
1.773886943471735833e+02 8.758037540668849464e-06
1.782891445722861476e+02 8.974924463753813315e-06
1.791895947973986836e+02 9.218782332620693471e-06
1.800900450225112479e+02 9.479919093392237433e-06
1.809904952476238122e+02 9.712379242000844753e-06
1.818909454727363482e+02 9.852667869964007284e-06
1.827913956978489125e+02 9.889740004875002190e-06
1.836918459229614768e+02 9.890274615162197405e-06
1.845922961480740412e+02 9.906140159482923550e-06
1.854927463731865771e+02 9.930754468513031198e-06
1.863931965982991414e+02 9.977352923638656892e-06
1.872936468234117058e+02 1.006319537969031483e-05
1.881940970485242417e+02 1.013279663526093058e-05
1.890945472736368060e+02 1.015492492217047083e-05
1.899949974987493704e+02 1.020444452031173333e-05
1.908954477238619347e+02 1.035462003713183949e-05
1.917958979489744706e+02 1.058969852150220800e-05
1.926963481740870350e+02 1.081501862900498259e-05
1.935967983991995993e+02 1.097806480238337980e-05
1.944972486243121352e+02 1.112482888725822737e-05
1.953976988494246996e+02 1.130888334626753259e-05
1.962981490745372639e+02 1.150722466121055218e-05
1.971985992996498283e+02 1.167988766530422820e-05
1.980990495247623642e+02 1.181191155030426282e-05
1.989994997498749285e+02 1.181014973964461740e-05
1.998999499749874929e+02 1.157613585390724126e-05
2.008004002001000288e+02 1.117701498380772778e-05
2.017008504252125931e+02 1.076854580059443546e-05
2.026013006503251574e+02 1.046429942566181294e-05
2.035017508754377218e+02 1.033689851995181717e-05
2.044022011005502577e+02 1.038606130619111308e-05
2.053026513256628220e+02 1.049837246507073371e-05
2.062031015507753864e+02 1.054626457164258424e-05
2.071035517758879223e+02 1.049452407856397439e-05
2.080040020010004866e+02 1.036081112567687122e-05
2.089044522261130510e+02 1.017046288702996974e-05
2.098049024512256153e+02 9.961306784105497815e-06
2.107053526763381512e+02 9.764034324738684329e-06
2.116058029014507156e+02 9.598417508303346067e-06
2.125062531265632799e+02 9.485994958529068665e-06
2.134067033516758158e+02 9.426406807856929567e-06
2.143071535767883802e+02 9.370912965705258110e-06
2.152076038019009445e+02 9.270075749464847865e-06
2.161080540270135089e+02 9.141785684472459339e-06
2.170085042521260448e+02 9.046976992098375596e-06
2.179089544772386091e+02 9.034430570626075923e-06
2.188094047023511735e+02 9.120173276371589528e-06
2.197098549274637094e+02 9.296796470697809227e-06
2.206103051525762737e+02 9.543191948384395804e-06
2.215107553776888381e+02 9.826307542091160954e-06
2.224112056028014024e+02 1.010819574882360940e-05
2.233116558279139383e+02 1.040934749843951496e-05
2.242121060530265027e+02 1.079344114224187473e-05
2.251125562781390670e+02 1.126352198195689041e-05
2.260130065032516029e+02 1.178247223295271843e-05
2.269134567283641672e+02 1.232120974892745457e-05
2.278139069534767316e+02 1.284186192504400217e-05
2.287143571785892959e+02 1.329635581077714582e-05
2.296148074037018318e+02 1.365674763380364404e-05
2.305152576288143962e+02 1.394392259821021965e-05
2.314157078539269605e+02 1.421386094378373742e-05
2.323161580790394964e+02 1.445436307023227774e-05
2.332166083041520608e+02 1.455173221151044324e-05
2.341170585292646251e+02 1.448110599483863088e-05
2.350175087543771895e+02 1.436874067669141258e-05
2.359179589794897254e+02 1.429089950482834289e-05
2.368184092046022897e+02 1.420263906442175847e-05
2.377188594297148541e+02 1.401944012601329085e-05
2.386193096548273900e+02 1.373348582231741238e-05
2.395197598799399543e+02 1.347546644753890431e-05
2.404202101050525187e+02 1.337260790593621013e-05
2.413206603301650830e+02 1.334065829332817808e-05
2.422211105552776189e+02 1.320727022340041263e-05
2.431215607803901833e+02 1.296563490863412275e-05
2.440220110055027476e+02 1.266208321252011799e-05
2.449224612306152835e+02 1.231864574592890326e-05
2.458229114557278479e+02 1.200484586689786929e-05
2.467233616808404122e+02 1.180917025971249548e-05
2.476238119059529765e+02 1.178839392205551226e-05
2.485242621310655124e+02 1.192004927735686106e-05
2.494247123561780768e+02 1.211436955257781548e-05
2.503251625812906411e+02 1.231711180009574756e-05
2.512256128064031770e+02 1.251554158663369218e-05
2.521260630315157414e+02 1.262341400978259536e-05
2.530265132566283057e+02 1.255076158985202501e-05
2.539269634817408701e+02 1.237115242778529921e-05
2.548274137068534060e+02 1.223863630841113202e-05
2.557278639319659703e+02 1.223343196696142365e-05
2.566283141570785347e+02 1.239741044929358520e-05
2.575287643821910706e+02 1.272988269282275972e-05
2.584292146073036633e+02 1.312999344962715921e-05
2.593296648324161993e+02 1.349721286933635098e-05
2.602301150575287352e+02 1.382582350877485301e-05
2.611305652826413279e+02 1.414079152646279187e-05
2.620310155077538639e+02 1.443679657089538291e-05
2.629314657328663998e+02 1.464616184045828645e-05
2.638319159579789925e+02 1.470918371296467727e-05
2.647323661830915285e+02 1.463268536807033589e-05
2.656328164082040644e+02 1.450781406348450466e-05
2.665332666333166571e+02 1.447884172102098039e-05
2.674337168584291931e+02 1.461885858088175961e-05
2.683341670835417858e+02 1.485681705424018300e-05
2.692346173086543217e+02 1.503615016791621637e-05
2.701350675337668577e+02 1.503559673661723852e-05
2.710355177588794504e+02 1.489929903892291939e-05
2.719359679839919863e+02 1.480036017641568243e-05
2.728364182091045222e+02 1.482352719270005494e-05
2.737368684342171150e+02 1.496497478547692379e-05
2.746373186593296509e+02 1.518093688594647172e-05
2.755377688844421868e+02 1.541277533284762834e-05
2.764382191095547796e+02 1.564249803960607063e-05
2.773386693346673155e+02 1.589503409977188799e-05
2.782391195597798514e+02 1.619781376281447883e-05
2.791395697848924442e+02 1.650436543427550136e-05
2.800400200100049801e+02 1.667453469098969238e-05
2.809404702351175729e+02 1.662075768496779654e-05
2.818409204602301088e+02 1.642498091628489200e-05
2.827413706853426447e+02 1.622048289328149409e-05
2.836418209104552375e+02 1.609495098107240524e-05
2.845422711355677734e+02 1.609407615852023060e-05
2.854427213606803093e+02 1.620290506292380490e-05
2.863431715857929021e+02 1.636442002100340175e-05
2.872436218109054380e+02 1.654289344924891238e-05
2.881440720360179739e+02 1.669881808247194161e-05
2.890445222611305667e+02 1.678946248683952020e-05
2.899449724862431026e+02 1.683047291682370614e-05
2.908454227113556385e+02 1.692036511906223661e-05
2.917458729364682313e+02 1.710662118015641395e-05
2.926463231615807672e+02 1.728663556710423901e-05
2.935467733866933600e+02 1.738242835175070057e-05
2.944472236118058959e+02 1.748293863819138256e-05
2.953476738369184318e+02 1.768530393728866808e-05
2.962481240620310246e+02 1.795599952951792337e-05
2.971485742871435605e+02 1.824120953123718267e-05
2.980490245122560964e+02 1.857442681674794562e-05
2.989494747373686891e+02 1.901251184401172109e-05
2.998499249624812251e+02 1.953581208621435038e-05
3.007503751875937610e+02 2.005865998367687431e-05
3.016508254127063537e+02 2.054943822293778838e-05
3.025512756378188897e+02 2.099287588937713919e-05
3.034517258629314256e+02 2.129246854379721448e-05
3.043521760880440183e+02 2.137329600579164864e-05
3.052526263131565543e+02 2.126049495798525539e-05
3.061530765382691470e+02 2.103539356628239228e-05
3.070535267633816829e+02 2.078704943946837075e-05
3.079539769884942189e+02 2.058279304765321950e-05
3.088544272136068116e+02 2.044472114702170591e-05
3.097548774387193475e+02 2.033682014236982247e-05
3.106553276638318835e+02 2.025118801330583459e-05
3.115557778889444762e+02 2.032066275790174323e-05
3.124562281140570121e+02 2.067158602008749353e-05
3.133566783391695481e+02 2.120216599777603576e-05
3.142571285642821408e+02 2.165844174910217733e-05
3.151575787893946767e+02 2.188926480480358314e-05
3.160580290145072127e+02 2.193314017791600564e-05
3.169584792396198054e+02 2.189321581333882711e-05
3.178589294647323413e+02 2.190637809278682559e-05
3.187593796898449341e+02 2.214737128984231948e-05
3.196598299149574700e+02 2.270328595484915100e-05
3.205602801400700059e+02 2.345371958606790760e-05
3.214607303651825987e+02 2.416722550568410713e-05
3.223611805902951346e+02 2.468071620940709304e-05
3.232616308154076705e+02 2.495693144707260185e-05
3.241620810405202633e+02 2.513800478574445516e-05
3.250625312656327992e+02 2.546871749796027028e-05
3.259629814907453351e+02 2.601379358426621259e-05
3.268634317158579279e+02 2.656897463427889593e-05
3.277638819409704638e+02 2.686150360635048526e-05
3.286643321660829997e+02 2.677860992191184836e-05
3.295647823911955925e+02 2.639929056355093097e-05
3.304652326163081284e+02 2.592575067095206505e-05
3.313656828414207212e+02 2.556790277656947077e-05
3.322661330665332571e+02 2.535246881329649985e-05
3.331665832916457930e+02 2.514810115277714403e-05
3.340670335167583858e+02 2.492853449913890425e-05
3.349674837418709217e+02 2.481603893658764507e-05
3.358679339669834576e+02 2.488620292061324366e-05
3.367683841920960504e+02 2.503942462978449884e-05
3.376688344172085863e+02 2.518072579985022991e-05
3.385692846423211222e+02 2.540421467943226061e-05
3.394697348674337150e+02 2.578260235297032994e-05
3.403701850925462509e+02 2.622659093354876364e-05
3.412706353176587868e+02 2.657642260037482057e-05
3.421710855427713796e+02 2.669140878824329249e-05
3.430715357678839155e+02 2.664006887717740489e-05
3.439719859929965082e+02 2.665486238549019722e-05
3.448724362181090441e+02 2.686032164624378889e-05
3.457728864432215801e+02 2.723173241926255190e-05
3.466733366683341728e+02 2.768691751658772948e-05
3.475737868934467087e+02 2.810299748694486578e-05
3.484742371185592447e+02 2.824268031137766157e-05
3.493746873436718374e+02 2.793950245851674021e-05
3.502751375687843733e+02 2.740599209992711238e-05
3.511755877938969093e+02 2.705664903418491667e-05
3.520760380190095020e+02 2.711226383876942940e-05
3.529764882441220379e+02 2.743530850626445711e-05
3.538769384692345739e+02 2.772355282988724401e-05
3.547773886943471666e+02 2.781606065895066379e-05
3.556778389194597025e+02 2.782665341498487030e-05
3.565782891445722953e+02 2.794572946055847983e-05
3.574787393696848312e+02 2.825884305673053868e-05
3.583791895947973671e+02 2.880849629103047091e-05
3.592796398199099599e+02 2.955801453830783778e-05
3.601800900450224958e+02 3.029414434071014533e-05
3.610805402701350317e+02 3.078187296958062466e-05
3.619809904952476245e+02 3.092426509619126610e-05
3.628814407203601604e+02 3.082945133205161251e-05
3.637818909454726963e+02 3.066823681346367362e-05
3.646823411705852891e+02 3.042639325720953157e-05
3.655827913956978250e+02 2.999568526402657706e-05
3.664832416208103609e+02 2.940423151366547557e-05
3.673836918459229537e+02 2.872698280925401268e-05
3.682841420710354896e+02 2.803114893685594762e-05
3.691845922961480824e+02 2.735007808797602750e-05
3.700850425212606183e+02 2.665202878874327542e-05
3.709854927463731542e+02 2.597361929854036396e-05
3.718859429714857470e+02 2.545359380640495491e-05
3.727863931965982829e+02 2.513730195901890227e-05
3.736868434217108188e+02 2.489710562088613081e-05
3.745872936468234116e+02 2.462444544242964599e-05
3.754877438719359475e+02 2.434769742029525049e-05
3.763881940970484834e+02 2.419124951838258868e-05
3.772886443221610762e+02 2.423582508525003857e-05
3.781890945472736121e+02 2.438871096323996869e-05
3.790895447723861480e+02 2.446847379357033241e-05
3.799899949974987408e+02 2.438311646707757983e-05
3.808904452226112767e+02 2.417813058148861655e-05
3.817908954477238694e+02 2.398998593374083489e-05
3.826913456728364054e+02 2.391920722833141435e-05
3.835917958979489413e+02 2.391955753969706735e-05
3.844922461230615340e+02 2.388737916904481177e-05
3.853926963481740700e+02 2.383150064989095896e-05
3.862931465732866059e+02 2.379595212387325176e-05
3.871935967983991986e+02 2.376471903833552024e-05
3.880940470235117346e+02 2.370716587978747742e-05
3.889944972486242705e+02 2.358941017224253930e-05
3.898949474737368632e+02 2.341412529788587679e-05
3.907953976988493991e+02 2.328590820524530086e-05
3.916958479239619351e+02 2.332143276272868388e-05
3.925962981490745278e+02 2.348211425043027648e-05
3.934967483741870637e+02 2.360147669133588958e-05
3.943971985992996565e+02 2.363235648408217596e-05
3.952976488244121924e+02 2.362039622097907552e-05
3.961980990495247283e+02 2.353287513993738950e-05
3.970985492746373211e+02 2.332914755488233420e-05
3.979989994997498570e+02 2.303699285343624998e-05
3.988994497248623929e+02 2.270238622062854513e-05
3.997998999499749857e+02 2.240821128714593445e-05
4.007003501750875216e+02 2.224627621445066498e-05
4.016008004002000575e+02 2.220114925554369815e-05
4.025012506253126503e+02 2.219491899434199121e-05
4.034017008504251862e+02 2.219540665490873837e-05
4.043021510755377221e+02 2.219998118272607980e-05
4.052026013006503149e+02 2.224442627013896402e-05
4.061030515257628508e+02 2.239664084348315525e-05
4.070035017508754436e+02 2.265894379749129644e-05
4.079039519759879795e+02 2.295682715771173499e-05
4.088044022011005154e+02 2.321136692894696559e-05
4.097048524262131082e+02 2.333356394899857537e-05
4.106053026513256441e+02 2.318685857028970744e-05
4.115057528764381800e+02 2.273342762143749763e-05
4.124062031015507728e+02 2.212315476499613533e-05
4.133066533266633087e+02 2.154100621972853123e-05
4.142071035517758446e+02 2.108251057411824134e-05
4.151075537768884374e+02 2.080959113327406144e-05
4.160080040020009733e+02 2.073739267791975018e-05
4.169084542271135092e+02 2.080329354880753267e-05
4.178089044522261020e+02 2.093498885267757394e-05
4.187093546773386379e+02 2.103342723614704766e-05
4.196098049024512306e+02 2.101458873834621366e-05
4.205102551275637666e+02 2.090760112624242295e-05
4.214107053526763025e+02 2.073199977816941392e-05
4.223111555777888952e+02 2.049621623998624926e-05
4.232116058029014312e+02 2.026259079624071220e-05
4.241120560280139671e+02 2.011012317063830957e-05
4.250125062531265598e+02 2.006398368729316181e-05
4.259129564782390958e+02 2.004089717408564516e-05
4.268134067033516317e+02 1.997109469883438180e-05
4.277138569284642244e+02 1.990048512447484510e-05
4.286143071535767604e+02 1.991825089394553018e-05
4.295147573786892963e+02 2.008197688368757589e-05
4.304152076038018890e+02 2.040975245269997503e-05
4.313156578289144250e+02 2.083880063533766983e-05
4.322161080540270177e+02 2.115205503424539692e-05
4.331165582791395536e+02 2.113935732199565681e-05
4.340170085042520896e+02 2.086910575559213239e-05
4.349174587293646823e+02 2.057080829754486789e-05
4.358179089544772182e+02 2.037880992162113044e-05
4.367183591795897541e+02 2.027592273993965148e-05
4.376188094047023469e+02 2.021324259956758907e-05
4.385192596298148828e+02 2.022053442554328146e-05
4.394197098549274187e+02 2.034787939049645408e-05
4.403201600800400115e+02 2.056056289699019528e-05
4.412206103051525474e+02 2.076198110227859493e-05
4.421210605302650833e+02 2.087934613591209217e-05
4.430215107553776761e+02 2.094627742734139330e-05
4.439219609804902120e+02 2.111611232326598620e-05
4.448224112056028048e+02 2.150915572963001427e-05
4.457228614307153407e+02 2.210534653948287260e-05
4.466233116558278766e+02 2.278508513241420295e-05
4.475237618809404694e+02 2.339068250290037124e-05
4.484242121060530053e+02 2.379085038522732443e-05
4.493246623311655412e+02 2.399204489473783305e-05
4.502251125562781340e+02 2.416128883075114347e-05
4.511255627813906699e+02 2.441756691889466867e-05
4.520260130065032058e+02 2.467565375826384663e-05
4.529264632316157986e+02 2.477064161956590689e-05
4.538269134567283345e+02 2.466933953680631832e-05
4.547273636818408704e+02 2.450098045655873423e-05
4.556278139069534632e+02 2.433435554532706430e-05
4.565282641320659991e+02 2.408184750783076572e-05
4.574287143571785919e+02 2.369902528184797329e-05
4.583291645822911278e+02 2.324798595415827540e-05
4.592296148074036637e+02 2.277372760092101145e-05
4.601300650325162565e+02 2.231005945638673529e-05
4.610305152576287924e+02 2.194172341548848501e-05
4.619309654827413283e+02 2.171069519992975205e-05
4.628314157078539210e+02 2.157428838048279358e-05
4.637318659329664570e+02 2.149447141642186419e-05
4.646323161580789929e+02 2.148403584929643482e-05
4.655327663831915856e+02 2.160206834211173208e-05
4.664332166083041216e+02 2.189950841931999917e-05
4.673336668334167143e+02 2.239725443739061988e-05
4.682341170585292502e+02 2.305108905806762558e-05
4.691345672836417862e+02 2.371724067576972929e-05
4.700350175087543789e+02 2.429038838574960646e-05
4.709354677338669148e+02 2.477154688337966372e-05
4.718359179589794508e+02 2.513888080569938211e-05
4.727363681840920435e+02 2.533184708963828708e-05
4.736368184092045794e+02 2.540537019989124457e-05
4.745372686343171154e+02 2.546450730868029931e-05
4.754377188594297081e+02 2.548766676666804713e-05
4.763381690845422440e+02 2.540230460156034273e-05
4.772386193096547800e+02 2.520764609759680808e-05
4.781390695347673727e+02 2.494408198821702091e-05
4.790395197598799086e+02 2.470888268607742639e-05
4.799399699849925014e+02 2.462571119136352707e-05
4.808404202101050373e+02 2.471653273676618849e-05
4.817408704352175732e+02 2.493234153052381345e-05
4.826413206603301660e+02 2.522138666447378656e-05
4.835417708854427019e+02 2.550279347210982888e-05
4.844422211105552378e+02 2.567492595280975983e-05
4.853426713356678306e+02 2.566721049729707980e-05
4.862431215607803665e+02 2.547563599917152620e-05
4.871435717858929024e+02 2.518157562436021103e-05
4.880440220110054952e+02 2.492878978000368699e-05
4.889444722361180311e+02 2.482665212583283552e-05
4.898449224612305670e+02 2.486597333156787413e-05
4.907453726863431598e+02 2.504074117218355424e-05
4.916458229114556957e+02 2.543395535771922634e-05
4.925462731365682885e+02 2.608212402637834191e-05
4.934467233616808244e+02 2.682393731950664546e-05
4.943471735867933603e+02 2.745296959079581583e-05
4.952476238119059531e+02 2.793073965547960408e-05
4.961480740370184890e+02 2.830330999138725844e-05
4.970485242621310249e+02 2.851695426514039687e-05
4.979489744872436177e+02 2.846746258954622815e-05
4.988494247123561536e+02 2.816355452672445332e-05
4.997498749374686895e+02 2.774405260895515001e-05
5.006503251625812823e+02 2.733036461965972238e-05
5.015507753876938182e+02 2.698136433751723923e-05
5.024512256128063541e+02 2.678917402464141813e-05
5.033516758379189469e+02 2.681000815772449164e-05
5.042521260630314828e+02 2.702102932518993497e-05
5.051525762881440755e+02 2.737135501307022705e-05
5.060530265132566115e+02 2.777330807979734673e-05
5.069534767383691474e+02 2.810476517669992591e-05
5.078539269634817401e+02 2.824132796480552360e-05
5.087543771885942760e+02 2.821868946295005314e-05
5.096548274137068120e+02 2.826092395442151767e-05
5.105552776388194047e+02 2.850554414559686305e-05
5.114557278639319406e+02 2.888918001994441711e-05
5.123561780890445334e+02 2.924477264854278191e-05
5.132566283141570693e+02 2.944416587775937845e-05
5.141570785392696052e+02 2.949742396903650275e-05
5.150575287643821412e+02 2.948523267071208992e-05
5.159579789894946771e+02 2.949528351675894346e-05
5.168584292146073267e+02 2.958789628294710135e-05
5.177588794397198626e+02 2.977775096588280448e-05
5.186593296648323985e+02 3.007044787298243638e-05
5.195597798899449344e+02 3.044588774414016931e-05
5.204602301150574704e+02 3.079023580683270714e-05
5.213606803401700063e+02 3.105594804502621815e-05
5.222611305652826559e+02 3.135871257040149509e-05
5.231615807903951918e+02 3.177693656827620250e-05
5.240620310155077277e+02 3.226589483620252897e-05
5.249624812406202636e+02 3.276855838044033704e-05
5.258629314657327996e+02 3.326162966872013110e-05
5.267633816908454492e+02 3.377259878863827602e-05
5.276638319159579851e+02 3.431273902059282208e-05
5.285642821410705210e+02 3.483021569933179905e-05
5.294647323661830569e+02 3.525883950173610583e-05
5.303651825912955928e+02 3.553359427009971646e-05
5.312656328164081287e+02 3.568756519639894559e-05
5.321660830415207784e+02 3.586497957849834158e-05
5.330665332666333143e+02 3.618431001152245261e-05
5.339669834917458502e+02 3.665928335853603276e-05
5.348674337168583861e+02 3.719693931306249259e-05
5.357678839419709220e+02 3.769200968904756939e-05
5.366683341670835716e+02 3.813367990222718589e-05
5.375687843921961075e+02 3.853980517058855978e-05
5.384692346173086435e+02 3.885299988202065225e-05
5.393696848424211794e+02 3.899956525924790746e-05
5.402701350675337153e+02 3.906739613442820170e-05
5.411705852926462512e+02 3.922847716912429301e-05
5.420710355177589008e+02 3.953244469754576889e-05
5.429714857428714367e+02 3.991727177088712355e-05
5.438719359679839727e+02 4.034767812066125258e-05
5.447723861930965086e+02 4.080980007632176496e-05
5.456728364182090445e+02 4.125628387823549316e-05
5.465732866433215804e+02 4.170485588663755633e-05
5.474737368684342300e+02 4.222224438789206772e-05
5.483741870935467659e+02 4.276586261802689634e-05
5.492746373186593019e+02 4.325655065246837312e-05
5.501750875437718378e+02 4.368561123381431481e-05
5.510755377688843737e+02 4.400278392885228291e-05
5.519759879939970233e+02 4.415179865386647466e-05
5.528764382191095592e+02 4.423556397028142415e-05
5.537768884442220951e+02 4.437858799234877454e-05
5.546773386693346310e+02 4.453900110537972577e-05
5.555777888944471670e+02 4.459277810004028060e-05
5.564782391195597029e+02 4.447850313183446372e-05
5.573786893446723525e+02 4.421260371682645210e-05
5.582791395697848884e+02 4.386057911218605869e-05
5.591795897948974243e+02 4.347227407610417834e-05
5.600800400200099602e+02 4.307700361120406283e-05
5.609804902451224962e+02 4.273023306984278933e-05
5.618809404702351458e+02 4.243248130576948723e-05
5.627813906953476817e+02 4.213351521879718232e-05
5.636818409204602176e+02 4.186162083761998584e-05
5.645822911455727535e+02 4.164407196460741950e-05
5.654827413706852894e+02 4.135850106487525284e-05
5.663831915957978254e+02 4.096023802820860125e-05
5.672836418209104750e+02 4.063656854552957304e-05
5.681840920460230109e+02 4.048510897815300874e-05
5.690845422711355468e+02 4.038723939213161783e-05
5.699849924962480827e+02 4.025469357332991049e-05
5.708854427213606186e+02 4.016270827001896821e-05
5.717858929464731546e+02 4.020419193511073225e-05
5.726863431715858042e+02 4.039957995452810404e-05
5.735867933966983401e+02 4.069988979092120526e-05
5.744872436218108760e+02 4.097072508063322584e-05
5.753876938469234119e+02 4.111678601084806019e-05
5.762881440720359478e+02 4.115085011808724424e-05
5.771885942971485974e+02 4.108628467330280640e-05
5.780890445222611334e+02 4.094012910415462429e-05
5.789894947473736693e+02 4.075169278294890401e-05
5.798899449724862052e+02 4.048492556012380368e-05
5.807903951975987411e+02 4.009672006518897686e-05
5.816908454227112770e+02 3.972240628624180877e-05
5.825912956478239266e+02 3.943389409526774605e-05
5.834917458729364625e+02 3.899284677398554715e-05
5.843921960980489985e+02 3.821859727506543060e-05
5.852926463231615344e+02 3.733080512836770638e-05
5.861930965482740703e+02 3.671242305125462158e-05
5.870935467733867199e+02 3.650743133083242121e-05
5.879939969984992558e+02 3.653230194814765977e-05
5.888944472236117917e+02 3.650086228186204880e-05
5.897948974487243277e+02 3.629833586386916380e-05
5.906953476738368636e+02 3.603312997626551445e-05
5.915957978989493995e+02 3.580267214554390816e-05
5.924962481240620491e+02 3.563058705185157091e-05
5.933966983491745850e+02 3.553958442002300882e-05
5.942971485742871209e+02 3.549198552646352716e-05
5.951975987993996569e+02 3.540016776131103447e-05
5.960980490245121928e+02 3.519140553805944166e-05
5.969984992496247287e+02 3.486100513925790602e-05
5.978989494747373783e+02 3.452577584608536705e-05
5.987993996998499142e+02 3.431738526381513695e-05
5.996998499249624501e+02 3.422301064226993016e-05
6.006003001500749860e+02 3.415544163151860090e-05
6.015007503751875220e+02 3.414754882843861833e-05
6.024012006003001716e+02 3.425503124772442259e-05
6.033016508254127075e+02 3.442456766140859618e-05
6.042021010505252434e+02 3.454592093350330052e-05
6.051025512756377793e+02 3.447675659873457776e-05
6.060030015007503152e+02 3.413645914975868654e-05
6.069034517258628512e+02 3.364777613867267079e-05
6.078039019509755008e+02 3.323164222646479926e-05
6.087043521760880367e+02 3.288404961726672183e-05
6.096048024012005726e+02 3.240027551952571382e-05
6.105052526263131085e+02 3.169962954808129118e-05
6.114057028514256444e+02 3.084088731038761637e-05
6.123061530765382940e+02 2.991498792217405162e-05
6.132066033016508300e+02 2.904735911850709582e-05
6.141070535267633659e+02 2.834382348286244201e-05
6.150075037518759018e+02 2.792049019044168443e-05
6.159079539769884377e+02 2.784152153932389402e-05
6.168084042021009736e+02 2.799713482311099838e-05
6.177088544272136232e+02 2.818865446704186555e-05
6.186093046523261592e+02 2.827341107223253991e-05
6.195097548774386951e+02 2.825819727297307249e-05
6.204102051025512310e+02 2.827416577433560123e-05
6.213106553276637669e+02 2.839072909327435514e-05
6.222111055527763028e+02 2.860208316273038618e-05
6.231115557778889524e+02 2.891062483173925879e-05
6.240120060030014884e+02 2.926061397322581096e-05
6.249124562281140243e+02 2.949594171402192911e-05
6.258129064532265602e+02 2.953451006572757533e-05
6.267133566783390961e+02 2.944490745012475573e-05
6.276138069034517457e+02 2.932638242949282476e-05
6.285142571285642816e+02 2.918477550979824519e-05
6.294147073536768175e+02 2.896300573991168623e-05
6.303151575787893535e+02 2.865227220233817012e-05
6.312156078039018894e+02 2.834632538455098450e-05
6.321160580290144253e+02 2.819019045870952626e-05
6.330165082541270749e+02 2.824215694797738220e-05
6.339169584792396108e+02 2.842924402371867673e-05
6.348174087043521467e+02 2.858393761762370976e-05
6.357178589294646827e+02 2.852773489694828473e-05
6.366183091545772186e+02 2.818567954473956617e-05
6.375187593796898682e+02 2.762838222809220202e-05
6.384192096048024041e+02 2.704100651640986937e-05
6.393196598299149400e+02 2.660718411398089490e-05
6.402201100550274759e+02 2.639321630225185258e-05
6.411205602801400119e+02 2.634815377604281543e-05
6.420210105052525478e+02 2.640262743790742529e-05
6.429214607303651974e+02 2.654260062364779981e-05
6.438219109554777333e+02 2.676726122695898878e-05
6.447223611805902692e+02 2.703306748145992077e-05
6.456228114057028051e+02 2.727413796693877018e-05
6.465232616308153411e+02 2.738482124742882361e-05
6.474237118559278770e+02 2.728843996467049014e-05
6.483241620810405266e+02 2.704910941807186058e-05
6.492246123061530625e+02 2.679634365794918667e-05
6.501250625312655984e+02 2.657628006833595878e-05
6.510255127563781343e+02 2.636173830321146525e-05
6.519259629814906702e+02 2.614793368876916542e-05
6.528264132066033198e+02 2.594969010466421149e-05
6.537268634317158558e+02 2.577084679823205861e-05
6.546273136568283917e+02 2.564777660868482122e-05
6.555277638819409276e+02 2.567176994746953909e-05
6.564282141070534635e+02 2.587293295124331769e-05
6.573286643321659994e+02 2.614605647896413456e-05
6.582291145572786490e+02 2.635578412326792440e-05
6.591295647823911850e+02 2.641304276604257835e-05
6.600300150075037209e+02 2.631339463199346888e-05
6.609304652326162568e+02 2.615806878336084901e-05
6.618309154577287927e+02 2.605019473548298423e-05
6.627313656828414423e+02 2.598685307222012796e-05
6.636318159079539782e+02 2.589385121299269806e-05
6.645322661330665142e+02 2.574858503881086166e-05
6.654327163581790501e+02 2.561510493093555770e-05
6.663331665832915860e+02 2.553807963954290053e-05
6.672336168084041219e+02 2.553252119342776014e-05
6.681340670335167715e+02 2.565223031403178350e-05
6.690345172586293074e+02 2.592254783106009441e-05
6.699349674837418434e+02 2.628120334863628428e-05
6.708354177088543793e+02 2.666307189496850980e-05
6.717358679339669152e+02 2.708322261481287997e-05
6.726363181590794511e+02 2.758230168522807319e-05
6.735367683841921007e+02 2.811640905564541135e-05
6.744372186093046366e+02 2.858448403411293742e-05
6.753376688344171725e+02 2.891771423548708989e-05
6.762381190595297085e+02 2.911460457765712549e-05
6.771385692846422444e+02 2.927230783131785357e-05
6.780390195097548940e+02 2.950454028738424663e-05
6.789394697348674299e+02 2.974775216750331528e-05
6.798399199599799658e+02 2.980257799076123010e-05
6.807403701850925017e+02 2.958804502498689433e-05
6.816408204102050377e+02 2.927842832572990191e-05
6.825412706353175736e+02 2.911313599358877303e-05
6.834417208604302232e+02 2.909835992712599440e-05
6.843421710855427591e+02 2.908142680696982390e-05
6.852426213106552950e+02 2.897812850647910499e-05
6.861430715357678309e+02 2.880187403648783311e-05
6.870435217608803669e+02 2.855596029420113223e-05
6.879439719859930165e+02 2.819380145766681297e-05
6.888444222111055524e+02 2.778480292700586534e-05
6.897448724362180883e+02 2.749654885419375503e-05
6.906453226613306242e+02 2.738910154788801648e-05
6.915457728864431601e+02 2.739942767955871555e-05
6.924462231115556961e+02 2.742527097997628731e-05
6.933466733366683457e+02 2.742104419140025824e-05
6.942471235617808816e+02 2.743834163191702103e-05
6.951475737868934175e+02 2.749357182497414712e-05
6.960480240120059534e+02 2.756533811338201677e-05
6.969484742371184893e+02 2.764223335390712102e-05
6.978489244622311389e+02 2.771706722845850343e-05
6.987493746873436749e+02 2.782768118878505250e-05
6.996498249124562108e+02 2.802035073112527400e-05
7.005502751375687467e+02 2.830364465110468038e-05
7.014507253626812826e+02 2.866472603749398588e-05
7.023511755877938185e+02 2.908168806556475495e-05
7.032516258129064681e+02 2.952991663596120394e-05
7.041520760380190040e+02 2.996616720808862333e-05
7.050525262631315400e+02 3.036092981531573277e-05
7.059529764882440759e+02 3.069226654233173454e-05
7.068534267133566118e+02 3.088135967069634079e-05
7.077538769384691477e+02 3.081947479626718036e-05
7.086543271635817973e+02 3.053629244562046157e-05
7.095547773886943332e+02 3.019531821446007672e-05
7.104552276138068692e+02 2.992647552355899340e-05
7.113556778389194051e+02 2.971461743991052687e-05
7.122561280640319410e+02 2.950632691771489920e-05
7.131565782891445906e+02 2.931659635013709686e-05
7.140570285142571265e+02 2.922384363370170648e-05
7.149574787393696624e+02 2.928942566704122714e-05
7.158579289644821984e+02 2.944198963145892213e-05
7.167583791895947343e+02 2.951921883809898188e-05
7.176588294147072702e+02 2.939294328042325275e-05
7.185592796398199198e+02 2.907899698005895288e-05
7.194597298649324557e+02 2.872317492110751865e-05
7.203601800900449916e+02 2.846419517545243345e-05
7.212606303151575275e+02 2.834649221900003836e-05
7.221610805402700635e+02 2.833171944592722776e-05
7.230615307653827131e+02 2.839676857648222951e-05
7.239619809904952490e+02 2.861559113125457512e-05
7.248624312156077849e+02 2.908765745723047039e-05
7.257628814407203208e+02 2.978364786117011941e-05
7.266633316658328567e+02 3.056141383128751691e-05
7.275637818909453927e+02 3.126985986638428035e-05
7.284642321160580423e+02 3.180479991683439277e-05
7.293646823411705782e+02 3.216661062264050116e-05
7.302651325662831141e+02 3.241057685998392383e-05
7.311655827913956500e+02 3.257942166490132688e-05
7.320660330165081859e+02 3.275687026145623074e-05
7.329664832416207219e+02 3.299234516694001153e-05
7.338669334667333715e+02 3.316980376831433027e-05
7.347673836918459074e+02 3.311934215638561417e-05
7.356678339169584433e+02 3.286971443385831870e-05
7.365682841420709792e+02 3.260925741615869350e-05
7.374687343671835151e+02 3.250434771745079940e-05
7.383691845922961647e+02 3.260797759275573063e-05
7.392696348174087007e+02 3.282783430553471538e-05
7.401700850425212366e+02 3.301926499101353105e-05
7.410705352676337725e+02 3.314749723034741751e-05
7.419709854927463084e+02 3.324346461468117377e-05
7.428714357178588443e+02 3.326232563016518753e-05
7.437718859429714939e+02 3.312487375794876228e-05
7.446723361680840299e+02 3.290115423535194334e-05
7.455727863931965658e+02 3.280873413054772935e-05
7.464732366183091017e+02 3.299903720941797444e-05
7.473736868434216376e+02 3.341861545678860530e-05
7.482741370685342872e+02 3.380305639302660242e-05
7.491745872936468231e+02 3.382804614886926719e-05
7.500750375187593590e+02 3.339828594639398520e-05
7.509754877438718950e+02 3.262121028427781574e-05
7.518759379689844309e+02 3.163618787531729322e-05
7.527763881940969668e+02 3.064427956774430048e-05
7.536768384192096164e+02 2.986632338485725488e-05
7.545772886443221523e+02 2.941685585324942684e-05
7.554777388694346882e+02 2.926591328406815475e-05
7.563781890945472242e+02 2.926748833178222038e-05
7.572786393196597601e+02 2.935661975610660794e-05
7.581790895447722960e+02 2.955201982363940796e-05
7.590795397698849456e+02 2.971518142405070177e-05
7.599799899949974815e+02 2.970417678854505829e-05
7.608804402201100174e+02 2.965659141484435244e-05
7.617808904452225534e+02 2.980879113511548752e-05
7.626813406703350893e+02 3.022746163932924185e-05
7.635817908954477389e+02 3.074556392642634623e-05
7.644822411205602748e+02 3.117228502957374741e-05
7.653826913456728107e+02 3.146370219764309050e-05
7.662831415707853466e+02 3.168572149393212298e-05
7.671835917958978825e+02 3.189116664717958659e-05
7.680840420210104185e+02 3.208314821079123264e-05
7.689844922461230681e+02 3.229581981898314830e-05
7.698849424712356040e+02 3.261661981835829418e-05
7.707853926963481399e+02 3.310917656514704254e-05
7.716858429214606758e+02 3.363161656567140645e-05
7.725862931465732117e+02 3.393898980639151164e-05
7.734867433716858613e+02 3.403982169456198507e-05
7.743871935967983973e+02 3.408909880636049847e-05
7.752876438219109332e+02 3.410447530540774795e-05
7.761880940470234691e+02 3.402065283725004172e-05
7.770885442721360050e+02 3.381395575463399438e-05
7.779889944972485409e+02 3.352864324531262753e-05
7.788894447223611905e+02 3.323879317771932860e-05
7.797898949474737265e+02 3.301772859473537877e-05
7.806903451725862624e+02 3.291535668313681496e-05
7.815907953976987983e+02 3.289243572992702321e-05
7.824912456228113342e+02 3.287300972305736275e-05
7.833916958479238701e+02 3.288050040945712061e-05
7.842921460730365197e+02 3.295739440949422351e-05
7.851925962981490557e+02 3.302716741057036537e-05
7.860930465232615916e+02 3.298788021762018763e-05
7.869934967483741275e+02 3.284679384057271457e-05
7.878939469734866634e+02 3.263936262939655316e-05
7.887943971985993130e+02 3.238655796571419102e-05
7.896948474237118489e+02 3.225496807984481654e-05
7.905952976488243849e+02 3.241760632723877440e-05
7.914957478739369208e+02 3.279589756854867425e-05
7.923961980990494567e+02 3.312331246364309551e-05
7.932966483241619926e+02 3.320868894981985318e-05
7.941970985492746422e+02 3.308088630703776657e-05
7.950975487743871781e+02 3.286367926458000187e-05
7.959979989994997140e+02 3.264087111401925596e-05
7.968984492246122500e+02 3.247805904002697337e-05
7.977988994497247859e+02 3.237128827777055701e-05
7.986993496748374355e+02 3.227418995260232943e-05
7.995997998999499714e+02 3.222630655159086714e-05
8.005002501250625073e+02 3.227195511407478787e-05
8.014007003501750432e+02 3.241300775559075530e-05
8.023011505752875792e+02 3.261424126638954007e-05
8.032016008004001151e+02 3.275922038216066366e-05
8.041020510255127647e+02 3.277790192945885441e-05
8.050025012506253006e+02 3.271281660503047074e-05
8.059029514757378365e+02 3.262383840874823892e-05
8.068034017008503724e+02 3.258291022698550741e-05
8.077038519259629084e+02 3.267504554408022055e-05
8.086043021510754443e+02 3.294706827590339901e-05
8.095047523761880939e+02 3.329445204127045368e-05
8.104052026013006298e+02 3.354368352736201726e-05
8.113056528264131657e+02 3.372638636885605303e-05
8.122061030515257016e+02 3.400938702390116010e-05
8.131065532766382375e+02 3.437470396798319034e-05
8.140070035017508872e+02 3.465111579677957214e-05
8.149074537268634231e+02 3.472819110946034595e-05
8.158079039519759590e+02 3.463118611120520374e-05
8.167083541770884949e+02 3.442880064692885865e-05
8.176088044022010308e+02 3.419190201595393927e-05
8.185092546273135667e+02 3.402325193098708805e-05
8.194097048524262163e+02 3.395336611529863930e-05
8.203101550775387523e+02 3.389701788795623690e-05
8.212106053026512882e+02 3.376476348418597196e-05
8.221110555277638241e+02 3.356233053715333394e-05
8.230115057528763600e+02 3.333610778328437353e-05
8.239119559779890096e+02 3.311585191264471411e-05
8.248124062031015455e+02 3.289255259867566989e-05
8.257128564282140815e+02 3.259215673920273494e-05
8.266133066533266174e+02 3.219098366810457324e-05
8.275137568784391533e+02 3.169801135447447641e-05
8.284142071035516892e+02 3.109430924588342163e-05
8.293146573286643388e+02 3.048109752808504273e-05
8.302151075537768747e+02 3.010371504781658077e-05
8.311155577788894107e+02 3.014065285868082898e-05
8.320160080040019466e+02 3.054892321070490504e-05
8.329164582291144825e+02 3.106289653767891636e-05
8.338169084542270184e+02 3.137336432665402945e-05
8.347173586793396680e+02 3.137246327306624134e-05
8.356178089044522039e+02 3.118406712839265940e-05
8.365182591295647399e+02 3.103748808199523830e-05
8.374187093546772758e+02 3.111259882798082365e-05
8.383191595797898117e+02 3.143326621829239438e-05
8.392196098049024613e+02 3.192933473225150484e-05
8.401200600300149972e+02 3.253953142376277781e-05
8.410205102551275331e+02 3.315529470483599808e-05
8.419209604802400690e+02 3.356162322493833739e-05
8.428214107053526050e+02 3.368578919964074458e-05
8.437218609304651409e+02 3.363579014938356410e-05
8.446223111555777905e+02 3.348665673111368853e-05
8.455227613806903264e+02 3.334480858772468791e-05
8.464232116058028623e+02 3.334221782703952790e-05
8.473236618309153982e+02 3.351242364108716312e-05
8.482241120560279342e+02 3.381055739213707442e-05
8.491245622811405838e+02 3.416732994018842459e-05
8.500250125062531197e+02 3.453194352799161609e-05
8.509254627313656556e+02 3.484840922574890487e-05
8.518259129564781915e+02 3.503440026147678504e-05
8.527263631815907274e+02 3.501141278341666759e-05
8.536268134067032634e+02 3.478103385515938286e-05
8.545272636318159130e+02 3.446772418249586514e-05
8.554277138569284489e+02 3.429055567315903509e-05
8.563281640820409848e+02 3.439565602147885785e-05
8.572286143071535207e+02 3.476271547103721690e-05
8.581290645322660566e+02 3.518526596719787362e-05
8.590295147573785925e+02 3.539176769796132706e-05
8.599299649824912422e+02 3.535188113015766864e-05
8.608304152076037781e+02 3.522147980807222760e-05
8.617308654327163140e+02 3.502490341274751924e-05
8.626313156578288499e+02 3.464446293946282855e-05
8.635317658829413858e+02 3.403927968736399128e-05
8.644322161080540354e+02 3.339190853145651447e-05
8.653326663331665713e+02 3.295954537573755910e-05
8.662331165582791073e+02 3.286167233355840423e-05
8.671335667833916432e+02 3.301197930876094216e-05
8.680340170085041791e+02 3.317634340109644708e-05
8.689344672336167150e+02 3.323644310586672132e-05
8.698349174587293646e+02 3.330801708729386038e-05
8.707353676838419005e+02 3.351054399406008739e-05
8.716358179089544365e+02 3.386760063555665124e-05
8.725362681340669724e+02 3.435193997820309276e-05
8.734367183591795083e+02 3.487284054248600377e-05
8.743371685842921579e+02 3.532095866058542497e-05
8.752376188094046938e+02 3.560683224850199772e-05
8.761380690345172297e+02 3.573808495321392667e-05
8.770385192596297657e+02 3.586110561722866835e-05
8.779389694847423016e+02 3.614767422083619560e-05
8.788394197098548375e+02 3.662655436556850361e-05
8.797398699349674871e+02 3.717218189432410213e-05
8.806403201600800230e+02 3.763869386113732332e-05
8.815407703851925589e+02 3.790226859128196428e-05
8.824412206103050949e+02 3.793545221415579909e-05
8.833416708354176308e+02 3.785273219058928951e-05
8.842421210605301667e+02 3.784023536719005631e-05
8.851425712856428163e+02 3.808486526267019172e-05
8.860430215107553522e+02 3.862767596836625745e-05
8.869434717358678881e+02 3.929406883364075281e-05
8.878439219609804240e+02 3.976373846306676356e-05
8.887443721860929600e+02 3.983114791621884311e-05
8.896448224112056096e+02 3.971360248375567216e-05
8.905452726363181455e+02 3.981771743450033928e-05
8.914457228614306814e+02 4.028506976330028464e-05
8.923461730865432173e+02 4.092005469980594494e-05
8.932466233116557532e+02 4.136855748983192787e-05
8.941470735367682892e+02 4.141915781694536169e-05
8.950475237618809388e+02 4.116145800124410231e-05
8.959479739869934747e+02 4.083257292478958527e-05
8.968484242121060106e+02 4.064853875999587971e-05
8.977488744372185465e+02 4.065326226572629249e-05
8.986493246623310824e+02 4.078376117669683335e-05
8.995497748874437320e+02 4.104442238519259982e-05
9.004502251125562680e+02 4.147226482057518284e-05
9.013506753376688039e+02 4.200087123981471274e-05
9.022511255627813398e+02 4.249220967624041281e-05
9.031515757878938757e+02 4.286498125479314678e-05
9.040520260130064116e+02 4.306285750514835881e-05
9.049524762381190612e+02 4.312887364847098825e-05
9.058529264632315972e+02 4.325761635282557153e-05
9.067533766883441331e+02 4.359573297512026757e-05
9.076538269134566690e+02 4.408844414739923346e-05
9.085542771385692049e+02 4.461412297646962790e-05
9.094547273636817408e+02 4.522787157018988641e-05
9.103551775887943904e+02 4.602523659889406891e-05
9.112556278139069263e+02 4.687577877616731385e-05
9.121560780390194623e+02 4.759229858818361174e-05
9.130565282641319982e+02 4.809288430530932380e-05
9.139569784892445341e+02 4.830230688330811891e-05
9.148574287143571837e+02 4.812321401139074180e-05
9.157578789394697196e+02 4.767989875308125064e-05
9.166583291645822555e+02 4.739514263656513922e-05
9.175587793896947915e+02 4.760643678770371429e-05
9.184592296148073274e+02 4.818667653454041422e-05
9.193596798399198633e+02 4.877119212361602523e-05
9.202601300650325129e+02 4.926574322603361774e-05
9.211605802901450488e+02 4.989014539838244639e-05
9.220610305152575847e+02 5.079532184019882332e-05
9.229614807403701207e+02 5.186405503048574636e-05
9.238619309654826566e+02 5.279220604210572548e-05
9.247623811905953062e+02 5.334420249913946209e-05
9.256628314157078421e+02 5.357142564176503786e-05
9.265632816408203780e+02 5.359163200750424218e-05
9.274637318659329139e+02 5.350194900772024879e-05
9.283641820910454499e+02 5.342809276515438787e-05
9.292646323161579858e+02 5.346974788401247713e-05
9.301650825412706354e+02 5.365917333352915254e-05
9.310655327663831713e+02 5.391248520563816785e-05
9.319659829914957072e+02 5.429282154161436800e-05
9.328664332166082431e+02 5.494426540927208931e-05
9.337668834417207790e+02 5.577805140605709148e-05
9.346673336668334287e+02 5.660045937963547349e-05
9.355677838919459646e+02 5.735272981977761908e-05
9.364682341170585005e+02 5.805139201578316064e-05
9.373686843421710364e+02 5.883450979321750026e-05
9.382691345672835723e+02 5.991181169514859768e-05
9.391695847923961082e+02 6.122018216197177252e-05
9.400700350175087578e+02 6.245266165813670488e-05
9.409704852426212938e+02 6.341989197319483314e-05
9.418709354677338297e+02 6.409410434557025660e-05
9.427713856928463656e+02 6.466089235926954736e-05
9.436718359179589015e+02 6.543861302400633280e-05
9.445722861430714374e+02 6.631751558366477369e-05
9.454727363681840870e+02 6.682825910463590410e-05
9.463731865932966230e+02 6.686634955392495587e-05
9.472736368184091589e+02 6.687277045123950193e-05
9.481740870435216948e+02 6.720243866221502986e-05
9.490745372686342307e+02 6.765959257691722011e-05
9.499749874937468803e+02 6.797497120764418377e-05
9.508754377188594162e+02 6.822559490405317550e-05
9.517758879439719522e+02 6.830798636475352795e-05
9.526763381690844881e+02 6.799131042790758871e-05
9.535767883941970240e+02 6.754375585832852352e-05
9.544772386193095599e+02 6.753459326992318598e-05
9.553776888444222095e+02 6.820345880854313003e-05
9.562781390695347454e+02 6.934308917687700003e-05
9.571785892946472813e+02 7.050474790196110736e-05
9.580790395197598173e+02 7.144161900813727865e-05
9.589794897448723532e+02 7.237665746498437777e-05
9.598799399699850028e+02 7.357543258432956267e-05
9.607803901950975387e+02 7.497357711461398000e-05
9.616808404202100746e+02 7.624428956609887917e-05
9.625812906453226105e+02 7.703128025894701914e-05
9.634817408704351465e+02 7.723323235488692873e-05
9.643821910955476824e+02 7.704085727414335040e-05
9.652826413206603320e+02 7.691966826560524674e-05
9.661830915457728679e+02 7.731096435944478777e-05
9.670835417708854038e+02 7.819153891043785162e-05
9.679839919959979397e+02 7.923501655943560864e-05
9.688844422211104757e+02 8.024929205213220367e-05
9.697848924462230116e+02 8.112929075838534732e-05
9.706853426713356612e+02 8.188161286834965454e-05
9.715857928964481971e+02 8.273384482087345034e-05
9.724862431215607330e+02 8.376119119357083582e-05
9.733866933466732689e+02 8.483366538744587188e-05
9.742871435717858049e+02 8.578866231292783524e-05
9.751875937968984545e+02 8.658632488733383336e-05
9.760880440220109904e+02 8.722945915031084501e-05
9.769884942471235263e+02 8.753840341294102012e-05
9.778889444722360622e+02 8.751345381080700796e-05
9.787893946973485981e+02 8.748141314605293011e-05
9.796898449224611340e+02 8.747825582868942816e-05
9.805902951475737837e+02 8.726225505363987580e-05
9.814907453726863196e+02 8.691254861973726970e-05
9.823911955977988555e+02 8.675083393831097933e-05
9.832916458229113914e+02 8.682873538774009913e-05
9.841920960480239273e+02 8.706061697741065899e-05
9.850925462731365769e+02 8.745108568077258979e-05
9.859929964982491128e+02 8.777005047039863428e-05
9.868934467233616488e+02 8.773295348342253987e-05
9.877938969484741847e+02 8.750652765176867166e-05
9.886943471735867206e+02 8.759781469588369396e-05
9.895947973986992565e+02 8.828037695408886242e-05
9.904952476238119061e+02 8.956532946485650664e-05
9.913956978489244420e+02 9.127556632790934175e-05
9.922961480740369780e+02 9.275539146359407304e-05
9.931965982991495139e+02 9.332256100847808819e-05
9.940970485242620498e+02 9.305133793757205084e-05
9.949974987493745857e+02 9.247295336798850901e-05
9.958979489744872353e+02 9.227547673272437590e-05
9.967983991995997712e+02 9.312800488874196534e-05
9.976988494247123072e+02 9.512798052532826169e-05
9.985992996498248431e+02 9.786533894567531796e-05
9.994997498749373790e+02 1.009510436102911761e-04
1.000400200100050029e+03 1.041334371444062589e-04
1.001300650325162565e+03 1.070178392909648473e-04
1.002201100550275100e+03 1.091367927849836095e-04
1.003101550775387636e+03 1.102267728877063342e-04
1.004002001000500172e+03 1.103129538750306359e-04
1.004902451225612708e+03 1.099675055875263256e-04
1.005802901450725358e+03 1.097160129482822622e-04
1.006703351675837894e+03 1.092905864624780463e-04
1.007603801900950430e+03 1.083706702654249030e-04
1.008504252126062966e+03 1.072898907858658285e-04
1.009404702351175501e+03 1.064673485756775410e-04
1.010305152576288151e+03 1.060127176093453739e-04
1.011205602801400687e+03 1.058393654330877758e-04
1.012106053026513223e+03 1.059093707522354498e-04
1.013006503251625759e+03 1.063987396423377404e-04
1.013906953476738295e+03 1.074984760564328469e-04
1.014807403701850831e+03 1.089996015991123821e-04
1.015707853926963480e+03 1.103208837903735679e-04
1.016608304152076016e+03 1.112150170278353303e-04
1.017508754377188552e+03 1.121112747048187995e-04
1.018409204602301088e+03 1.135808193160009558e-04
1.019309654827413624e+03 1.157451693729303509e-04
1.020210105052526160e+03 1.183321535463979454e-04
1.021110555277638809e+03 1.211462186305542618e-04
1.022011005502751345e+03 1.240324023671721273e-04
1.022911455727863881e+03 1.266016418202498906e-04
1.023811905952976417e+03 1.282993298363942127e-04
1.024712356178089067e+03 1.288068449334662917e-04
1.025612806403201603e+03 1.283892190098429693e-04
1.026513256628314139e+03 1.275402467020393194e-04
1.027413706853426675e+03 1.265149627746510615e-04
1.028314157078539210e+03 1.253371750556315535e-04
1.029214607303651746e+03 1.241372411556260886e-04
1.030115057528764282e+03 1.234012625702071470e-04
1.031015507753876818e+03 1.235429499493223603e-04
1.031915957978989354e+03 1.243210847265049913e-04
1.032816408204101890e+03 1.252474523312434676e-04
1.033716858429214653e+03 1.262139020434100117e-04
1.034617308654327189e+03 1.271821319812437132e-04
1.035517758879439725e+03 1.280897991731941331e-04
1.036418209104552261e+03 1.291943857428839071e-04
1.037318659329664797e+03 1.306652911513287373e-04
1.038219109554777333e+03 1.322139697675425848e-04
1.039119559779889869e+03 1.337942421469374434e-04
1.040020010005002405e+03 1.357637869366442197e-04
1.040920460230114941e+03 1.384589745059188262e-04
1.041820910455227477e+03 1.418919441908022313e-04
1.042721360680340013e+03 1.451809395291548766e-04
1.043621810905452776e+03 1.473453929450757355e-04
1.044522261130565312e+03 1.485427063562642664e-04
1.045422711355677848e+03 1.496492881445623451e-04
1.046323161580790384e+03 1.510383082736260947e-04
1.047223611805902920e+03 1.521447532482140728e-04
1.048124062031015455e+03 1.519426522101321368e-04
1.049024512256127991e+03 1.503471960346631955e-04
1.049924962481240527e+03 1.484098372608293063e-04
1.050825412706353063e+03 1.469747260719178595e-04
1.051725862931465599e+03 1.463355378107496978e-04
1.052626313156578135e+03 1.466669303792132544e-04
1.053526763381690898e+03 1.478276508865404722e-04
1.054427213606803434e+03 1.494547004472187093e-04
1.055327663831915970e+03 1.514728239250083411e-04
1.056228114057028506e+03 1.537917676113409373e-04
1.057128564282141042e+03 1.558608310453652975e-04
1.058029014507253578e+03 1.570772059073573680e-04
1.058929464732366114e+03 1.570562429407676365e-04
1.059829914957478650e+03 1.555268319304965936e-04
1.060730365182591186e+03 1.529613197422852893e-04
1.061630815407703722e+03 1.507030572947975382e-04
1.062531265632816257e+03 1.498150849937709473e-04
1.063431715857929021e+03 1.501211253797650501e-04
1.064332166083041557e+03 1.504820731519596825e-04
1.065232616308154093e+03 1.502274582053494056e-04
1.066133066533266629e+03 1.499346812289108514e-04
1.067033516758379164e+03 1.504819073826379919e-04
1.067933966983491700e+03 1.518480372098108893e-04
1.068834417208604236e+03 1.532087483995742475e-04
1.069734867433716772e+03 1.537555324850119697e-04
1.070635317658829308e+03 1.533725448688827138e-04
1.071535767883941844e+03 1.526781114462168426e-04
1.072436218109054380e+03 1.522434760106531075e-04
1.073336668334167143e+03 1.525350665593852302e-04
1.074237118559279679e+03 1.539027730446737975e-04
1.075137568784392215e+03 1.561455899303662250e-04
1.076038019009504751e+03 1.585137452858692792e-04
1.076938469234617287e+03 1.600926448750741556e-04
1.077838919459729823e+03 1.600245080625933370e-04
1.078739369684842359e+03 1.578688174231877319e-04
1.079639819909954895e+03 1.543632983759008902e-04
1.080540270135067431e+03 1.510617787914129734e-04
1.081440720360179967e+03 1.487977300947808206e-04
1.082341170585292502e+03 1.474122566621266148e-04
1.083241620810405038e+03 1.463660741345588579e-04
1.084142071035517802e+03 1.451602138028773386e-04
1.085042521260630338e+03 1.438206348202788522e-04
1.085942971485742873e+03 1.428449587613221682e-04
1.086843421710855409e+03 1.426719474158174325e-04
1.087743871935967945e+03 1.436214924108339223e-04
1.088644322161080481e+03 1.455897724209115525e-04
1.089544772386193017e+03 1.475381920835368028e-04
1.090445222611305553e+03 1.483684020274160097e-04
1.091345672836418089e+03 1.481626048802630333e-04
1.092246123061530625e+03 1.477090284069201723e-04
1.093146573286643161e+03 1.475717335320716323e-04
1.094047023511755924e+03 1.480150113887516072e-04
1.094947473736868460e+03 1.493158854557057893e-04
1.095847923961980996e+03 1.517228192016195935e-04
1.096748374187093532e+03 1.553430547920944523e-04
1.097648824412206068e+03 1.600198686165927567e-04
1.098549274637318604e+03 1.649601368025727349e-04
1.099449724862431140e+03 1.690988342446546799e-04
1.100350175087543676e+03 1.721785877011855861e-04
1.101250625312656211e+03 1.746687650345261282e-04
1.102151075537768747e+03 1.765063046737879284e-04
1.103051525762881283e+03 1.769554815277100555e-04
1.103951975987994047e+03 1.758160926041630245e-04
1.104852426213106583e+03 1.736314684781345593e-04
1.105752876438219118e+03 1.710313159160168804e-04
1.106653326663331654e+03 1.683287797795415342e-04
1.107553776888444190e+03 1.659866806402646828e-04
1.108454227113556726e+03 1.648023425776491897e-04
1.109354677338669262e+03 1.650129829892829332e-04
1.110255127563781798e+03 1.661421746457070582e-04
1.111155577788894334e+03 1.677765014663894509e-04
1.112056028014006870e+03 1.697611147547480655e-04
1.112956478239119406e+03 1.718937004953230451e-04
1.113856928464232169e+03 1.735434873296225536e-04
1.114757378689344705e+03 1.739995116952489833e-04
1.115657828914457241e+03 1.734079892541367661e-04
1.116558279139569777e+03 1.729588319057998285e-04
1.117458729364682313e+03 1.736911043334072170e-04
1.118359179589794849e+03 1.758314898135279443e-04
1.119259629814907385e+03 1.787994798529096794e-04
1.120160080040019920e+03 1.814964478415423996e-04
1.121060530265132456e+03 1.832611930308506820e-04
1.121960980490244992e+03 1.846542408383861512e-04
1.122861430715357528e+03 1.869443563225898196e-04
1.123761880940470292e+03 1.909287904956757389e-04
1.124662331165582827e+03 1.961555347995373050e-04
1.125562781390695363e+03 2.012473292652432644e-04
1.126463231615807899e+03 2.049256141393741013e-04
1.127363681840920435e+03 2.069714078766822388e-04
1.128264132066032971e+03 2.082637557004863812e-04
1.129164582291145507e+03 2.096434661210948454e-04
1.130065032516258043e+03 2.112137744779032759e-04
1.130965482741370579e+03 2.125400618523576486e-04
1.131865932966483115e+03 2.134814301018561600e-04
1.132766383191595651e+03 2.147318004526009994e-04
1.133666833416708187e+03 2.173651834056580822e-04
1.134567283641820950e+03 2.220301843752117536e-04
1.135467733866933486e+03 2.283857222557368020e-04
1.136368184092046022e+03 2.354657810800597848e-04
1.137268634317158558e+03 2.423895105906310543e-04
1.138169084542271094e+03 2.484083966664265230e-04
1.139069534767383630e+03 2.535966946819003583e-04
1.139969984992496165e+03 2.594234187322747649e-04
1.140870435217608701e+03 2.675037931753619690e-04
1.141770885442721237e+03 2.786123479231755891e-04
1.142671335667833773e+03 2.929287520293440963e-04
1.143571785892946309e+03 3.103696887144478944e-04
1.144472236118059072e+03 3.307268637520333759e-04
1.145372686343171608e+03 3.535398795853779397e-04
1.146273136568284144e+03 3.789892789253130083e-04
1.147173586793396680e+03 4.082246713296874244e-04
1.148074037018509216e+03 4.419625083018115653e-04
1.148974487243621752e+03 4.819057449244449655e-04
1.149874937468734288e+03 5.330484048303421509e-04
1.150775387693846824e+03 6.008842544570698781e-04
1.151675837918959360e+03 6.886658036280948227e-04
1.152576288144071896e+03 7.969476971525730818e-04
1.153476738369184432e+03 9.228765796081311217e-04
1.154377188594297195e+03 1.061864952435495960e-03
1.155277638819409731e+03 1.212866282726117202e-03
1.156178089044522267e+03 1.376825784866478591e-03
1.157078539269634803e+03 1.545523884192339823e-03
1.157978989494747339e+03 1.705215293364905011e-03
1.158879439719859874e+03 1.851914739269921832e-03
1.159779889944972410e+03 1.989793224342711626e-03
1.160680340170084946e+03 2.121244920693649786e-03
1.161580790395197482e+03 2.251019619842988938e-03
1.162481240620310018e+03 2.383262066106336691e-03
1.163381690845422554e+03 2.503613948809794206e-03
1.164282141070535317e+03 2.583793872242907269e-03
1.165182591295647853e+03 2.599842175814761833e-03
1.166083041520760389e+03 2.547449198781037445e-03
1.166983491745872925e+03 2.441961541483502439e-03
1.167883941970985461e+03 2.304778174349735986e-03
1.168784392196097997e+03 2.154533302896886968e-03
1.169684842421210533e+03 1.993882530251398985e-03
1.170585292646323069e+03 1.815938408554330571e-03
1.171485742871435605e+03 1.627026768258263596e-03
1.172386193096548141e+03 1.449416641975407975e-03
1.173286643321660677e+03 1.302497962072281332e-03
1.174187093546773440e+03 1.190704341274986247e-03
1.175087543771885976e+03 1.109021746294829502e-03
1.175987993996998512e+03 1.048148919984845514e-03
1.176888444222111048e+03 9.983253096592522267e-04
1.177788894447223583e+03 9.558235644188919000e-04
1.178689344672336119e+03 9.235631954866514639e-04
1.179589794897448655e+03 9.022311119238161101e-04
1.180490245122561191e+03 8.863390809834444366e-04
1.181390695347673727e+03 8.712314539687362807e-04
1.182291145572786263e+03 8.571125031288769286e-04
1.183191595797898799e+03 8.465252071371150676e-04
1.184092046023011562e+03 8.393979550144018429e-04
1.184992496248124098e+03 8.329163477684875701e-04
1.185892946473236634e+03 8.256248728462024962e-04
1.186793396698349170e+03 8.191406353053712385e-04
1.187693846923461706e+03 8.144678128541673647e-04
1.188594297148574242e+03 8.122364831549068508e-04
1.189494747373686778e+03 8.166426986490039029e-04
1.190395197598799314e+03 8.316818518512785570e-04
1.191295647823911850e+03 8.554398935930429245e-04
1.192196098049024386e+03 8.776356670399824761e-04
1.193096548274136921e+03 8.853789501608943331e-04
1.193996998499249457e+03 8.750581926115065610e-04
1.194897448724362221e+03 8.539940380513346080e-04
1.195797898949474757e+03 8.321463714112104599e-04
1.196698349174587293e+03 8.146837972309310845e-04
1.197598799399699828e+03 8.018155739420630311e-04
1.198499249624812364e+03 7.910970613833628482e-04
1.199399699849924900e+03 7.798009188725610287e-04
1.200300150075037436e+03 7.671048176545507353e-04
1.201200600300149972e+03 7.520594387728343809e-04
1.202101050525262508e+03 7.332843057031250946e-04
1.203001500750375044e+03 7.102518441775041184e-04
1.203901950975487580e+03 6.848619045477066358e-04
1.204802401200600343e+03 6.605856776905512373e-04
1.205702851425712879e+03 6.397726816597189455e-04
1.206603301650825415e+03 6.230553731107320520e-04
1.207503751875937951e+03 6.100118461326024984e-04
1.208404202101050487e+03 5.986133373274626305e-04
1.209304652326163023e+03 5.871233333335047289e-04
1.210205102551275559e+03 5.759075252069325917e-04
1.211105552776388095e+03 5.650068200392871845e-04
1.212006003001500630e+03 5.518525008529219901e-04
1.212906453226613166e+03 5.353047164758761422e-04
1.213806903451725702e+03 5.183034029314416988e-04
1.214707353676838466e+03 5.035519963741631657e-04
1.215607803901951002e+03 4.904384173138846706e-04
1.216508254127063537e+03 4.777272650907245471e-04
1.217408704352176073e+03 4.637053262277435152e-04
1.218309154577288609e+03 4.476843191259602004e-04
1.219209604802401145e+03 4.325051073516033217e-04
1.220110055027513681e+03 4.205329737657375233e-04
1.221010505252626217e+03 4.129453141725223731e-04
1.221910955477738753e+03 4.108666137963724180e-04
1.222811405702851289e+03 4.143204015416565643e-04
1.223711855927963825e+03 4.223503842771348998e-04
1.224612306153076588e+03 4.313931696411317301e-04
1.225512756378189124e+03 4.361436373005398164e-04
1.226413206603301660e+03 4.369900477936777632e-04
1.227313656828414196e+03 4.396481675376016874e-04
1.228214107053526732e+03 4.458246204601674489e-04
1.229114557278639268e+03 4.527995766865644273e-04
1.230015007503751804e+03 4.589611560590286816e-04
1.230915457728864340e+03 4.634221102049899997e-04
1.231815907953976875e+03 4.628408898455657291e-04
1.232716358179089411e+03 4.544269244873959954e-04
1.233616808404201947e+03 4.416017906994613258e-04
1.234517258629314711e+03 4.314077436731105311e-04
1.235417708854427246e+03 4.279589673574692318e-04
1.236318159079539782e+03 4.295660744711130735e-04
1.237218609304652318e+03 4.321573460054949968e-04
1.238119059529764854e+03 4.352657642600194746e-04
1.239019509754877390e+03 4.421796326670856137e-04
1.239919959979989926e+03 4.542061938056577959e-04
1.240820410205102462e+03 4.687702730599281565e-04
1.241720860430214998e+03 4.828284853467061091e-04
1.242621310655327534e+03 4.963744862199898902e-04
1.243521760880440070e+03 5.114531540647493857e-04
1.244422211105552606e+03 5.277060942576961228e-04
1.245322661330665369e+03 5.420494942219127033e-04
1.246223111555777905e+03 5.519040346115304183e-04
1.247123561780890441e+03 5.579563402743378635e-04
1.248024012006002977e+03 5.626461169044959373e-04
1.248924462231115513e+03 5.662198147506903841e-04
1.249824912456228049e+03 5.675467911184706908e-04
1.250725362681340584e+03 5.666667502788626503e-04
1.251625812906453120e+03 5.641148104226325396e-04
1.252526263131565656e+03 5.606390036424058589e-04
1.253426713356678192e+03 5.580062326057326320e-04
1.254327163581790728e+03 5.581721398643030903e-04
1.255227613806903491e+03 5.619625171173005295e-04
1.256128064032016027e+03 5.692385451177317838e-04
1.257028514257128563e+03 5.795618960330061777e-04
1.257928964482241099e+03 5.919186097439282880e-04
1.258829414707353635e+03 6.052165241472876392e-04
1.259729864932466171e+03 6.191641023487876039e-04
1.260630315157578707e+03 6.331196287370270898e-04
1.261530765382691243e+03 6.460235241550919610e-04
1.262431215607803779e+03 6.577981510694277121e-04
1.263331665832916315e+03 6.693384476124764971e-04
1.264232116058028851e+03 6.821779882822721647e-04
1.265132566283141614e+03 6.972439061952317605e-04
1.266033016508254150e+03 7.136324933476074096e-04
1.266933466733366686e+03 7.304231723102831307e-04
1.267833916958479222e+03 7.476506526281173322e-04
1.268734367183591758e+03 7.645839817201697782e-04
1.269634817408704293e+03 7.797829115101860380e-04
1.270535267633816829e+03 7.934572267516006938e-04
1.271435717858929365e+03 8.069484750863469306e-04
1.272336168084041901e+03 8.204896916369494109e-04
1.273236618309154437e+03 8.330192527089667637e-04
1.274137068534266973e+03 8.445929952357524462e-04
1.275037518759379736e+03 8.572530723720951738e-04
1.275937968984492272e+03 8.728733662094912554e-04
1.276838419209604808e+03 8.925418000912215249e-04
1.277738869434717344e+03 9.166097010901650679e-04
1.278639319659829880e+03 9.430682336901338985e-04
1.279539769884942416e+03 9.691165095364214204e-04
1.280440220110054952e+03 9.952247283114314114e-04
1.281340670335167488e+03 1.023031402046304435e-03
1.282241120560280024e+03 1.052235437606269253e-03
1.283141570785392560e+03 1.081223207071428660e-03
1.284042021010505096e+03 1.106932228891615005e-03
1.284942471235617859e+03 1.126288692431261880e-03
1.285842921460730395e+03 1.139152625339372128e-03
1.286743371685842931e+03 1.148438076293875620e-03
1.287643821910955467e+03 1.155848538350572790e-03
1.288544272136068003e+03 1.160896957059274733e-03
1.289444722361180538e+03 1.165076916314270470e-03
1.290345172586293074e+03 1.170599303331990417e-03
1.291245622811405610e+03 1.178461339285706740e-03
1.292146073036518146e+03 1.189062873652642696e-03
1.293046523261630682e+03 1.201308927398627834e-03
1.293946973486743218e+03 1.213587959830917133e-03
1.294847423711855754e+03 1.225785075157748366e-03
1.295747873936968517e+03 1.239529329383553700e-03
1.296648324162081053e+03 1.256492539265894205e-03
1.297548774387193589e+03 1.277159088373818613e-03
1.298449224612306125e+03 1.300906239660924030e-03
1.299349674837418661e+03 1.326503073234005159e-03
1.300250125062531197e+03 1.353152297118299843e-03
1.301150575287643733e+03 1.379372089272167586e-03
1.302051025512756269e+03 1.401822027218287787e-03
1.302951475737868805e+03 1.419565184097571842e-03
1.303851925962981340e+03 1.437134244352525044e-03
1.304752376188093876e+03 1.458720544566595965e-03
1.305652826413206640e+03 1.481621760572213739e-03
1.306553276638319176e+03 1.498796938718276227e-03
1.307453726863431712e+03 1.508598455765581626e-03
1.308354177088544247e+03 1.517647736614824482e-03
1.309254627313656783e+03 1.532389575104626351e-03
1.310155077538769319e+03 1.553573496329330433e-03
1.311055527763881855e+03 1.579332639249679798e-03
1.311955977988994391e+03 1.608927323717113675e-03
1.312856428214106927e+03 1.642034766467650965e-03
1.313756878439219463e+03 1.676029548327554039e-03
1.314657328664331999e+03 1.707791195793237045e-03
1.315557778889444762e+03 1.735429304104363791e-03
1.316458229114557298e+03 1.755719921840766685e-03
1.317358679339669834e+03 1.768569883884108483e-03
1.318259129564782370e+03 1.779757569169675233e-03
1.319159579789894906e+03 1.795571284944296169e-03
1.320060030015007442e+03 1.819718041533576825e-03
1.320960480240119978e+03 1.852046579102292582e-03
1.321860930465232514e+03 1.888944933341844172e-03
1.322761380690345050e+03 1.927166115062144396e-03
1.323661830915457585e+03 1.967203449787828344e-03
1.324562281140570121e+03 2.012571129621036452e-03
1.325462731365682885e+03 2.066977199277235996e-03
1.326363181590795421e+03 2.130050259330862426e-03
1.327263631815907956e+03 2.197449706021014845e-03
1.328164082041020492e+03 2.265006288090856690e-03
1.329064532266133028e+03 2.332616068946269296e-03
1.329964982491245564e+03 2.404421612860064682e-03
1.330865432716358100e+03 2.479960778277678652e-03
1.331765882941470636e+03 2.550511077873240072e-03
1.332666333166583172e+03 2.606597638923761548e-03
1.333566783391695708e+03 2.647444311400037800e-03
1.334467233616808244e+03 2.683246222555972591e-03
1.335367683841921007e+03 2.726715105199186816e-03
1.336268134067033543e+03 2.783120091879421644e-03
1.337168584292146079e+03 2.850889706035346621e-03
1.338069034517258615e+03 2.925613840644685892e-03
1.338969484742371151e+03 3.002250624392976703e-03
1.339869934967483687e+03 3.078984100354084305e-03
1.340770385192596223e+03 3.158522744728210502e-03
1.341670835417708759e+03 3.241927894017749504e-03
1.342571285642821294e+03 3.328654550232441108e-03
1.343471735867933830e+03 3.421515321805715295e-03
1.344372186093046366e+03 3.525630766011580205e-03
1.345272636318158902e+03 3.646157737090208444e-03
1.346173086543271666e+03 3.786401635466778159e-03
1.347073536768384201e+03 3.941755285233672530e-03
1.347973986993496737e+03 4.103352070355213189e-03
1.348874437218609273e+03 4.269319520109964364e-03
1.349774887443721809e+03 4.440776481511191608e-03
1.350675337668834345e+03 4.610984961105479320e-03
1.351575787893946881e+03 4.769269364228953881e-03
1.352476238119059417e+03 4.913882547147981929e-03
1.353376688344171953e+03 5.051001981426100386e-03
1.354277138569284489e+03 5.186829505005185678e-03
1.355177588794397025e+03 5.329081582759086916e-03
1.356078039019509788e+03 5.490491321133638032e-03
1.356978489244622324e+03 5.683835885855916328e-03
1.357878939469734860e+03 5.902319896076184229e-03
1.358779389694847396e+03 6.125232853232076558e-03
1.359679839919959932e+03 6.346765684737117573e-03
1.360580290145072468e+03 6.578834165989510749e-03
1.361480740370185003e+03 6.834214027642037878e-03
1.362381190595297539e+03 7.110529621979636179e-03
1.363281640820410075e+03 7.390844602414540707e-03
1.364182091045522611e+03 7.654120765394717592e-03
1.365082541270635147e+03 7.891494886095952455e-03
1.365982991495747910e+03 8.126331478782312934e-03
1.366883441720860446e+03 8.398285402617184509e-03
1.367783891945972982e+03 8.729002892301945468e-03
1.368684342171085518e+03 9.108934260655090348e-03
1.369584792396198054e+03 9.513456583362620358e-03
1.370485242621310590e+03 9.925851748554382833e-03
1.371385692846423126e+03 1.033537898113322771e-02
1.372286143071535662e+03 1.072083684742853107e-02
1.373186593296648198e+03 1.106542357248092509e-02
1.374087043521760734e+03 1.137590289686599664e-02
1.374987493746873270e+03 1.169340054768789293e-02
1.375887943971986033e+03 1.204771772667220971e-02
1.376788394197098569e+03 1.240530339130221406e-02
1.377688844422211105e+03 1.272916886499133801e-02
1.378589294647323641e+03 1.302953835368794028e-02
1.379489744872436177e+03 1.332176024200567264e-02
1.380390195097548713e+03 1.361889712803725921e-02
1.381290645322661248e+03 1.395074872848993744e-02
1.382191095547773784e+03 1.435429702086561850e-02
1.383091545772886320e+03 1.485879199253461840e-02
1.383991995997998856e+03 1.546863730566810924e-02
1.384892446223111392e+03 1.615733162557766653e-02
1.385792896448224155e+03 1.690656147813224611e-02
1.386693346673336691e+03 1.770321285740788370e-02
1.387593796898449227e+03 1.849093933067049236e-02
1.388494247123561763e+03 1.919112273276555800e-02
1.389394697348674299e+03 1.975281393756060655e-02
1.390295147573786835e+03 2.022505690022426486e-02
1.391195597798899371e+03 2.078663526623994104e-02
1.392096048024011907e+03 2.158405093847337239e-02
1.392996498249124443e+03 2.255632916353133080e-02
1.393896948474236979e+03 2.350794204739197965e-02
1.394797398699349515e+03 2.430683330903197353e-02
1.395697848924462278e+03 2.493887103448192560e-02
1.396598299149574814e+03 2.546766564333471580e-02
1.397498749374687350e+03 2.596599300232783555e-02
1.398399199599799886e+03 2.641704706738869091e-02
1.399299649824912422e+03 2.670488680887846827e-02
1.400200100050024957e+03 2.671884022425013300e-02
1.401100550275137493e+03 2.648113793663624954e-02
1.402001000500250029e+03 2.611541721225470181e-02
1.402901450725362565e+03 2.570015948088210170e-02
1.403801900950475101e+03 2.526574407473687611e-02
1.404702351175587637e+03 2.488317397311024665e-02
1.405602801400700173e+03 2.463552785352127530e-02
1.406503251625812936e+03 2.454439689940149383e-02
1.407403701850925472e+03 2.452863205935189306e-02
1.408304152076038008e+03 2.441809901468772886e-02
1.409204602301150544e+03 2.409616253726594784e-02
1.410105052526263080e+03 2.359715540212464421e-02
1.411005502751375616e+03 2.304514686351298233e-02
1.411905952976488152e+03 2.248343975616508283e-02
1.412806403201600688e+03 2.185051368059092239e-02
1.413706853426713224e+03 2.116771785914506321e-02
1.414607303651825760e+03 2.054888674991550354e-02
1.415507753876938295e+03 2.006855994132127757e-02
1.416408204102051059e+03 1.970105360590481899e-02
1.417308654327163595e+03 1.933517347530570168e-02
1.418209104552276131e+03 1.885924454040959278e-02
1.419109554777388666e+03 1.825842775509783911e-02
1.420010005002501202e+03 1.761101097661128476e-02
1.420910455227613738e+03 1.695865340428420048e-02
1.421810905452726274e+03 1.628336739792553278e-02
1.422711355677838810e+03 1.563727860819906501e-02
1.423611805902951346e+03 1.512204584621542648e-02
1.424512256128063882e+03 1.477116820281725203e-02
1.425412706353176418e+03 1.452139769999443580e-02
1.426313156578289181e+03 1.427673474483124282e-02
1.427213606803401717e+03 1.396863531578726274e-02
1.428114057028514253e+03 1.355570106591091027e-02
1.429014507253626789e+03 1.303520179491586203e-02
1.429914957478739325e+03 1.243644679106552416e-02
1.430815407703851861e+03 1.181397331227867359e-02
1.431715857928964397e+03 1.125531256505899434e-02
1.432616308154076933e+03 1.080674262128768562e-02
1.433516758379189469e+03 1.042490576820503077e-02
1.434417208604302004e+03 1.004340655876829504e-02
1.435317658829414540e+03 9.636717395075355616e-03
1.436218109054527304e+03 9.218995562474673403e-03
1.437118559279639840e+03 8.818802955545096758e-03
1.438019009504752376e+03 8.459323194384747377e-03
1.438919459729864911e+03 8.149331642374272808e-03
1.439819909954977447e+03 7.884248074566916828e-03
1.440720360180089983e+03 7.659135460749483780e-03
1.441620810405202519e+03 7.469279511208053862e-03
1.442521260630315055e+03 7.304048589985362265e-03
1.443421710855427591e+03 7.144254690946223035e-03
1.444322161080540127e+03 6.961144615804383887e-03
1.445222611305652663e+03 6.740033400722757369e-03
1.446123061530765426e+03 6.484341774152678831e-03
1.447023511755877962e+03 6.209938392298566812e-03
1.447923961980990498e+03 5.944376302601444249e-03
1.448824412206103034e+03 5.706378593452570737e-03
1.449724862431215570e+03 5.494682624864699778e-03
1.450625312656328106e+03 5.295529769399112338e-03
1.451525762881440642e+03 5.102043904916768804e-03
1.452426213106553178e+03 4.927775187691752455e-03
1.453326663331665713e+03 4.792425237748350851e-03
1.454227113556778249e+03 4.695947706751508674e-03
1.455127563781890785e+03 4.614240377409262184e-03
1.456028014007003321e+03 4.517708264677173895e-03
1.456928464232116085e+03 4.393147199585417662e-03
1.457828914457228620e+03 4.244807548443313081e-03
1.458729364682341156e+03 4.090108724372729619e-03
1.459629814907453692e+03 3.952860225932002154e-03
1.460530265132566228e+03 3.842639094078893671e-03
1.461430715357678764e+03 3.749899216336767191e-03
1.462331165582791300e+03 3.665828277137283490e-03
1.463231615807903836e+03 3.589733694164078982e-03
1.464132066033016372e+03 3.525448675503218502e-03
1.465032516258128908e+03 3.477504947330306833e-03
1.465932966483241444e+03 3.438881485908273222e-03
1.466833416708354207e+03 3.394107404945362338e-03
1.467733866933466743e+03 3.337850721526623449e-03
1.468634317158579279e+03 3.273310917587634976e-03
1.469534767383691815e+03 3.194762814303497758e-03
1.470435217608804351e+03 3.093847361921647429e-03
1.471335667833916887e+03 2.976636010912042489e-03
1.472236118059029423e+03 2.855741477956393829e-03
1.473136568284141958e+03 2.739064957317302075e-03
1.474037018509254494e+03 2.632018404950556018e-03
1.474937468734367030e+03 2.541004609321501594e-03
1.475837918959479566e+03 2.465885441991161244e-03
1.476738369184592329e+03 2.402822587995676658e-03
1.477638819409704865e+03 2.350469452834548067e-03
1.478539269634817401e+03 2.303095765910738273e-03
1.479439719859929937e+03 2.251708698923028228e-03
1.480340170085042473e+03 2.192426088418176350e-03
1.481240620310155009e+03 2.129357357780528853e-03
1.482141070535267545e+03 2.070166027715018668e-03
1.483041520760380081e+03 2.017783410791335399e-03
1.483941970985492617e+03 1.968623089213035905e-03
1.484842421210605153e+03 1.918661059515821632e-03
1.485742871435717689e+03 1.866618666223974652e-03
1.486643321660830452e+03 1.813452048252277510e-03
1.487543771885942988e+03 1.759339071454019739e-03
1.488444222111055524e+03 1.705846547279866836e-03
1.489344672336168060e+03 1.658320631030113599e-03
1.490245122561280596e+03 1.617642543358558966e-03
1.491145572786393132e+03 1.579056626040009235e-03
1.492046023011505667e+03 1.539365934065032356e-03
1.492946473236618203e+03 1.499501782945448364e-03
1.493846923461730739e+03 1.463396094259986589e-03
1.494747373686843275e+03 1.435159313229956383e-03
1.495647823911955811e+03 1.414995704204043440e-03
1.496548274137068574e+03 1.399619276473955875e-03
1.497448724362181110e+03 1.384626315055661593e-03
1.498349174587293646e+03 1.365063524545198853e-03
1.499249624812406182e+03 1.336667817944879513e-03
1.500150075037518718e+03 1.298164768853634710e-03
1.501050525262631254e+03 1.253720936665566775e-03
1.501950975487743790e+03 1.209684461680149556e-03
1.502851425712856326e+03 1.171967721455647931e-03
1.503751875937968862e+03 1.144725396504174411e-03
1.504652326163081398e+03 1.128026895259413550e-03
1.505552776388193934e+03 1.119141629256319723e-03
1.506453226613306470e+03 1.115466790681229111e-03
1.507353676838419233e+03 1.114949665646939756e-03
1.508254127063531769e+03 1.117209297266367205e-03
1.509154577288644305e+03 1.124209276666399571e-03
1.510055027513756841e+03 1.136779915057410792e-03
1.510955477738869376e+03 1.151141129723621875e-03
1.511855927963981912e+03 1.161041307931897238e-03
1.512756378189094448e+03 1.162612864151943513e-03
1.513656828414206984e+03 1.155345660839618383e-03
1.514557278639319520e+03 1.142345970812293741e-03
1.515457728864432056e+03 1.129413638112807070e-03
1.516358179089544592e+03 1.121894222410533366e-03
1.517258629314657355e+03 1.121754875491213143e-03
1.518159079539769891e+03 1.125238818001196269e-03
1.519059529764882427e+03 1.126100759557329247e-03
1.519959979989994963e+03 1.122663322050481208e-03
1.520860430215107499e+03 1.117159518015106668e-03
1.521760880440220035e+03 1.109796146091803284e-03
1.522661330665332571e+03 1.098894976497538211e-03
1.523561780890445107e+03 1.084985339977453857e-03
1.524462231115557643e+03 1.072084160705135455e-03
1.525362681340670179e+03 1.064970602266211664e-03
1.526263131565782714e+03 1.063704992579053406e-03
1.527163581790895478e+03 1.063961175160838945e-03
1.528064032016008014e+03 1.063410139468139821e-03
1.528964482241120550e+03 1.063083776248486103e-03
1.529864932466233086e+03 1.064737401870691517e-03
1.530765382691345621e+03 1.069495722494205906e-03
1.531665832916458157e+03 1.076196799716854337e-03
1.532566283141570693e+03 1.081980172069506394e-03
1.533466733366683229e+03 1.084282918357840075e-03
1.534367183591795765e+03 1.082970204517954812e-03
1.535267633816908301e+03 1.079901533571854750e-03
1.536168084042020837e+03 1.075087471160509007e-03
1.537068534267133600e+03 1.066517239557941091e-03
1.537968984492246136e+03 1.055750231626111568e-03
1.538869434717358672e+03 1.045781963419868156e-03
1.539769884942471208e+03 1.035357312923949110e-03
1.540670335167583744e+03 1.023198594396284482e-03
1.541570785392696280e+03 1.013398861481379061e-03
1.542471235617808816e+03 1.012535837989972506e-03
1.543371685842921352e+03 1.020485584132566114e-03
1.544272136068033888e+03 1.027690329908860370e-03
1.545172586293146423e+03 1.026187972328454099e-03
1.546073036518258959e+03 1.015954719703741817e-03
1.546973486743371723e+03 1.000267166331884894e-03
1.547873936968484259e+03 9.827501894285330889e-04
1.548774387193596795e+03 9.684343813080420037e-04
1.549674837418709330e+03 9.608791512630355039e-04
1.550575287643821866e+03 9.581661249075542307e-04
1.551475737868934402e+03 9.568933816961393236e-04
1.552376188094046938e+03 9.554662292482503502e-04
1.553276638319159474e+03 9.525268092523149878e-04
1.554177088544272010e+03 9.482079203748076815e-04
1.555077538769384546e+03 9.437032800793176491e-04
1.555977988994497082e+03 9.388995519442965660e-04
1.556878439219609618e+03 9.321556045287337621e-04
1.557778889444722381e+03 9.224737354022064049e-04
1.558679339669834917e+03 9.120996373712319475e-04
1.559579789894947453e+03 9.055006967727280030e-04
1.560480240120059989e+03 9.066138577043958034e-04
1.561380690345172525e+03 9.152083410604538961e-04
1.562281140570285061e+03 9.255877850799989082e-04
1.563181590795397597e+03 9.327979811409993580e-04
1.564082041020510133e+03 9.369544855458027165e-04
1.564982491245622668e+03 9.400505822868690043e-04
1.565882941470735204e+03 9.430495784378407605e-04
1.566783391695847740e+03 9.443141959976122631e-04
1.567683841920960504e+03 9.432745516825128459e-04
1.568584292146073039e+03 9.412090412100216491e-04
1.569484742371185575e+03 9.391366892919748724e-04
1.570385192596298111e+03 9.384850052594154862e-04
1.571285642821410647e+03 9.345870205782608447e-04
1.572186093046523183e+03 9.139134423248371610e-04
1.573086543271635719e+03 8.663923970314129632e-04
1.573986993496748255e+03 7.922030728766474295e-04
1.574887443721860791e+03 7.004809356510742664e-04
1.575787893946973327e+03 6.062680107612290151e-04
1.576688344172085863e+03 5.216246587414671279e-04
1.577588794397198626e+03 4.486951408335554154e-04
1.578489244622311162e+03 3.846091807655472824e-04
1.579389694847423698e+03 3.284608316782506102e-04
1.580290145072536234e+03 2.815580467945300600e-04
1.581190595297648770e+03 2.445712503122682681e-04
1.582091045522761306e+03 2.162910050987123254e-04
1.582991495747873842e+03 1.947637598869775657e-04
1.583891945972986377e+03 1.781963907183689946e-04
1.584792396198098913e+03 1.650043652881778334e-04
1.585692846423211449e+03 1.537985689156864185e-04
1.586593296648323985e+03 1.438147777338453180e-04
1.587493746873436749e+03 1.350381762231952739e-04
1.588394197098549284e+03 1.275441581514609186e-04
1.589294647323661820e+03 1.210896949299632570e-04
1.590195097548774356e+03 1.152885824887502791e-04
1.591095547773886892e+03 1.099766506147809822e-04
1.591995997998999428e+03 1.052066757421977615e-04
1.592896448224111964e+03 1.009975683295242523e-04
1.593796898449224500e+03 9.729034443708331860e-05
1.594697348674337036e+03 9.400651027572235938e-05
1.595597798899449572e+03 9.107883681177900701e-05
1.596498249124562108e+03 8.845696520988105039e-05
1.597398699349674871e+03 8.610562437113394028e-05
1.598299149574787407e+03 8.400238623202631457e-05
1.599199599799899943e+03 8.213663361461982478e-05
1.600100050025012479e+03 8.050994343337871274e-05
1.601000500250125015e+03 7.913750839966795711e-05
1.601900950475237551e+03 7.804942992081665017e-05
1.602801400700350086e+03 7.729224351524687159e-05
1.603701850925462622e+03 7.694219093501231739e-05
1.604602301150575158e+03 7.713200433181311268e-05
1.605502751375687694e+03 7.801416083494380825e-05
1.606403201600800230e+03 7.955413401747987083e-05
1.607303651825912766e+03 8.113675737434766235e-05
1.608204102051025529e+03 8.151624825273230560e-05
1.609104552276138065e+03 7.999335152242423796e-05
1.610005002501250601e+03 7.744795169085258121e-05
1.610905452726363137e+03 7.528838720545426538e-05
1.611805902951475673e+03 7.423164844391629371e-05
1.612706353176588209e+03 7.423937650258344214e-05
1.613606803401700745e+03 7.467510050333797797e-05
1.614507253626813281e+03 7.468307490491605377e-05
1.615407703851925817e+03 7.381295102481000043e-05
1.616308154077038353e+03 7.199783772004145633e-05
1.617208604302150889e+03 6.947355362899002734e-05
1.618109054527263652e+03 6.682309291734873555e-05
1.619009504752376188e+03 6.467602316774968970e-05
1.619909954977488724e+03 6.316535134236375400e-05
1.620810405202601260e+03 6.179395866481537415e-05
1.621710855427713796e+03 5.995088310306669364e-05
1.622611305652826331e+03 5.769721465479422430e-05
1.623511755877938867e+03 5.551978321211438716e-05
1.624412206103051403e+03 5.367862038132473191e-05
1.625312656328163939e+03 5.217943087054285417e-05
1.626213106553276475e+03 5.094873046399603351e-05
1.627113556778389011e+03 4.991576676537918226e-05
1.628014007003501774e+03 4.902929360379669862e-05
1.628914457228614310e+03 4.825528598484546281e-05
1.629814907453726846e+03 4.757208328706957426e-05
1.630715357678839382e+03 4.696666141741730660e-05
1.631615807903951918e+03 4.643233298858144993e-05
1.632516258129064454e+03 4.596757873137684259e-05
1.633416708354176990e+03 4.557576826265850395e-05
1.634317158579289526e+03 4.526569729071806651e-05
1.635217608804402062e+03 4.505305829590900427e-05
1.636118059029514598e+03 4.496318928872576934e-05
1.637018509254627133e+03 4.503574763774667957e-05
1.637918959479739897e+03 4.533232467619311567e-05
1.638819409704852433e+03 4.594816195115355913e-05
1.639719859929964969e+03 4.702751947637420462e-05
1.640620310155077505e+03 4.877260608275648534e-05
1.641520760380190040e+03 5.139767608938577271e-05
1.642421210605302576e+03 5.487659208785448820e-05
1.643321660830415112e+03 5.829257383820396135e-05
1.644222111055527648e+03 5.951349549226738508e-05
1.645122561280640184e+03 5.723369379552394005e-05
1.646023011505752720e+03 5.293503619192761565e-05
1.646923461730865256e+03 4.869058818931659845e-05
1.647823911955978019e+03 4.531978933077681753e-05
1.648724362181090555e+03 4.281126376457895192e-05
1.649624812406203091e+03 4.094555954604934156e-05
1.650525262631315627e+03 3.952316723633175804e-05
1.651425712856428163e+03 3.840256723163834433e-05
1.652326163081540699e+03 3.748982381517421971e-05
1.653226613306653235e+03 3.672327901438419539e-05
1.654127063531765771e+03 3.606207117894650693e-05
1.655027513756878307e+03 3.547863831007566177e-05
1.655927963981990843e+03 3.495400626861801442e-05
1.656828414207103378e+03 3.447483862504144921e-05
1.657728864432216142e+03 3.403157084157931462e-05
1.658629314657328678e+03 3.361721138677309649e-05
1.659529764882441214e+03 3.322655737925440142e-05
1.660430215107553749e+03 3.285567186544812644e-05
1.661330665332666285e+03 3.250152910280976892e-05
1.662231115557778821e+03 3.216176965112633860e-05
1.663131565782891357e+03 3.183452849298156243e-05
1.664032016008003893e+03 3.151831254220945793e-05
1.664932466233116429e+03 3.121191208733063976e-05
1.665832916458228965e+03 3.091433590439589431e-05
1.666733366683341501e+03 3.062476311353677470e-05
1.667633816908454037e+03 3.034250703781532049e-05
1.668534267133566800e+03 3.006698777310892238e-05
1.669434717358679336e+03 2.979771115436809318e-05
1.670335167583791872e+03 2.953425247027200264e-05
1.671235617808904408e+03 2.927624373930912013e-05
1.672136068034016944e+03 2.902336368296962402e-05
1.673036518259129480e+03 2.877532976018905603e-05
1.673936968484242016e+03 2.853189179068782338e-05
1.674837418709354552e+03 2.829282681308278153e-05
1.675737868934467087e+03 2.805793490997920546e-05
1.676638319159579623e+03 2.782703579586260826e-05
1.677538769384692159e+03 2.759996601090412315e-05
1.678439219609804923e+03 2.737657659923145185e-05
1.679339669834917459e+03 2.715673117699702975e-05
1.680240120060029994e+03 2.694030431595192008e-05
1.681140570285142530e+03 2.672718018385452442e-05
1.682041020510255066e+03 2.651725139509407674e-05
1.682941470735367602e+03 2.631041803428052514e-05
1.683841920960480138e+03 2.610658682285762415e-05
1.684742371185592674e+03 2.590567040456060770e-05
1.685642821410705210e+03 2.570758673007774754e-05
1.686543271635817746e+03 2.551225852489474841e-05
1.687443721860930282e+03 2.531961282718982840e-05
1.688344172086043045e+03 2.512958058496110182e-05
1.689244622311155581e+03 2.494209630344542525e-05
1.690145072536268117e+03 2.475709773540063773e-05
1.691045522761380653e+03 2.457452560805562346e-05
1.691945972986493189e+03 2.439432338154690329e-05
1.692846423211605725e+03 2.421643703448646056e-05
1.693746873436718261e+03 2.404081487298663332e-05
1.694647323661830796e+03 2.386740736003434632e-05
1.695547773886943332e+03 2.369616696258012231e-05
1.696448224112055868e+03 2.352704801408671173e-05
1.697348674337168404e+03 2.336000659062418487e-05
1.698249124562281168e+03 2.319500039886048025e-05
1.699149574787393703e+03 2.303198867453237639e-05
1.700050025012506239e+03 2.287093209017587877e-05
1.700950475237618775e+03 2.271179267106331249e-05
1.701850925462731311e+03 2.255453371842545398e-05
1.702751375687843847e+03 2.239911973916922628e-05
1.703651825912956383e+03 2.224551638139298253e-05
1.704552276138068919e+03 2.209369037509435548e-05
1.705452726363181455e+03 2.194360947753998332e-05
1.706353176588293991e+03 2.179524242282790956e-05
1.707253626813406527e+03 2.164855887523645404e-05
1.708154077038519290e+03 2.150352938599248820e-05
1.709054527263631826e+03 2.136012535314284598e-05
1.709954977488744362e+03 2.121831898424195669e-05
1.710855427713856898e+03 2.107808326160710917e-05
1.711755877938969434e+03 2.093939190991291600e-05
1.712656328164081970e+03 2.080221936593088869e-05
1.713556778389194506e+03 2.066654075023063950e-05
1.714457228614307041e+03 2.053233184068865155e-05
1.715357678839419577e+03 2.039956904765702350e-05
1.716258129064532113e+03 2.026822939066775617e-05
1.717158579289644649e+03 2.013829047655760828e-05
1.718059029514757185e+03 2.000973047890847910e-05
1.718959479739869948e+03 1.988252811871296663e-05
1.719859929964982484e+03 1.975666264618078087e-05
1.720760380190095020e+03 1.963211382361008765e-05
1.721660830415207556e+03 1.950886190925802603e-05
1.722561280640320092e+03 1.938688764214870818e-05
1.723461730865432628e+03 1.926617222776349223e-05
1.724362181090545164e+03 1.914669732456534878e-05
1.725262631315657700e+03 1.902844503131519640e-05
1.726163081540770236e+03 1.891139787513571662e-05
1.727063531765882772e+03 1.879553880029475053e-05
1.727963981990995308e+03 1.868085115767113290e-05
1.728864432216108071e+03 1.856731869488069693e-05
1.729764882441220607e+03 1.845492554703715397e-05
1.730665332666333143e+03 1.834365622812627594e-05
1.731565782891445679e+03 1.823349562297933992e-05
1.732466233116558215e+03 1.812442897983087986e-05
1.733366683341670750e+03 1.801644190344977456e-05
1.734267133566783286e+03 1.790952034883693962e-05
1.735167583791895822e+03 1.780365061548449057e-05
1.736068034017008358e+03 1.769881934219460828e-05
1.736968484242120894e+03 1.759501350246143406e-05
1.737868934467233430e+03 1.749222040041784420e-05
1.738769384692346193e+03 1.739042766735770208e-05
1.739669834917458729e+03 1.728962325884455189e-05
1.740570285142571265e+03 1.718979545241994047e-05
1.741470735367683801e+03 1.709093284593402382e-05
1.742371185592796337e+03 1.699302435651814998e-05
1.743271635817908873e+03 1.689605922022985063e-05
1.744172086043021409e+03 1.680002699240108679e-05
1.745072536268133945e+03 1.670491754872979645e-05
1.745972986493246481e+03 1.661072108715694673e-05
1.746873436718359017e+03 1.651742813058103051e-05
1.747773886943471553e+03 1.642502953046725349e-05
1.748674337168584316e+03 1.633351647141885918e-05
1.749574787393696852e+03 1.624288047678392122e-05
1.750475237618809388e+03 1.615311341538531830e-05
1.751375687843921924e+03 1.606420750946830535e-05
1.752276138069034459e+03 1.597615534397891929e-05
1.753176588294146995e+03 1.588894987729556454e-05
1.754077038519259531e+03 1.580258445355633076e-05
1.754977488744372067e+03 1.571705281674200318e-05
1.755877938969484603e+03 1.563234912669879872e-05
1.756778389194597139e+03 1.554846797730469857e-05
1.757678839419709675e+03 1.546540441701844035e-05
1.758579289644822438e+03 1.538315397207631159e-05
1.759479739869934974e+03 1.530171267264455627e-05
1.760380190095047510e+03 1.522107708227330739e-05
1.761280640320160046e+03 1.514124433105526377e-05
1.762181090545272582e+03 1.506221215294149280e-05
1.763081540770385118e+03 1.498397892774062224e-05
1.763981990995497654e+03 1.490654372840356349e-05
1.764882441220610190e+03 1.482990637428741832e-05
1.765782891445722726e+03 1.475406749119744151e-05
1.766683341670835262e+03 1.467902857913581919e-05
1.767583791895947797e+03 1.460479208882705357e-05
1.768484242121060333e+03 1.453136150826866872e-05
1.769384692346173097e+03 1.445874146075734592e-05
1.770285142571285633e+03 1.438693781608810182e-05
1.771185592796398169e+03 1.431595781690660996e-05
1.772086043021510704e+03 1.424581022254840731e-05
1.772986493246623240e+03 1.417650547310282681e-05
1.773886943471735776e+03 1.410805587694093174e-05
1.774787393696848312e+03 1.404047582553944770e-05
1.775687843921960848e+03 1.397378204015455981e-05
1.776588294147073384e+03 1.390799385577422276e-05
1.777488744372185920e+03 1.384313354883799829e-05
1.778389194597298456e+03 1.377922671651894582e-05
1.779289644822411219e+03 1.371630271695180370e-05
1.780190095047523755e+03 1.365439518176041988e-05
1.781090545272636291e+03 1.359354261467046062e-05
1.781990995497748827e+03 1.353378909301470624e-05
1.782891445722861363e+03 1.347518509271966702e-05
1.783791895947973899e+03 1.341778846210311817e-05
1.784692346173086435e+03 1.336166557579885929e-05
1.785592796398198971e+03 1.330689270771584738e-05
1.786493246623311506e+03 1.325355767163304777e-05
1.787393696848424042e+03 1.320176179046446295e-05
1.788294147073536578e+03 1.315162227129425459e-05
1.789194597298649342e+03 1.310327508416466343e-05
1.790095047523761878e+03 1.305687846993557501e-05
1.790995497748874413e+03 1.301261723857243820e-05
1.791895947973986949e+03 1.297070806709646594e-05
1.792796398199099485e+03 1.293140607054201106e-05
1.793696848424212021e+03 1.289501300583870984e-05
1.794597298649324557e+03 1.286188758648993668e-05
1.795497748874437093e+03 1.283245854813187407e-05
1.796398199099549629e+03 1.280724133036641604e-05
1.797298649324662165e+03 1.278685955650414867e-05
1.798199099549774701e+03 1.277207294167157353e-05
1.799099549774887464e+03 1.276381390425369242e-05
1.800000000000000000e+03 1.276323609273282675e-05
