0.000000000000000000e+00 1.056845289723833950e-03
9.004502251125562351e-01 1.422503335178623013e-03
1.800900450225112470e+00 1.898089455673995221e-03
2.701350675337668594e+00 2.393765008655554527e-03
3.601800900450224940e+00 2.666266248282087633e-03
4.502251125562780842e+00 2.516678746508549478e-03
5.402701350675337189e+00 2.067870772514417751e-03
6.303151575787893535e+00 1.575815851211047770e-03
7.203601800900449881e+00 1.174110404343280990e-03
8.104052026013006227e+00 8.810159800854317240e-04
9.004502251125561685e+00 6.737040420422682257e-04
9.904952476238118919e+00 5.262916812189563729e-04
1.080540270135067438e+01 4.196685131567696211e-04
1.170585292646323161e+01 3.410637343575689058e-04
1.260630315157578707e+01 2.819681153492884515e-04
1.350675337668834430e+01 2.366715363847064107e-04
1.440720360180089976e+01 2.013239075311436016e-04
1.530765382691345522e+01 1.733025496964823314e-04
1.620810405202601245e+01 1.507913181147173482e-04
1.710855427713856969e+01 1.324995193448159653e-04
1.800900450225112337e+01 1.174520843018910291e-04
1.890945472736368060e+01 1.048386193240650154e-04
1.980990495247623784e+01 9.401442170994175884e-05
2.071035517758879507e+01 8.462012988033748226e-05
2.161080540270134875e+01 7.649592850242493524e-05
2.251125562781390599e+01 6.949440674692685272e-05
2.341170585292646322e+01 6.344735036711013896e-05
2.431215607803901690e+01 5.819870127750552885e-05
2.521260630315157414e+01 5.362016054517266075e-05
2.611305652826413137e+01 4.961141177813150699e-05
2.701350675337668861e+01 4.609605951742361669e-05
2.791395697848924229e+01 4.301600414153894841e-05
2.881440720360179952e+01 4.032085271302540035e-05
2.971485742871435676e+01 3.794589103009002627e-05
3.061530765382691044e+01 3.579361737624960467e-05
3.151575787893946767e+01 3.377183288316753710e-05
3.241620810405202491e+01 3.184485364226815539e-05
3.331665832916458214e+01 3.001706843208190129e-05
3.421710855427713938e+01 2.832996519104561724e-05
3.511755877938969661e+01 2.683008610523445267e-05
3.601800900450224674e+01 2.551663092790825378e-05
3.691845922961480397e+01 2.432580488526153066e-05
3.781890945472736121e+01 2.315875504859190459e-05
3.871935967983991844e+01 2.197854558134564683e-05
3.961980990495247568e+01 2.083951016992260190e-05
4.052026013006503291e+01 1.979613684464686583e-05
4.142071035517759015e+01 1.886106490514374381e-05
4.232116058029014027e+01 1.802541107096486281e-05
4.322161080540269751e+01 1.727758536488366143e-05
4.412206103051525474e+01 1.660970253595056321e-05
4.502251125562781198e+01 1.601879314922178825e-05
4.592296148074036921e+01 1.550630004556426131e-05
4.682341170585292645e+01 1.507465402700265720e-05
4.772386193096548368e+01 1.471525546336519431e-05
4.862431215607803381e+01 1.438726256864717811e-05
4.952476238119059104e+01 1.402555733293093393e-05
5.042521260630314828e+01 1.361032331481366792e-05
5.132566283141570551e+01 1.318638733029516056e-05
5.222611305652826275e+01 1.278140478192215335e-05
5.312656328164081998e+01 1.237319581498231663e-05
5.402701350675337721e+01 1.195711885945124003e-05
5.492746373186592734e+01 1.156771180054082444e-05
5.582791395697848458e+01 1.122512292493216234e-05
5.672836418209104181e+01 1.092894937745086670e-05
5.762881440720359905e+01 1.068992859723575574e-05
5.852926463231615628e+01 1.052765369906472506e-05
5.942971485742871351e+01 1.044267542355151107e-05
6.033016508254127075e+01 1.039015283759691341e-05
6.123061530765382088e+01 1.028961958545355303e-05
6.213106553276637811e+01 1.012131115556307351e-05
6.303151575787893535e+01 9.965960957833746914e-06
6.393196598299149258e+01 9.886737945170553086e-06
6.483241620810404982e+01 9.851087030073708988e-06
6.573286643321659994e+01 9.768610567187273750e-06
6.663331665832916428e+01 9.579181872871652813e-06
6.753376688344171441e+01 9.283253836709204123e-06
6.843421710855427875e+01 8.930578404883524505e-06
6.933466733366682888e+01 8.605559744892941191e-06
7.023511755877939322e+01 8.373327931002246056e-06
7.113556778389194335e+01 8.245220818084049577e-06
7.203601800900449348e+01 8.177014858176449798e-06
7.293646823411705782e+01 8.089267652807047664e-06
7.383691845922960795e+01 7.950730613646676560e-06
7.473736868434217229e+01 7.815694099183974141e-06
7.563781890945472242e+01 7.749428195894330181e-06
7.653826913456728676e+01 7.782049190329294347e-06
7.743871935967983688e+01 7.910347879433456437e-06
7.833916958479238701e+01 8.117756325200541279e-06
7.923961980990495135e+01 8.375189265990419746e-06
8.014007003501750148e+01 8.622252697278092194e-06
8.104052026013006582e+01 8.782633844240335372e-06
8.194097048524261595e+01 8.802110538780221399e-06
8.284142071035518029e+01 8.698170665685248592e-06
8.374187093546773042e+01 8.547799502180920120e-06
8.464232116058028055e+01 8.381951218434839857e-06
8.554277138569284489e+01 8.152819096028854945e-06
8.644322161080539502e+01 7.831603971257662143e-06
8.734367183591795936e+01 7.477800487753811437e-06
8.824412206103050949e+01 7.168081315346827077e-06
8.914457228614307382e+01 6.929745730498008349e-06
9.004502251125562395e+01 6.773848184191467279e-06
9.094547273636817408e+01 6.702231048980731108e-06
9.184592296148073842e+01 6.698243432874407027e-06
9.274637318659328855e+01 6.738550279744960294e-06
9.364682341170585289e+01 6.806149153296965351e-06
9.454727363681840302e+01 6.906792793223744702e-06
9.544772386193096736e+01 7.063391011440621989e-06
9.634817408704351749e+01 7.267136909238730525e-06
9.724862431215606762e+01 7.460946074583784486e-06
9.814907453726863196e+01 7.571497443591076947e-06
9.904952476238118209e+01 7.548048115169006505e-06
9.994997498749374643e+01 7.401132708913875516e-06
1.008504252126062966e+02 7.224239861626793238e-06
1.017508754377188609e+02 7.128232533448628415e-06
1.026513256628314110e+02 7.129908635771744638e-06
1.035517758879439612e+02 7.169094373374654871e-06
1.044522261130565255e+02 7.194336606010011826e-06
1.053526763381690756e+02 7.209734784632596978e-06
1.062531265632816400e+02 7.277713893792256284e-06
1.071535767883941901e+02 7.446026602495824381e-06
1.080540270135067544e+02 7.649000814493411664e-06
1.089544772386193046e+02 7.742889896330762764e-06
1.098549274637318547e+02 7.673250123371451364e-06
1.107553776888444190e+02 7.509882714074107398e-06
1.116558279139569692e+02 7.342516344510212413e-06
1.125562781390695335e+02 7.237805766929985773e-06
1.134567283641820836e+02 7.191409716116002401e-06
1.143571785892946480e+02 7.129695620966662267e-06
1.152576288144071981e+02 7.008486764861296724e-06
1.161580790395197482e+02 6.856601349841054851e-06
1.170585292646323126e+02 6.711982876193379736e-06
1.179589794897448627e+02 6.582065341805290744e-06
1.188594297148574270e+02 6.492327424522215328e-06
1.197598799399699772e+02 6.462909651816833634e-06
1.206603301650825415e+02 6.459475020781365199e-06
1.215607803901950916e+02 6.435756424513183987e-06
1.224612306153076418e+02 6.381032520461128754e-06
1.233616808404202061e+02 6.342192283358918444e-06
1.242621310655327562e+02 6.405045671685687415e-06
1.251625812906453206e+02 6.624406446379161947e-06
1.260630315157578707e+02 6.983800960828570213e-06
1.269634817408704350e+02 7.406767042485654440e-06
1.278639319659829852e+02 7.810907593842719807e-06
1.287643821910955353e+02 8.177090863745743499e-06
1.296648324162080996e+02 8.514528966703665638e-06
1.305652826413206640e+02 8.765214492272440530e-06
1.314657328664331999e+02 8.856392519677828900e-06
1.323661830915457642e+02 8.773671575069637407e-06
1.332666333166583286e+02 8.528905741284308468e-06
1.341670835417708929e+02 8.185019396428982417e-06
1.350675337668834288e+02 7.855300356594886496e-06
1.359679839919959932e+02 7.622361345207218913e-06
1.368684342171085575e+02 7.487387076421721406e-06
1.377688844422210934e+02 7.397657655638110305e-06
1.386693346673336578e+02 7.307253093623716416e-06
1.395697848924462221e+02 7.185144661693706587e-06
1.404702351175587864e+02 7.012535087258469667e-06
1.413706853426713224e+02 6.800557616199018164e-06
1.422711355677838867e+02 6.581830120528833395e-06
1.431715857928964510e+02 6.406683403478942963e-06
1.440720360180089870e+02 6.327666110636292512e-06
1.449724862431215513e+02 6.359494596199606848e-06
1.458729364682341156e+02 6.478280028030042837e-06
1.467733866933466800e+02 6.651370415233143600e-06
1.476738369184592159e+02 6.845994233928432724e-06
1.485742871435717802e+02 7.037594079695730399e-06
1.494747373686843446e+02 7.226941338188984092e-06
1.503751875937968805e+02 7.409632670550821602e-06
1.512756378189094448e+02 7.536223380150298002e-06
1.521760880440220092e+02 7.584360563903913702e-06
1.530765382691345735e+02 7.617356959969416024e-06
1.539769884942471094e+02 7.723357166688601659e-06
1.548774387193596738e+02 7.959162705771254508e-06
1.557778889444722381e+02 8.292952071158492930e-06
1.566783391695847740e+02 8.604563442912610988e-06
1.575787893946973384e+02 8.800737049226857770e-06
1.584792396198099027e+02 8.934786475870175318e-06
1.593796898449224670e+02 9.127254410571049553e-06
1.602801400700350030e+02 9.390968037331043719e-06
1.611805902951475673e+02 9.621415570390423163e-06
1.620810405202601316e+02 9.751416713907653711e-06
1.629814907453726676e+02 9.833702197508070478e-06
1.638819409704852319e+02 9.925765847583622003e-06
1.647823911955977962e+02 1.000796169350354796e-05
1.656828414207103606e+02 1.003182663730657531e-05
1.665832916458228965e+02 9.950535488270236380e-06
1.674837418709354608e+02 9.733637686882602385e-06
1.683841920960480252e+02 9.420279533515378486e-06
1.692846423211605611e+02 9.106359816059943348e-06
1.701850925462731254e+02 8.878400116718466458e-06
1.710855427713856898e+02 8.786563769771225238e-06
1.719859929964982541e+02 8.866362858620965872e-06
1.728864432216107900e+02 9.128547857522705932e-06
1.737868934467233544e+02 9.527298758628141185e-06
1.746873436718359187e+02 1.001401780066537186e-05
1.755877938969484546e+02 1.056432895265547031e-05
1.764882441220610190e+02 1.112149722647341015e-05
1.773886943471735833e+02 1.161960183538607728e-05
1.782891445722861476e+02 1.200850845596077693e-05
1.791895947973986836e+02 1.223647022871597712e-05
1.800900450225112479e+02 1.227705550150318330e-05
1.809904952476238122e+02 1.218578376966247904e-05
1.818909454727363482e+02 1.206553096542740300e-05
1.827913956978489125e+02 1.194743529519516230e-05
1.836918459229614768e+02 1.179169325689569266e-05
1.845922961480740412e+02 1.159338192640131798e-05
1.854927463731865771e+02 1.143760469422854544e-05
1.863931965982991414e+02 1.140924450699863262e-05
1.872936468234117058e+02 1.154543773259528682e-05
1.881940970485242417e+02 1.182977289891919884e-05
1.890945472736368060e+02 1.215339726896424813e-05
1.899949974987493704e+02 1.240291785235750914e-05
1.908954477238619347e+02 1.254468945755691031e-05
1.917958979489744706e+02 1.253073256478093824e-05
1.926963481740870350e+02 1.231646783856179392e-05
1.935967983991995993e+02 1.198510357804953522e-05
1.944972486243121352e+02 1.169666298276933032e-05
1.953976988494246996e+02 1.156059775716733996e-05
1.962981490745372639e+02 1.160891502961988426e-05
1.971985992996498283e+02 1.176165326122715068e-05
1.980990495247623642e+02 1.185855246325267023e-05
1.989994997498749285e+02 1.183691040318363828e-05
1.998999499749874929e+02 1.173473037066954599e-05
2.008004002001000288e+02 1.154994879336937033e-05
2.017008504252125931e+02 1.127357885154705833e-05
2.026013006503251574e+02 1.095252097600413058e-05
2.035017508754377218e+02 1.066722687073750944e-05
2.044022011005502577e+02 1.048852596911966130e-05
2.053026513256628220e+02 1.045567565447799985e-05
2.062031015507753864e+02 1.058839019928625377e-05
2.071035517758879223e+02 1.089221633362416793e-05
2.080040020010004866e+02 1.132348880022158140e-05
2.089044522261130510e+02 1.177909122456770683e-05
2.098049024512256153e+02 1.216132626016917101e-05
2.107053526763381512e+02 1.244330461032009580e-05
2.116058029014507156e+02 1.268107496069639007e-05
2.125062531265632799e+02 1.292909734409592321e-05
2.134067033516758158e+02 1.320668556956372136e-05
2.143071535767883802e+02 1.352084524051001717e-05
2.152076038019009445e+02 1.385834613289242714e-05
2.161080540270135089e+02 1.418763708973936202e-05
2.170085042521260448e+02 1.445147315954502354e-05
2.179089544772386091e+02 1.456009744258596001e-05
2.188094047023511735e+02 1.446960206697930138e-05
2.197098549274637094e+02 1.425981799766669476e-05
2.206103051525762737e+02 1.402989537928661434e-05
2.215107553776888381e+02 1.384332550429933579e-05
2.224112056028014024e+02 1.371023376861979871e-05
2.233116558279139383e+02 1.357090100472209029e-05
2.242121060530265027e+02 1.339508511822867803e-05
2.251125562781390670e+02 1.319991564549366301e-05
2.260130065032516029e+02 1.304827821880301481e-05
2.269134567283641672e+02 1.298575091985564789e-05
2.278139069534767316e+02 1.296911184235460571e-05
2.287143571785892959e+02 1.298041777424207836e-05
2.296148074037018318e+02 1.306906661833463792e-05
2.305152576288143962e+02 1.322322513448280856e-05
2.314157078539269605e+02 1.335094757329006731e-05
2.323161580790394964e+02 1.338168872149396694e-05
2.332166083041520608e+02 1.335335357173306652e-05
2.341170585292646251e+02 1.335146357062680414e-05
2.350175087543771895e+02 1.335122276571947535e-05
2.359179589794897254e+02 1.324848988301705174e-05
2.368184092046022897e+02 1.304879622255293502e-05
2.377188594297148541e+02 1.286812237405945974e-05
2.386193096548273900e+02 1.279807317554479816e-05
2.395197598799399543e+02 1.287505383449973908e-05
2.404202101050525187e+02 1.305137318557126414e-05
2.413206603301650830e+02 1.317858792703795412e-05
2.422211105552776189e+02 1.314442482028996365e-05
2.431215607803901833e+02 1.296970639974119927e-05
2.440220110055027476e+02 1.271423327962099827e-05
2.449224612306152835e+02 1.244776090229088161e-05
2.458229114557278479e+02 1.224337702921932897e-05
2.467233616808404122e+02 1.214080528320689508e-05
2.476238119059529765e+02 1.212956707660578641e-05
2.485242621310655124e+02 1.215825290125430836e-05
2.494247123561780768e+02 1.222059316936600340e-05
2.503251625812906411e+02 1.233819979228507992e-05
2.512256128064031770e+02 1.250667065708699771e-05
2.521260630315157414e+02 1.275794665165705044e-05
2.530265132566283057e+02 1.312197473305680334e-05
2.539269634817408701e+02 1.353730005560256808e-05
2.548274137068534060e+02 1.388770747519937985e-05
2.557278639319659703e+02 1.404051634036758017e-05
2.566283141570785347e+02 1.391444082173437829e-05
2.575287643821910706e+02 1.355572826804360623e-05
2.584292146073036633e+02 1.309301258784032261e-05
2.593296648324161993e+02 1.268194064666522064e-05
2.602301150575287352e+02 1.243078325104615225e-05
2.611305652826413279e+02 1.235746843258422795e-05
2.620310155077538639e+02 1.244983411269985830e-05
2.629314657328663998e+02 1.269529418980371760e-05
2.638319159579789925e+02 1.304281092061388680e-05
2.647323661830915285e+02 1.335292379259006729e-05
2.656328164082040644e+02 1.346731901836387684e-05
2.665332666333166571e+02 1.341232523667172419e-05
2.674337168584291931e+02 1.336614535532032680e-05
2.683341670835417858e+02 1.344258334086659260e-05
2.692346173086543217e+02 1.361832308613654321e-05
2.701350675337668577e+02 1.384295279736101904e-05
2.710355177588794504e+02 1.412196164387237230e-05
2.719359679839919863e+02 1.443553010176521288e-05
2.728364182091045222e+02 1.473548377390183015e-05
2.737368684342171150e+02 1.500294066550251372e-05
2.746373186593296509e+02 1.530480414886071486e-05
2.755377688844421868e+02 1.572187781235420182e-05
2.764382191095547796e+02 1.623047143098148057e-05
2.773386693346673155e+02 1.675677096365537060e-05
2.782391195597798514e+02 1.717628847449473214e-05
2.791395697848924442e+02 1.736096148399819236e-05
2.800400200100049801e+02 1.734385097829125474e-05
2.809404702351175729e+02 1.729625577348359850e-05
2.818409204602301088e+02 1.734644259424455851e-05
2.827413706853426447e+02 1.747937065056347420e-05
2.836418209104552375e+02 1.757310429651979093e-05
2.845422711355677734e+02 1.751480725556061739e-05
2.854427213606803093e+02 1.728024444861911971e-05
2.863431715857929021e+02 1.690594264644091041e-05
2.872436218109054380e+02 1.644750151587314884e-05
2.881440720360179739e+02 1.599410240150450174e-05
2.890445222611305667e+02 1.564683844341740901e-05
2.899449724862431026e+02 1.546233386750968036e-05
2.908454227113556385e+02 1.546504380084066561e-05
2.917458729364682313e+02 1.565147999614282485e-05
2.926463231615807672e+02 1.597615374471597106e-05
2.935467733866933600e+02 1.643528909931341866e-05
2.944472236118058959e+02 1.703986724528553797e-05
2.953476738369184318e+02 1.769151240205808087e-05
2.962481240620310246e+02 1.820230533447324690e-05
2.971485742871435605e+02 1.845919843860503972e-05
2.980490245122560964e+02 1.846953165424159221e-05
2.989494747373686891e+02 1.828684887452480809e-05
2.998499249624812251e+02 1.802997807470494321e-05
3.007503751875937610e+02 1.781018620159902126e-05
3.016508254127063537e+02 1.771182465208491383e-05
3.025512756378188897e+02 1.785689255023808778e-05
3.034517258629314256e+02 1.831415192212051141e-05
3.043521760880440183e+02 1.903690637365861718e-05
3.052526263131565543e+02 1.988965044974087818e-05
3.061530765382691470e+02 2.065637188652464713e-05
3.070535267633816829e+02 2.113105035576613158e-05
3.079539769884942189e+02 2.125894226230813202e-05
3.088544272136068116e+02 2.112268274300799513e-05
3.097548774387193475e+02 2.085990037313513684e-05
3.106553276638318835e+02 2.058849819999923993e-05
3.115557778889444762e+02 2.036833021307635038e-05
3.124562281140570121e+02 2.027992510556093266e-05
3.133566783391695481e+02 2.040354049723823164e-05
3.142571285642821408e+02 2.075832614010182301e-05
3.151575787893946767e+02 2.121528021631260619e-05
3.160580290145072127e+02 2.152088256972640851e-05
3.169584792396198054e+02 2.156030980256071447e-05
3.178589294647323413e+02 2.149508635129968658e-05
3.187593796898449341e+02 2.161862520607347519e-05
3.196598299149574700e+02 2.213839193556131068e-05
3.205602801400700059e+02 2.299861205348655596e-05
3.214607303651825987e+02 2.386841984107678302e-05
3.223611805902951346e+02 2.436343554216653169e-05
3.232616308154076705e+02 2.441543829025923172e-05
3.241620810405202633e+02 2.424579904598052094e-05
3.250625312656327992e+02 2.411511900302837745e-05
3.259629814907453351e+02 2.412838186979132218e-05
3.268634317158579279e+02 2.421252688866323439e-05
3.277638819409704638e+02 2.428948193447184650e-05
3.286643321660829997e+02 2.437418608119732664e-05
3.295647823911955925e+02 2.448720763827535592e-05
3.304652326163081284e+02 2.461335191279198062e-05
3.313656828414207212e+02 2.475794911185837780e-05
3.322661330665332571e+02 2.492571431909905883e-05
3.331665832916457930e+02 2.507563969199761103e-05
3.340670335167583858e+02 2.514125702732889975e-05
3.349674837418709217e+02 2.509494526816710304e-05
3.358679339669834576e+02 2.502012311446545154e-05
3.367683841920960504e+02 2.503918311972186199e-05
3.376688344172085863e+02 2.518440884534451670e-05
3.385692846423211222e+02 2.538247806447306421e-05
3.394697348674337150e+02 2.551782524198548498e-05
3.403701850925462509e+02 2.543127305871158500e-05
3.412706353176587868e+02 2.503109725474015468e-05
3.421710855427713796e+02 2.444819538880169273e-05
3.430715357678839155e+02 2.392046293481454451e-05
3.439719859929965082e+02 2.356215477364404114e-05
3.448724362181090441e+02 2.338211566050535403e-05
3.457728864432215801e+02 2.345151877111467160e-05
3.466733366683341728e+02 2.388733711305542754e-05
3.475737868934467087e+02 2.464900718920852549e-05
3.484742371185592447e+02 2.548353842525135786e-05
3.493746873436718374e+02 2.621232459724105957e-05
3.502751375687843733e+02 2.686096688514733887e-05
3.511755877938969093e+02 2.743024724932278493e-05
3.520760380190095020e+02 2.781130809658656158e-05
3.529764882441220379e+02 2.793090715257026769e-05
3.538769384692345739e+02 2.785047105265770162e-05
3.547773886943471666e+02 2.773834663854793801e-05
3.556778389194597025e+02 2.768535568036313598e-05
3.565782891445722953e+02 2.761094766689135236e-05
3.574787393696848312e+02 2.747144852311460275e-05
3.583791895947973671e+02 2.729548405030904693e-05
3.592796398199099599e+02 2.704305934906908076e-05
3.601800900450224958e+02 2.673307839808354000e-05
3.610805402701350317e+02 2.646527333197250525e-05
3.619809904952476245e+02 2.630536170493286084e-05
3.628814407203601604e+02 2.625952917300677515e-05
3.637818909454726963e+02 2.620482797149183238e-05
3.646823411705852891e+02 2.596094214703773576e-05
3.655827913956978250e+02 2.552981403154221511e-05
3.664832416208103609e+02 2.502550031986432633e-05
3.673836918459229537e+02 2.447662893238347544e-05
3.682841420710354896e+02 2.392569260786391291e-05
3.691845922961480824e+02 2.349926138596100170e-05
3.700850425212606183e+02 2.322229519553936435e-05
3.709854927463731542e+02 2.295768334083861655e-05
3.718859429714857470e+02 2.263167427664208989e-05
3.727863931965982829e+02 2.230948826919972627e-05
3.736868434217108188e+02 2.207262636409320638e-05
3.745872936468234116e+02 2.195509981478024994e-05
3.754877438719359475e+02 2.194423026668108754e-05
3.763881940970484834e+02 2.202909144569512766e-05
3.772886443221610762e+02 2.220498576376208754e-05
3.781890945472736121e+02 2.240641668850409373e-05
3.790895447723861480e+02 2.254012547187084659e-05
3.799899949974987408e+02 2.256436612798787161e-05
3.808904452226112767e+02 2.253723202183341857e-05
3.817908954477238694e+02 2.260964572234097731e-05
3.826913456728364054e+02 2.290859111521390080e-05
3.835917958979489413e+02 2.348758572787657133e-05
3.844922461230615340e+02 2.427219488951916585e-05
3.853926963481740700e+02 2.504283671248730859e-05
3.862931465732866059e+02 2.557725558871418021e-05
3.871935967983991986e+02 2.586981726684632970e-05
3.880940470235117346e+02 2.605238993242839466e-05
3.889944972486242705e+02 2.609216018830756850e-05
3.898949474737368632e+02 2.579793591993070827e-05
3.907953976988493991e+02 2.517708642771040303e-05
3.916958479239619351e+02 2.447190579928356781e-05
3.925962981490745278e+02 2.386331726081748612e-05
3.934967483741870637e+02 2.335729484159035845e-05
3.943971985992996565e+02 2.289944287972852868e-05
3.952976488244121924e+02 2.246016179855336772e-05
3.961980990495247283e+02 2.205832153097506045e-05
3.970985492746373211e+02 2.177840056578890952e-05
3.979989994997498570e+02 2.171125575103762613e-05
3.988994497248623929e+02 2.185507889209918953e-05
3.997998999499749857e+02 2.211937987088127125e-05
4.007003501750875216e+02 2.243067546705574606e-05
4.016008004002000575e+02 2.270845515997828410e-05
4.025012506253126503e+02 2.285172236808816589e-05
4.034017008504251862e+02 2.277623296094014035e-05
4.043021510755377221e+02 2.249291233419125781e-05
4.052026013006503149e+02 2.214592814038497480e-05
4.061030515257628508e+02 2.184676826166715422e-05
4.070035017508754436e+02 2.156918111049401627e-05
4.079039519759879795e+02 2.130344050774756726e-05
4.088044022011005154e+02 2.106292895752646176e-05
4.097048524262131082e+02 2.077521302444492308e-05
4.106053026513256441e+02 2.043103745246245166e-05
4.115057528764381800e+02 2.016718628173112782e-05
4.124062031015507728e+02 2.005582935600109826e-05
4.133066533266633087e+02 2.003149783770445620e-05
4.142071035517758446e+02 2.001708780146446148e-05
4.151075537768884374e+02 1.998414774256746505e-05
4.160080040020009733e+02 1.995050118791867838e-05
4.169084542271135092e+02 1.992535944554956091e-05
4.178089044522261020e+02 1.986218704294003586e-05
4.187093546773386379e+02 1.974466129059538878e-05
4.196098049024512306e+02 1.966374993990240887e-05
4.205102551275637666e+02 1.974304904845674362e-05
4.214107053526763025e+02 2.003835293091194659e-05
4.223111555777888952e+02 2.052387999958751232e-05
4.232116058029014312e+02 2.108939785131137522e-05
4.241120560280139671e+02 2.153989438709747600e-05
4.250125062531265598e+02 2.175406877003623757e-05
4.259129564782390958e+02 2.184274371863937909e-05
4.268134067033516317e+02 2.200527593398840008e-05
4.277138569284642244e+02 2.231252999873505012e-05
4.286143071535767604e+02 2.272086393811552498e-05
4.295147573786892963e+02 2.318824493853475173e-05
4.304152076038018890e+02 2.367323605710620313e-05
4.313156578289144250e+02 2.401234654224283853e-05
4.322161080540270177e+02 2.401149447884837134e-05
4.331165582791395536e+02 2.371308345700585092e-05
4.340170085042520896e+02 2.332669108120127445e-05
4.349174587293646823e+02 2.298437608659383233e-05
4.358179089544772182e+02 2.273381290082600252e-05
4.367183591795897541e+02 2.259852107410473534e-05
4.376188094047023469e+02 2.249886590381884236e-05
4.385192596298148828e+02 2.230045072021293238e-05
4.394197098549274187e+02 2.202893818344091477e-05
4.403201600800400115e+02 2.185084986514211012e-05
4.412206103051525474e+02 2.187866136872769691e-05
4.421210605302650833e+02 2.205949939750421554e-05
4.430215107553776761e+02 2.223910585331822538e-05
4.439219609804902120e+02 2.232659771801063812e-05
4.448224112056028048e+02 2.233410116313697312e-05
4.457228614307153407e+02 2.227727293240248189e-05
4.466233116558278766e+02 2.215897196466660931e-05
4.475237618809404694e+02 2.202957753940896520e-05
4.484242121060530053e+02 2.194990911790480021e-05
4.493246623311655412e+02 2.195650331666201420e-05
4.502251125562781340e+02 2.201577046147167589e-05
4.511255627813906699e+02 2.202283086696342653e-05
4.520260130065032058e+02 2.199670343527346088e-05
4.529264632316157986e+02 2.210277897658346967e-05
4.538269134567283345e+02 2.238601753314601537e-05
4.547273636818408704e+02 2.271379194653325501e-05
4.556278139069534632e+02 2.297164244839027745e-05
4.565282641320659991e+02 2.308020286864478809e-05
4.574287143571785919e+02 2.300133133677784440e-05
4.583291645822911278e+02 2.286819595784104391e-05
4.592296148074036637e+02 2.288629557961914795e-05
4.601300650325162565e+02 2.310575679410457352e-05
4.610305152576287924e+02 2.343001909845622270e-05
4.619309654827413283e+02 2.372321233813645680e-05
4.628314157078539210e+02 2.382084202790118286e-05
4.637318659329664570e+02 2.365337154744748390e-05
4.646323161580789929e+02 2.335567472469531755e-05
4.655327663831915856e+02 2.310119982656260945e-05
4.664332166083041216e+02 2.295687727626795856e-05
4.673336668334167143e+02 2.291660984811328498e-05
4.682341170585292502e+02 2.292632510159823024e-05
4.691345672836417862e+02 2.291136635688229838e-05
4.700350175087543789e+02 2.284379897466988323e-05
4.709354677338669148e+02 2.275866447308955899e-05
4.718359179589794508e+02 2.269747980159535558e-05
4.727363681840920435e+02 2.271766260019882579e-05
4.736368184092045794e+02 2.288278603123901781e-05
4.745372686343171154e+02 2.320210454199792130e-05
4.754377188594297081e+02 2.368563998336638214e-05
4.763381690845422440e+02 2.429768321508967124e-05
4.772386193096547800e+02 2.486704186088345019e-05
4.781390695347673727e+02 2.532131432002184709e-05
4.790395197598799086e+02 2.573470988445311194e-05
4.799399699849925014e+02 2.612599907756186932e-05
4.808404202101050373e+02 2.649959287187871496e-05
4.817408704352175732e+02 2.676563227398289416e-05
4.826413206603301660e+02 2.677641485329626964e-05
4.835417708854427019e+02 2.652526985592754892e-05
4.844422211105552378e+02 2.609432653916328085e-05
4.853426713356678306e+02 2.557045525942423203e-05
4.862431215607803665e+02 2.502704650272389190e-05
4.871435717858929024e+02 2.458460791043638985e-05
4.880440220110054952e+02 2.435167346745261685e-05
4.889444722361180311e+02 2.434588548056862759e-05
4.898449224612305670e+02 2.451667799240570426e-05
4.907453726863431598e+02 2.476380056812355619e-05
4.916458229114556957e+02 2.498204462214292424e-05
4.925462731365682885e+02 2.512527215829257009e-05
4.934467233616808244e+02 2.519492025167908224e-05
4.943471735867933603e+02 2.521909840340311220e-05
4.952476238119059531e+02 2.523098241825900815e-05
4.961480740370184890e+02 2.524933299798965802e-05
4.970485242621310249e+02 2.529711042618326482e-05
4.979489744872436177e+02 2.542166267597606346e-05
4.988494247123561536e+02 2.566141232713357116e-05
4.997498749374686895e+02 2.595021706436443870e-05
5.006503251625812823e+02 2.609376448263554709e-05
5.015507753876938182e+02 2.598744178963204526e-05
5.024512256128063541e+02 2.574644124253631415e-05
5.033516758379189469e+02 2.557904088777865367e-05
5.042521260630314828e+02 2.562863248605735264e-05
5.051525762881440755e+02 2.586049697056855203e-05
5.060530265132566115e+02 2.614246548349978273e-05
5.069534767383691474e+02 2.642775061449815219e-05
5.078539269634817401e+02 2.675575133209568738e-05
5.087543771885942760e+02 2.708549617758677203e-05
5.096548274137068120e+02 2.726954449350040325e-05
5.105552776388194047e+02 2.724403489305931328e-05
5.114557278639319406e+02 2.711552117698349461e-05
5.123561780890445334e+02 2.708475990584409120e-05
5.132566283141570693e+02 2.728277376244176434e-05
5.141570785392696052e+02 2.765261232734150302e-05
5.150575287643821412e+02 2.808881718721007104e-05
5.159579789894946771e+02 2.852720524150948023e-05
5.168584292146073267e+02 2.887778457126314934e-05
5.177588794397198626e+02 2.902516646222151356e-05
5.186593296648323985e+02 2.893491910842553496e-05
5.195597798899449344e+02 2.875342289824959574e-05
5.204602301150574704e+02 2.873095793819486709e-05
5.213606803401700063e+02 2.902656588678939254e-05
5.222611305652826559e+02 2.957680889594299422e-05
5.231615807903951918e+02 3.013356013852011532e-05
5.240620310155077277e+02 3.049449975200632814e-05
5.249624812406202636e+02 3.065433595756768872e-05
5.258629314657327996e+02 3.076794540004564846e-05
5.267633816908454492e+02 3.095553332616641688e-05
5.276638319159579851e+02 3.120088720343489042e-05
5.285642821410705210e+02 3.149116416286703007e-05
5.294647323661830569e+02 3.185718751842452480e-05
5.303651825912955928e+02 3.227012284165334081e-05
5.312656328164081287e+02 3.263568130630799610e-05
5.321660830415207784e+02 3.291359374821119585e-05
5.330665332666333143e+02 3.315298930179443992e-05
5.339669834917458502e+02 3.336141263917478380e-05
5.348674337168583861e+02 3.351831350991182456e-05
5.357678839419709220e+02 3.370268981536983413e-05
5.366683341670835716e+02 3.401918323787663461e-05
5.375687843921961075e+02 3.453753968162560619e-05
5.384692346173086435e+02 3.522253560295425003e-05
5.393696848424211794e+02 3.592457960574134900e-05
5.402701350675337153e+02 3.650424372820388724e-05
5.411705852926462512e+02 3.694048449657431150e-05
5.420710355177589008e+02 3.732822371466904904e-05
5.429714857428714367e+02 3.781900911559151959e-05
5.438719359679839727e+02 3.849991779501346943e-05
5.447723861930965086e+02 3.927131841877359105e-05
5.456728364182090445e+02 3.993350593013827716e-05
5.465732866433215804e+02 4.041625782093594718e-05
5.474737368684342300e+02 4.082630506518039089e-05
5.483741870935467659e+02 4.124974522435805746e-05
5.492746373186593019e+02 4.164572559396142564e-05
5.501750875437718378e+02 4.194279153061230712e-05
5.510755377688843737e+02 4.208189634219127855e-05
5.519759879939970233e+02 4.194277607059241904e-05
5.528764382191095592e+02 4.149624520391960485e-05
5.537768884442220951e+02 4.096203624767367075e-05
5.546773386693346310e+02 4.058591086899102399e-05
5.555777888944471670e+02 4.046113422332854858e-05
5.564782391195597029e+02 4.059679575016742864e-05
5.573786893446723525e+02 4.095936958749506055e-05
5.582791395697848884e+02 4.147184450048884980e-05
5.591795897948974243e+02 4.199385160850688757e-05
5.600800400200099602e+02 4.230963490331816998e-05
5.609804902451224962e+02 4.223696008333818210e-05
5.618809404702351458e+02 4.182762495381869394e-05
5.627813906953476817e+02 4.134592020210287576e-05
5.636818409204602176e+02 4.101892825404890238e-05
5.645822911455727535e+02 4.088724981429545368e-05
5.654827413706852894e+02 4.083719295601844791e-05
5.663831915957978254e+02 4.076843303413749228e-05
5.672836418209104750e+02 4.065420155307556077e-05
5.681840920460230109e+02 4.046867505361751008e-05
5.690845422711355468e+02 4.020625965542543056e-05
5.699849924962480827e+02 3.998203073714741022e-05
5.708854427213606186e+02 3.992088056194402349e-05
5.717858929464731546e+02 3.999797752503644470e-05
5.726863431715858042e+02 4.010850436385875889e-05
5.735867933966983401e+02 4.013342283514396351e-05
5.744872436218108760e+02 3.997752463685303132e-05
5.753876938469234119e+02 3.965526787549456482e-05
5.762881440720359478e+02 3.931874708358525398e-05
5.771885942971485974e+02 3.917756209025670546e-05
5.780890445222611334e+02 3.927964395662781634e-05
5.789894947473736693e+02 3.946392377689109381e-05
5.798899449724862052e+02 3.954770976638166718e-05
5.807903951975987411e+02 3.944596802450227172e-05
5.816908454227112770e+02 3.916282765872326348e-05
5.825912956478239266e+02 3.866280990240995202e-05
5.834917458729364625e+02 3.796957309732446777e-05
5.843921960980489985e+02 3.726684398478394831e-05
5.852926463231615344e+02 3.679298786649974580e-05
5.861930965482740703e+02 3.670055130599989999e-05
5.870935467733867199e+02 3.695009832274340368e-05
5.879939969984992558e+02 3.731301171277448813e-05
5.888944472236117917e+02 3.747837939847336794e-05
5.897948974487243277e+02 3.731794083681336602e-05
5.906953476738368636e+02 3.701001567540671211e-05
5.915957978989493995e+02 3.677062258111708749e-05
5.924962481240620491e+02 3.655763091878636776e-05
5.933966983491745850e+02 3.620270785874640730e-05
5.942971485742871209e+02 3.574787004237438341e-05
5.951975987993996569e+02 3.535189265429843438e-05
5.960980490245121928e+02 3.505533837183931223e-05
5.969984992496247287e+02 3.480719966932539934e-05
5.978989494747373783e+02 3.455173957853851569e-05
5.987993996998499142e+02 3.435252450074096801e-05
5.996998499249624501e+02 3.436463612866300847e-05
6.006003001500749860e+02 3.465072231175985828e-05
6.015007503751875220e+02 3.508291580380696895e-05
6.024012006003001716e+02 3.538734196466149478e-05
6.033016508254127075e+02 3.537167662359628079e-05
6.042021010505252434e+02 3.505803088541254966e-05
6.051025512756377793e+02 3.455446807413410068e-05
6.060030015007503152e+02 3.404684403557760070e-05
6.069034517258628512e+02 3.372596961811574453e-05
6.078039019509755008e+02 3.358952632652525023e-05
6.087043521760880367e+02 3.346525374217582257e-05
6.096048024012005726e+02 3.318664563092738648e-05
6.105052526263131085e+02 3.273743863329530958e-05
6.114057028514256444e+02 3.227186421643591865e-05
6.123061530765382940e+02 3.193920976977058493e-05
6.132066033016508300e+02 3.176341373144038406e-05
6.141070535267633659e+02 3.170761406766485371e-05
6.150075037518759018e+02 3.174851603184368845e-05
6.159079539769884377e+02 3.181325910582855765e-05
6.168084042021009736e+02 3.183588559113048746e-05
6.177088544272136232e+02 3.181029559857139285e-05
6.186093046523261592e+02 3.171363781565995340e-05
6.195097548774386951e+02 3.154612167952802488e-05
6.204102051025512310e+02 3.138025770837207909e-05
6.213106553276637669e+02 3.130970077831091733e-05
6.222111055527763028e+02 3.133634538873903883e-05
6.231115557778889524e+02 3.130229700019968828e-05
6.240120060030014884e+02 3.099566201785675703e-05
6.249124562281140243e+02 3.041326404471900334e-05
6.258129064532265602e+02 2.972188085826437656e-05
6.267133566783390961e+02 2.911761405669345556e-05
6.276138069034517457e+02 2.880102278715352960e-05
6.285142571285642816e+02 2.885396148497472300e-05
6.294147073536768175e+02 2.920339174302954028e-05
6.303151575787893535e+02 2.968702684551440351e-05
6.312156078039018894e+02 3.013885046990838712e-05
6.321160580290144253e+02 3.043614515832268692e-05
6.330165082541270749e+02 3.051900870796612141e-05
6.339169584792396108e+02 3.045795869262920582e-05
6.348174087043521467e+02 3.035444049493842865e-05
6.357178589294646827e+02 3.020705408386749853e-05
6.366183091545772186e+02 2.996121176139305818e-05
6.375187593796898682e+02 2.961362052622653200e-05
6.384192096048024041e+02 2.924525577473127493e-05
6.393196598299149400e+02 2.895465426681893926e-05
6.402201100550274759e+02 2.881178094228864565e-05
6.411205602801400119e+02 2.881909770218010996e-05
6.420210105052525478e+02 2.891041792243459376e-05
6.429214607303651974e+02 2.898597200832214618e-05
6.438219109554777333e+02 2.900644263539650924e-05
6.447223611805902692e+02 2.900382664432472164e-05
6.456228114057028051e+02 2.895965476497689889e-05
6.465232616308153411e+02 2.885818656437186532e-05
6.474237118559278770e+02 2.871316760373439971e-05
6.483241620810405266e+02 2.854326849172270810e-05
6.492246123061530625e+02 2.840430354770465300e-05
6.501250625312655984e+02 2.831977266090592019e-05
6.510255127563781343e+02 2.828999686332486121e-05
6.519259629814906702e+02 2.834863772493878862e-05
6.528264132066033198e+02 2.848675019760474957e-05
6.537268634317158558e+02 2.861298436930194845e-05
6.546273136568283917e+02 2.866027893286916261e-05
6.555277638819409276e+02 2.869205375604238180e-05
6.564282141070534635e+02 2.876506775306012019e-05
6.573286643321659994e+02 2.881683294870375441e-05
6.582291145572786490e+02 2.882312191100557070e-05
6.591295647823911850e+02 2.885738931508264197e-05
6.600300150075037209e+02 2.894387623707919257e-05
6.609304652326162568e+02 2.901248368558840716e-05
6.618309154577287927e+02 2.900254014821667620e-05
6.627313656828414423e+02 2.885648442329366009e-05
6.636318159079539782e+02 2.856671270082881107e-05
6.645322661330665142e+02 2.825978086900932752e-05
6.654327163581790501e+02 2.803904392887564368e-05
6.663331665832915860e+02 2.788661119537987735e-05
6.672336168084041219e+02 2.776051684159864478e-05
6.681340670335167715e+02 2.766914606027595373e-05
6.690345172586293074e+02 2.764915207801504619e-05
6.699349674837418434e+02 2.768808563852392446e-05
6.708354177088543793e+02 2.770323573114832845e-05
6.717358679339669152e+02 2.763137382266475184e-05
6.726363181590794511e+02 2.748557328339864300e-05
6.735367683841921007e+02 2.727834121816133988e-05
6.744372186093046366e+02 2.699086352679081816e-05
6.753376688344171725e+02 2.665650371027960619e-05
6.762381190595297085e+02 2.636699877378923039e-05
6.771385692846422444e+02 2.620070464392327156e-05
6.780390195097548940e+02 2.620023777781974877e-05
6.789394697348674299e+02 2.635210914762630200e-05
6.798399199599799658e+02 2.658479431885985440e-05
6.807403701850925017e+02 2.681259457262177550e-05
6.816408204102050377e+02 2.691803033073659186e-05
6.825412706353175736e+02 2.682726578665792688e-05
6.834417208604302232e+02 2.664812965571161565e-05
6.843421710855427591e+02 2.654188648011303911e-05
6.852426213106552950e+02 2.655066463806575306e-05
6.861430715357678309e+02 2.666519673876585576e-05
6.870435217608803669e+02 2.688400567705014410e-05
6.879439719859930165e+02 2.721211409074858058e-05
6.888444222111055524e+02 2.767108084272063004e-05
6.897448724362180883e+02 2.825181147453672008e-05
6.906453226613306242e+02 2.885948125274843975e-05
6.915457728864431601e+02 2.932702296521483545e-05
6.924462231115556961e+02 2.951360264613003085e-05
6.933466733366683457e+02 2.938924119520688972e-05
6.942471235617808816e+02 2.903774622722616702e-05
6.951475737868934175e+02 2.863308598062874651e-05
6.960480240120059534e+02 2.831880240860867287e-05
6.969484742371184893e+02 2.811413092866375308e-05
6.978489244622311389e+02 2.797665670601724434e-05
6.987493746873436749e+02 2.787762685829025568e-05
6.996498249124562108e+02 2.780389449207899325e-05
7.005502751375687467e+02 2.772236837576659029e-05
7.014507253626812826e+02 2.767146921777828238e-05
7.023511755877938185e+02 2.776361416740135541e-05
7.032516258129064681e+02 2.806161273247667626e-05
7.041520760380190040e+02 2.854002786579772048e-05
7.050525262631315400e+02 2.908224888944364853e-05
7.059529764882440759e+02 2.954250771091608378e-05
7.068534267133566118e+02 2.978696277499994470e-05
7.077538769384691477e+02 2.971650630053116799e-05
7.086543271635817973e+02 2.936689662915444073e-05
7.095547773886943332e+02 2.895424473550335513e-05
7.104552276138068692e+02 2.868328058026882682e-05
7.113556778389194051e+02 2.860832490694941265e-05
7.122561280640319410e+02 2.866328909745416320e-05
7.131565782891445906e+02 2.871796615658984473e-05
7.140570285142571265e+02 2.870455451949817171e-05
7.149574787393696624e+02 2.866649989492745760e-05
7.158579289644821984e+02 2.865265162011500290e-05
7.167583791895947343e+02 2.867526768602118558e-05
7.176588294147072702e+02 2.874083853304711206e-05
7.185592796398199198e+02 2.891083221734458371e-05
7.194597298649324557e+02 2.924619249514464868e-05
7.203601800900449916e+02 2.969842044325294252e-05
7.212606303151575275e+02 3.013746030967686974e-05
7.221610805402700635e+02 3.041513695212040973e-05
7.230615307653827131e+02 3.049704044820213992e-05
7.239619809904952490e+02 3.050749640927723105e-05
7.248624312156077849e+02 3.056708009643907114e-05
7.257628814407203208e+02 3.063542685041373959e-05
7.266633316658328567e+02 3.058038663209952733e-05
7.275637818909453927e+02 3.036837762607855087e-05
7.284642321160580423e+02 3.016565980735769637e-05
7.293646823411705782e+02 3.013593900676555092e-05
7.302651325662831141e+02 3.029042934493541772e-05
7.311655827913956500e+02 3.055737312527938418e-05
7.320660330165081859e+02 3.087125138739662010e-05
7.329664832416207219e+02 3.131361600054778123e-05
7.338669334667333715e+02 3.204912058120004497e-05
7.347673836918459074e+02 3.305239879416305826e-05
7.356678339169584433e+02 3.403892411353732892e-05
7.365682841420709792e+02 3.476167585322444082e-05
7.374687343671835151e+02 3.520091379146373625e-05
7.383691845922961647e+02 3.548759135547493115e-05
7.392696348174087007e+02 3.574761470230282775e-05
7.401700850425212366e+02 3.602843228138074996e-05
7.410705352676337725e+02 3.634053909707272230e-05
7.419709854927463084e+02 3.662839178794900959e-05
7.428714357178588443e+02 3.677165231320228496e-05
7.437718859429714939e+02 3.678655234073437819e-05
7.446723361680840299e+02 3.678929037343353940e-05
7.455727863931965658e+02 3.679040367952374636e-05
7.464732366183091017e+02 3.676438019080484587e-05
7.473736868434216376e+02 3.673610270734012552e-05
7.482741370685342872e+02 3.669190177619900683e-05
7.491745872936468231e+02 3.661029029878559016e-05
7.500750375187593590e+02 3.659909910327684065e-05
7.509754877438718950e+02 3.671525333969122214e-05
7.518759379689844309e+02 3.674102857334739578e-05
7.527763881940969668e+02 3.652242183748042676e-05
7.536768384192096164e+02 3.623595169171472068e-05
7.545772886443221523e+02 3.609752233913918976e-05
7.554777388694346882e+02 3.617495295893018099e-05
7.563781890945472242e+02 3.644410475179938962e-05
7.572786393196597601e+02 3.685335339161988267e-05
7.581790895447722960e+02 3.725861905609408742e-05
7.590795397698849456e+02 3.740434119202680333e-05
7.599799899949974815e+02 3.720906131917638956e-05
7.608804402201100174e+02 3.676493087115739397e-05
7.617808904452225534e+02 3.614956108144064945e-05
7.626813406703350893e+02 3.552522129923898044e-05
7.635817908954477389e+02 3.509392701827813082e-05
7.644822411205602748e+02 3.499727192882905397e-05
7.653826913456728107e+02 3.531938284885172022e-05
7.662831415707853466e+02 3.599809566477124009e-05
7.671835917958978825e+02 3.680882454344656555e-05
7.680840420210104185e+02 3.748633959006913183e-05
7.689844922461230681e+02 3.778471835316388232e-05
7.698849424712356040e+02 3.758309064862099729e-05
7.707853926963481399e+02 3.709297208628774999e-05
7.716858429214606758e+02 3.667885766472536279e-05
7.725862931465732117e+02 3.658459930740969593e-05
7.734867433716858613e+02 3.690054939183493846e-05
7.743871935967983973e+02 3.752851940316533839e-05
7.752876438219109332e+02 3.825754619179906081e-05
7.761880940470234691e+02 3.895677861908799139e-05
7.770885442721360050e+02 3.957184128070005593e-05
7.779889944972485409e+02 4.003645816968987833e-05
7.788894447223611905e+02 4.031123226656891425e-05
7.797898949474737265e+02 4.039482763847781170e-05
7.806903451725862624e+02 4.030092828960893565e-05
7.815907953976987983e+02 4.005588403733063261e-05
7.824912456228113342e+02 3.964051187505515981e-05
7.833916958479238701e+02 3.903178368317723718e-05
7.842921460730365197e+02 3.838728550788782955e-05
7.851925962981490557e+02 3.794887991990488006e-05
7.860930465232615916e+02 3.773603551659516402e-05
7.869934967483741275e+02 3.750160619588146816e-05
7.878939469734866634e+02 3.698735811755461656e-05
7.887943971985993130e+02 3.615950196152068618e-05
7.896948474237118489e+02 3.527338841769119828e-05
7.905952976488243849e+02 3.464085736629457133e-05
7.914957478739369208e+02 3.432098208229636893e-05
7.923961980990494567e+02 3.410339432598238451e-05
7.932966483241619926e+02 3.372071659208908899e-05
7.941970985492746422e+02 3.310322795890329806e-05
7.950975487743871781e+02 3.250014782259660168e-05
7.959979989994997140e+02 3.220689141163073142e-05
7.968984492246122500e+02 3.227751605394610639e-05
7.977988994497247859e+02 3.255371239204289012e-05
7.986993496748374355e+02 3.283637646648864775e-05
7.995997998999499714e+02 3.300742102116787773e-05
8.005002501250625073e+02 3.308958563382493028e-05
8.014007003501750432e+02 3.322498025744927413e-05
8.023011505752875792e+02 3.353719178290798941e-05
8.032016008004001151e+02 3.409543864046489753e-05
8.041020510255127647e+02 3.492830248940145534e-05
8.050025012506253006e+02 3.600979259281422967e-05
8.059029514757378365e+02 3.725377602260697055e-05
8.068034017008503724e+02 3.848828697212501972e-05
8.077038519259629084e+02 3.951322690689762170e-05
8.086043021510754443e+02 4.016482532391093570e-05
8.095047523761880939e+02 4.041315235956454078e-05
8.104052026013006298e+02 4.036909629567180056e-05
8.113056528264131657e+02 4.020990310860786984e-05
8.122061030515257016e+02 4.012086760615798042e-05
8.131065532766382375e+02 4.012634481019415898e-05
8.140070035017508872e+02 4.013849994385735724e-05
8.149074537268634231e+02 4.010034426016929356e-05
8.158079039519759590e+02 3.998489371705255479e-05
8.167083541770884949e+02 3.973160271554871710e-05
8.176088044022010308e+02 3.923506156431731689e-05
8.185092546273135667e+02 3.852636580146463660e-05
8.194097048524262163e+02 3.782377591808005178e-05
8.203101550775387523e+02 3.733084169322606593e-05
8.212106053026512882e+02 3.707341398170217213e-05
8.221110555277638241e+02 3.692620218440264141e-05
8.230115057528763600e+02 3.670934130236443285e-05
8.239119559779890096e+02 3.626871891933957238e-05
8.248124062031015455e+02 3.563468565167666845e-05
8.257128564282140815e+02 3.504188946521226400e-05
8.266133066533266174e+02 3.470121297270995501e-05
8.275137568784391533e+02 3.461278613067454772e-05
8.284142071035516892e+02 3.467988691074993157e-05
8.293146573286643388e+02 3.486856857637260103e-05
8.302151075537768747e+02 3.514676529207609427e-05
8.311155577788894107e+02 3.545264841934551195e-05
8.320160080040019466e+02 3.571475988187859538e-05
8.329164582291144825e+02 3.595731350747775835e-05
8.338169084542270184e+02 3.625805331688147228e-05
8.347173586793396680e+02 3.656056639465084837e-05
8.356178089044522039e+02 3.674784807914185128e-05
8.365182591295647399e+02 3.680839282859756952e-05
8.374187093546772758e+02 3.686450711635339060e-05
8.383191595797898117e+02 3.701643389783125846e-05
8.392196098049024613e+02 3.717094228924631012e-05
8.401200600300149972e+02 3.711100396872506538e-05
8.410205102551275331e+02 3.678587182103231238e-05
8.419209604802400690e+02 3.637825393253273255e-05
8.428214107053526050e+02 3.608044785141426540e-05
8.437218609304651409e+02 3.597722890046864581e-05
8.446223111555777905e+02 3.605939415847902345e-05
8.455227613806903264e+02 3.621111341200825560e-05
8.464232116058028623e+02 3.635300229068244381e-05
8.473236618309153982e+02 3.654401611032253623e-05
8.482241120560279342e+02 3.685997201759227753e-05
8.491245622811405838e+02 3.725187088702212434e-05
8.500250125062531197e+02 3.745652549657178256e-05
8.509254627313656556e+02 3.720335182915194915e-05
8.518259129564781915e+02 3.653820700659112360e-05
8.527263631815907274e+02 3.562014969865780851e-05
8.536268134067032634e+02 3.453439949337039632e-05
8.545272636318159130e+02 3.342836429085963663e-05
8.554277138569284489e+02 3.248543331700786335e-05
8.563281640820409848e+02 3.176950231180536411e-05
8.572286143071535207e+02 3.118657289854719457e-05
8.581290645322660566e+02 3.068363414673702498e-05
8.590295147573785925e+02 3.036663041498528347e-05
8.599299649824912422e+02 3.029932264470902432e-05
8.608304152076037781e+02 3.039540559809840464e-05
8.617308654327163140e+02 3.048332658874531139e-05
8.626313156578288499e+02 3.042304134744647624e-05
8.635317658829413858e+02 3.024395667425056907e-05
8.644322161080540354e+02 3.007503879392536025e-05
8.653326663331665713e+02 3.003005091738119404e-05
8.662331165582791073e+02 3.017418460905993801e-05
8.671335667833916432e+02 3.044801102039416198e-05
8.680340170085041791e+02 3.073639280936144572e-05
8.689344672336167150e+02 3.101344126525350627e-05
8.698349174587293646e+02 3.132958364669636615e-05
8.707353676838419005e+02 3.174020310297571274e-05
8.716358179089544365e+02 3.225235748478569260e-05
8.725362681340669724e+02 3.280537371688780756e-05
8.734367183591795083e+02 3.333030182880976973e-05
8.743371685842921579e+02 3.381925082706300692e-05
8.752376188094046938e+02 3.430824180055619193e-05
8.761380690345172297e+02 3.483563693124987648e-05
8.770385192596297657e+02 3.540647146568764325e-05
8.779389694847423016e+02 3.597715186174583942e-05
8.788394197098548375e+02 3.649078862550964047e-05
8.797398699349674871e+02 3.692230623852621972e-05
8.806403201600800230e+02 3.717563569358161185e-05
8.815407703851925589e+02 3.713769458520797405e-05
8.824412206103050949e+02 3.688861131151391137e-05
8.833416708354176308e+02 3.667775528519223250e-05
8.842421210605301667e+02 3.671812185212280292e-05
8.851425712856428163e+02 3.706472132390306308e-05
8.860430215107553522e+02 3.764411882956323512e-05
8.869434717358678881e+02 3.828169447036028908e-05
8.878439219609804240e+02 3.875538506192047059e-05
8.887443721860929600e+02 3.901961680324594363e-05
8.896448224112056096e+02 3.927368578640977808e-05
8.905452726363181455e+02 3.964094507841522534e-05
8.914457228614306814e+02 3.992626384446667088e-05
8.923461730865432173e+02 3.990838434158185366e-05
8.932466233116557532e+02 3.964241431894144384e-05
8.941470735367682892e+02 3.931124349819361717e-05
8.950475237618809388e+02 3.909661755039762576e-05
8.959479739869934747e+02 3.907485090252548827e-05
8.968484242121060106e+02 3.915802003177867874e-05
8.977488744372185465e+02 3.933488221353542632e-05
8.986493246623310824e+02 3.969825415973721357e-05
8.995497748874437320e+02 4.013700296611670375e-05
9.004502251125562680e+02 4.050143865980662992e-05
9.013506753376688039e+02 4.095585831349235928e-05
9.022511255627813398e+02 4.182941661885095856e-05
9.031515757878938757e+02 4.320142701864240569e-05
9.040520260130064116e+02 4.476571533633995624e-05
9.049524762381190612e+02 4.609498440732432198e-05
9.058529264632315972e+02 4.703441420743847360e-05
9.067533766883441331e+02 4.778297799764571552e-05
9.076538269134566690e+02 4.856921564445083872e-05
9.085542771385692049e+02 4.931405474054259991e-05
9.094547273636817408e+02 4.977673258219296644e-05
9.103551775887943904e+02 4.995473616400341688e-05
9.112556278139069263e+02 5.011179264334111530e-05
9.121560780390194623e+02 5.045969891899322276e-05
9.130565282641319982e+02 5.092063901551179060e-05
9.139569784892445341e+02 5.131489679479526799e-05
9.148574287143571837e+02 5.162444921817254014e-05
9.157578789394697196e+02 5.192209793813124647e-05
9.166583291645822555e+02 5.226404850642262634e-05
9.175587793896947915e+02 5.275283320324906353e-05
9.184592296148073274e+02 5.350109928130191762e-05
9.193596798399198633e+02 5.450216793479058632e-05
9.202601300650325129e+02 5.544294737254877250e-05
9.211605802901450488e+02 5.585530591451857009e-05
9.220610305152575847e+02 5.570838023834932042e-05
9.229614807403701207e+02 5.540815900464846636e-05
9.238619309654826566e+02 5.533327962808831706e-05
9.247623811905953062e+02 5.561563719580486369e-05
9.256628314157078421e+02 5.599213838081330022e-05
9.265632816408203780e+02 5.597984599016859845e-05
9.274637318659329139e+02 5.541614979648256333e-05
9.283641820910454499e+02 5.448565592641621373e-05
9.292646323161579858e+02 5.353050006723488531e-05
9.301650825412706354e+02 5.292276636852792941e-05
9.310655327663831713e+02 5.282280068786099440e-05
9.319659829914957072e+02 5.318680015063573328e-05
9.328664332166082431e+02 5.397198803721118545e-05
9.337668834417207790e+02 5.521780207110316829e-05
9.346673336668334287e+02 5.675562343370551302e-05
9.355677838919459646e+02 5.815843023800624704e-05
9.364682341170585005e+02 5.921375038211231938e-05
9.373686843421710364e+02 5.996535936094902434e-05
9.382691345672835723e+02 6.040064499105487344e-05
9.391695847923961082e+02 6.056904982580546440e-05
9.400700350175087578e+02 6.072636402099039466e-05
9.409704852426212938e+02 6.122642644069181315e-05
9.418709354677338297e+02 6.221093463776227405e-05
9.427713856928463656e+02 6.359704920026260566e-05
9.436718359179589015e+02 6.538904136071351295e-05
9.445722861430714374e+02 6.754253660468004065e-05
9.454727363681840870e+02 6.965461726555448720e-05
9.463731865932966230e+02 7.122453790717116510e-05
9.472736368184091589e+02 7.228319325566179786e-05
9.481740870435216948e+02 7.315607685208720993e-05
9.490745372686342307e+02 7.373407038253613935e-05
9.499749874937468803e+02 7.376961970596891834e-05
9.508754377188594162e+02 7.335897001581567528e-05
9.517758879439719522e+02 7.278938143731070274e-05
9.526763381690844881e+02 7.227927296659368171e-05
9.535767883941970240e+02 7.185562583050380267e-05
9.544772386193095599e+02 7.163635138568727413e-05
9.553776888444222095e+02 7.190806656604272038e-05
9.562781390695347454e+02 7.271064941984385611e-05
9.571785892946472813e+02 7.373814685079454990e-05
9.580790395197598173e+02 7.478325424220265438e-05
9.589794897448723532e+02 7.583109259226512638e-05
9.598799399699850028e+02 7.686577017938346168e-05
9.607803901950975387e+02 7.779050440120590119e-05
9.616808404202100746e+02 7.849527124417241344e-05
9.625812906453226105e+02 7.893111365802909466e-05
9.634817408704351465e+02 7.918206584043773150e-05
9.643821910955476824e+02 7.964275189864369658e-05
9.652826413206603320e+02 8.069006615389498569e-05
9.661830915457728679e+02 8.231860369234622827e-05
9.670835417708854038e+02 8.417718173063424788e-05
9.679839919959979397e+02 8.570310800413395919e-05
9.688844422211104757e+02 8.657834269190746782e-05
9.697848924462230116e+02 8.706525801423810188e-05
9.706853426713356612e+02 8.755960022459490020e-05
9.715857928964481971e+02 8.827397151957400395e-05
9.724862431215607330e+02 8.918485928718454384e-05
9.733866933466732689e+02 8.996956949305224941e-05
9.742871435717858049e+02 9.043974245134520139e-05
9.751875937968984545e+02 9.091842762095214291e-05
9.760880440220109904e+02 9.166742282825038747e-05
9.769884942471235263e+02 9.263511269560630208e-05
9.778889444722360622e+02 9.364612739196128267e-05
9.787893946973485981e+02 9.440291867609600606e-05
9.796898449224611340e+02 9.499963271078418604e-05
9.805902951475737837e+02 9.589804287980290768e-05
9.814907453726863196e+02 9.740816332487581318e-05
9.823911955977988555e+02 9.925275572412232364e-05
9.832916458229113914e+02 1.007692399514281901e-04
9.841920960480239273e+02 1.018971361919473990e-04
9.850925462731365769e+02 1.031057404988973311e-04
9.859929964982491128e+02 1.046779668273835074e-04
9.868934467233616488e+02 1.066580954985593043e-04
9.877938969484741847e+02 1.087853191951642604e-04
9.886943471735867206e+02 1.106187182505905854e-04
9.895947973986992565e+02 1.117086900742925441e-04
9.904952476238119061e+02 1.118422308922468680e-04
9.913956978489244420e+02 1.113682473635215474e-04
9.922961480740369780e+02 1.109443010798814313e-04
9.931965982991495139e+02 1.110509033209536713e-04
9.940970485242620498e+02 1.116225829791685166e-04
9.949974987493745857e+02 1.122148471637511981e-04
9.958979489744872353e+02 1.124556670333280473e-04
9.967983991995997712e+02 1.122211661755375859e-04
9.976988494247123072e+02 1.118353969448774421e-04
9.985992996498248431e+02 1.117573052785883996e-04
9.994997498749373790e+02 1.119738843603534689e-04
1.000400200100050029e+03 1.123398870265682415e-04
1.001300650325162565e+03 1.127998380982786589e-04
1.002201100550275100e+03 1.132241532903195642e-04
1.003101550775387636e+03 1.134860455924171070e-04
1.004002001000500172e+03 1.136856015032392865e-04
1.004902451225612708e+03 1.142809979682826889e-04
1.005802901450725358e+03 1.155928791986027835e-04
1.006703351675837894e+03 1.174245886014949156e-04
1.007603801900950430e+03 1.193775124814595509e-04
1.008504252126062966e+03 1.211258439369541776e-04
1.009404702351175501e+03 1.225182102135423281e-04
1.010305152576288151e+03 1.235998583978167832e-04
1.011205602801400687e+03 1.244954082559020323e-04
1.012106053026513223e+03 1.254895040818486678e-04
1.013006503251625759e+03 1.268307889034453408e-04
1.013906953476738295e+03 1.284234137946979560e-04
1.014807403701850831e+03 1.300665336814512427e-04
1.015707853926963480e+03 1.319045114790739007e-04
1.016608304152076016e+03 1.341805660427078427e-04
1.017508754377188552e+03 1.366531486324260090e-04
1.018409204602301088e+03 1.384432700158607201e-04
1.019309654827413624e+03 1.385906014851128148e-04
1.020210105052526160e+03 1.372330165964489386e-04
1.021110555277638809e+03 1.357941427613362079e-04
1.022011005502751345e+03 1.355697856418235862e-04
1.022911455727863881e+03 1.364592570548885401e-04
1.023811905952976417e+03 1.375685035155911683e-04
1.024712356178089067e+03 1.384878410016810466e-04
1.025612806403201603e+03 1.392556440438683606e-04
1.026513256628314139e+03 1.401075770052885930e-04
1.027413706853426675e+03 1.411844799223763711e-04
1.028314157078539210e+03 1.424789156543785457e-04
1.029214607303651746e+03 1.438826643030713891e-04
1.030115057528764282e+03 1.453284101407233738e-04
1.031015507753876818e+03 1.469305121869617385e-04
1.031915957978989354e+03 1.487655410987139611e-04
1.032816408204101890e+03 1.507698060686553788e-04
1.033716858429214653e+03 1.527886717119605507e-04
1.034617308654327189e+03 1.547236035739824088e-04
1.035517758879439725e+03 1.567969846469266103e-04
1.036418209104552261e+03 1.591409152418690525e-04
1.037318659329664797e+03 1.612215873987469324e-04
1.038219109554777333e+03 1.621311877707446011e-04
1.039119559779889869e+03 1.616390803713589164e-04
1.040020010005002405e+03 1.605333120565752443e-04
1.040920460230114941e+03 1.599907127659175407e-04
1.041820910455227477e+03 1.606297613428428787e-04
1.042721360680340013e+03 1.623854361527426906e-04
1.043621810905452776e+03 1.648339207664954644e-04
1.044522261130565312e+03 1.669804986062745718e-04
1.045422711355677848e+03 1.680272262910085645e-04
1.046323161580790384e+03 1.682177820574735688e-04
1.047223611805902920e+03 1.679164387539947749e-04
1.048124062031015455e+03 1.671175413195492095e-04
1.049024512256127991e+03 1.662101735300837446e-04
1.049924962481240527e+03 1.656043564530996711e-04
1.050825412706353063e+03 1.651120502002229127e-04
1.051725862931465599e+03 1.647010518786062633e-04
1.052626313156578135e+03 1.649205351181392935e-04
1.053526763381690898e+03 1.659777654675380289e-04
1.054427213606803434e+03 1.673879375776321380e-04
1.055327663831915970e+03 1.687395784236993170e-04
1.056228114057028506e+03 1.700172057483477028e-04
1.057128564282141042e+03 1.711959828344630557e-04
1.058029014507253578e+03 1.725951144840752384e-04
1.058929464732366114e+03 1.746047103257584966e-04
1.059829914957478650e+03 1.769002925183164713e-04
1.060730365182591186e+03 1.790033141221353469e-04
1.061630815407703722e+03 1.806395646003819801e-04
1.062531265632816257e+03 1.813693442711695331e-04
1.063431715857929021e+03 1.808396177810677244e-04
1.064332166083041557e+03 1.792903406855936408e-04
1.065232616308154093e+03 1.774250511356711534e-04
1.066133066533266629e+03 1.761426670543100447e-04
1.067033516758379164e+03 1.763658357060307407e-04
1.067933966983491700e+03 1.779949729624858107e-04
1.068834417208604236e+03 1.795964711568470099e-04
1.069734867433716772e+03 1.798793194494254389e-04
1.070635317658829308e+03 1.792157160962971798e-04
1.071535767883941844e+03 1.788002663999211479e-04
1.072436218109054380e+03 1.788478247960871321e-04
1.073336668334167143e+03 1.785335240498821632e-04
1.074237118559279679e+03 1.770750182714772754e-04
1.075137568784392215e+03 1.741388998605117127e-04
1.076038019009504751e+03 1.699703810716213074e-04
1.076938469234617287e+03 1.654839104628073475e-04
1.077838919459729823e+03 1.616224964108386422e-04
1.078739369684842359e+03 1.587452235354154236e-04
1.079639819909954895e+03 1.568888957220168959e-04
1.080540270135067431e+03 1.560706487168552869e-04
1.081440720360179967e+03 1.563559945312750180e-04
1.082341170585292502e+03 1.577058738705787997e-04
1.083241620810405038e+03 1.594698590882275588e-04
1.084142071035517802e+03 1.606351435085887568e-04
1.085042521260630338e+03 1.607278600620951048e-04
1.085942971485742873e+03 1.598450121767294718e-04
1.086843421710855409e+03 1.585197437580453095e-04
1.087743871935967945e+03 1.574841257375587369e-04
1.088644322161080481e+03 1.572986136991594405e-04
1.089544772386193017e+03 1.582480210706156774e-04
1.090445222611305553e+03 1.603661943450012490e-04
1.091345672836418089e+03 1.631853345768500207e-04
1.092246123061530625e+03 1.657219544380153509e-04
1.093146573286643161e+03 1.674268433900114267e-04
1.094047023511755924e+03 1.684323383630612731e-04
1.094947473736868460e+03 1.690601392437911775e-04
1.095847923961980996e+03 1.691694942118457834e-04
1.096748374187093532e+03 1.681339765572661754e-04
1.097648824412206068e+03 1.661727187302165310e-04
1.098549274637318604e+03 1.646583536613354683e-04
1.099449724862431140e+03 1.647431476391202402e-04
1.100350175087543676e+03 1.666090233301147127e-04
1.101250625312656211e+03 1.696719009304441077e-04
1.102151075537768747e+03 1.731439015381756072e-04
1.103051525762881283e+03 1.764167777108598904e-04
1.103951975987994047e+03 1.790554002857287026e-04
1.104852426213106583e+03 1.807078138719116808e-04
1.105752876438219118e+03 1.815862328892140908e-04
1.106653326663331654e+03 1.826023906802542313e-04
1.107553776888444190e+03 1.843901606151071397e-04
1.108454227113556726e+03 1.863841339037162093e-04
1.109354677338669262e+03 1.876757450102972636e-04
1.110255127563781798e+03 1.881319936411951943e-04
1.111155577788894334e+03 1.883466591605071716e-04
1.112056028014006870e+03 1.889246305660859007e-04
1.112956478239119406e+03 1.899782020887477165e-04
1.113856928464232169e+03 1.914560923472187438e-04
1.114757378689344705e+03 1.935488055609695850e-04
1.115657828914457241e+03 1.964427041984426821e-04
1.116558279139569777e+03 1.998621665758928685e-04
1.117458729364682313e+03 2.029317987422651719e-04
1.118359179589794849e+03 2.050448565821370460e-04
1.119259629814907385e+03 2.063948716454946767e-04
1.120160080040019920e+03 2.073639137473450543e-04
1.121060530265132456e+03 2.076915904883207839e-04
1.121960980490244992e+03 2.066170520683325868e-04
1.122861430715357528e+03 2.043894229572612803e-04
1.123761880940470292e+03 2.024918204455552811e-04
1.124662331165582827e+03 2.020180643198491051e-04
1.125562781390695363e+03 2.029414606008857951e-04
1.126463231615807899e+03 2.046995785550533118e-04
1.127363681840920435e+03 2.065944091938474742e-04
1.128264132066032971e+03 2.083190120586715210e-04
1.129164582291145507e+03 2.102855955001666443e-04
1.130065032516258043e+03 2.130548811737337082e-04
1.130965482741370579e+03 2.168853853938296640e-04
1.131865932966483115e+03 2.218422082910292894e-04
1.132766383191595651e+03 2.277789538864723195e-04
1.133666833416708187e+03 2.342364992051074798e-04
1.134567283641820950e+03 2.410046617020190093e-04
1.135467733866933486e+03 2.483867451951237240e-04
1.136368184092046022e+03 2.565107090184317435e-04
1.137268634317158558e+03 2.649795398793960022e-04
1.138169084542271094e+03 2.732104998532706129e-04
1.139069534767383630e+03 2.808784956805218864e-04
1.139969984992496165e+03 2.886151816508877865e-04
1.140870435217608701e+03 2.974956450476604107e-04
1.141770885442721237e+03 3.080662581300447518e-04
1.142671335667833773e+03 3.200083110203822355e-04
1.143571785892946309e+03 3.334396773352619786e-04
1.144472236118059072e+03 3.497892480179392292e-04
1.145372686343171608e+03 3.701345160691732797e-04
1.146273136568284144e+03 3.946997443101268616e-04
1.147173586793396680e+03 4.239514689400453716e-04
1.148074037018509216e+03 4.591939742246174206e-04
1.148974487243621752e+03 5.013680469527704220e-04
1.149874937468734288e+03 5.504251636725257307e-04
1.150775387693846824e+03 6.086312824520557704e-04
1.151675837918959360e+03 6.794212630456304561e-04
1.152576288144071896e+03 7.611293736947973660e-04
1.153476738369184432e+03 8.473417792624120216e-04
1.154377188594297195e+03 9.336939411258032449e-04
1.155277638819409731e+03 1.022285835210698943e-03
1.156178089044522267e+03 1.114781628540904455e-03
1.157078539269634803e+03 1.214214724027044834e-03
1.157978989494747339e+03 1.329572958722960614e-03
1.158879439719859874e+03 1.466469817361310338e-03
1.159779889944972410e+03 1.624364402611105582e-03
1.160680340170084946e+03 1.797573274613449394e-03
1.161580790395197482e+03 1.969735130578789770e-03
1.162481240620310018e+03 2.117737676413285804e-03
1.163381690845422554e+03 2.231944603765257436e-03
1.164282141070535317e+03 2.309803344157685887e-03
1.165182591295647853e+03 2.336060001048068796e-03
1.166083041520760389e+03 2.304507277977702832e-03
1.166983491745872925e+03 2.228842467060231612e-03
1.167883941970985461e+03 2.124073027362292313e-03
1.168784392196097997e+03 2.000319089230630232e-03
1.169684842421210533e+03 1.864196415739415372e-03
1.170585292646323069e+03 1.724885435906526156e-03
1.171485742871435605e+03 1.596470970042645826e-03
1.172386193096548141e+03 1.482330439661242762e-03
1.173286643321660677e+03 1.367498904010048004e-03
1.174187093546773440e+03 1.242038634232936999e-03
1.175087543771885976e+03 1.119261156696122958e-03
1.175987993996998512e+03 1.019559063120613297e-03
1.176888444222111048e+03 9.509453869267237578e-04
1.177788894447223583e+03 9.063846103172377077e-04
1.178689344672336119e+03 8.757765355114696800e-04
1.179589794897448655e+03 8.551928788407596677e-04
1.180490245122561191e+03 8.411643558591788607e-04
1.181390695347673727e+03 8.246120786552331092e-04
1.182291145572786263e+03 8.004737645788529256e-04
1.183191595797898799e+03 7.759548627656943139e-04
1.184092046023011562e+03 7.598618636664791759e-04
1.184992496248124098e+03 7.537082453580847214e-04
1.185892946473236634e+03 7.539042331515428963e-04
1.186793396698349170e+03 7.565582143037844105e-04
1.187693846923461706e+03 7.615148259478639499e-04
1.188594297148574242e+03 7.707729630141965703e-04
1.189494747373686778e+03 7.836092954327594177e-04
1.190395197598799314e+03 7.961283704532638814e-04
1.191295647823911850e+03 8.044784075349980081e-04
1.192196098049024386e+03 8.071902350198638691e-04
1.193096548274136921e+03 8.066172962523233785e-04
1.193996998499249457e+03 8.053995769390819492e-04
1.194897448724362221e+03 8.033184771538543194e-04
1.195797898949474757e+03 7.987751753278360661e-04
1.196698349174587293e+03 7.892501313337695100e-04
1.197598799399699828e+03 7.719123955729240583e-04
1.198499249624812364e+03 7.477149866727963263e-04
1.199399699849924900e+03 7.213926594391534101e-04
1.200300150075037436e+03 6.971719774250547492e-04
1.201200600300149972e+03 6.757409608877363270e-04
1.202101050525262508e+03 6.541554094421689856e-04
1.203001500750375044e+03 6.299192265730127905e-04
1.203901950975487580e+03 6.049861492918863189e-04
1.204802401200600343e+03 5.839613118313770465e-04
1.205702851425712879e+03 5.688398277724548762e-04
1.206603301650825415e+03 5.569052634407808088e-04
1.207503751875937951e+03 5.455548163360939527e-04
1.208404202101050487e+03 5.362328206682194552e-04
1.209304652326163023e+03 5.306947896805605915e-04
1.210205102551275559e+03 5.281352508346485140e-04
1.211105552776388095e+03 5.258894367504091463e-04
1.212006003001500630e+03 5.226318706307538694e-04
1.212906453226613166e+03 5.194725952065591592e-04
1.213806903451725702e+03 5.150316884728648684e-04
1.214707353676838466e+03 5.044566638140843447e-04
1.215607803901951002e+03 4.868475568997723325e-04
1.216508254127063537e+03 4.681560114793772444e-04
1.217408704352176073e+03 4.530698797327467283e-04
1.218309154577288609e+03 4.417627176253770944e-04
1.219209604802401145e+03 4.326204127744311058e-04
1.220110055027513681e+03 4.242211997811105623e-04
1.221010505252626217e+03 4.167939697560870565e-04
1.221910955477738753e+03 4.128856399548348809e-04
1.222811405702851289e+03 4.162880736383128507e-04
1.223711855927963825e+03 4.291047377904237290e-04
1.224612306153076588e+03 4.481798489812222302e-04
1.225512756378189124e+03 4.660552487952402106e-04
1.226413206603301660e+03 4.778857957351108831e-04
1.227313656828414196e+03 4.823666604335652809e-04
1.228214107053526732e+03 4.803921088934553466e-04
1.229114557278639268e+03 4.747661531336674770e-04
1.230015007503751804e+03 4.665523452407410124e-04
1.230915457728864340e+03 4.541653771420639703e-04
1.231815907953976875e+03 4.374581314108032444e-04
1.232716358179089411e+03 4.203188712646022769e-04
1.233616808404201947e+03 4.073493623052680816e-04
1.234517258629314711e+03 4.011252655851494189e-04
1.235417708854427246e+03 4.024327893404864589e-04
1.236318159079539782e+03 4.117867669354221562e-04
1.237218609304652318e+03 4.293577421724120171e-04
1.238119059529764854e+03 4.522605182390578515e-04
1.239019509754877390e+03 4.735404832341941921e-04
1.239919959979989926e+03 4.874699529877015336e-04
1.240820410205102462e+03 4.947785313699657947e-04
1.241720860430214998e+03 5.002256398480565665e-04
1.242621310655327534e+03 5.066386143872448657e-04
1.243521760880440070e+03 5.130374807052865988e-04
1.244422211105552606e+03 5.184328625469810910e-04
1.245322661330665369e+03 5.233255395994351701e-04
1.246223111555777905e+03 5.280132308235772941e-04
1.247123561780890441e+03 5.319740297895899023e-04
1.248024012006002977e+03 5.345776791407108467e-04
1.248924462231115513e+03 5.361769777040039904e-04
1.249824912456228049e+03 5.384565644257573083e-04
1.250725362681340584e+03 5.424452593375101404e-04
1.251625812906453120e+03 5.466314652530671970e-04
1.252526263131565656e+03 5.490605581233993625e-04
1.253426713356678192e+03 5.502922871365850937e-04
1.254327163581790728e+03 5.514545095872789996e-04
1.255227613806903491e+03 5.510520645405325409e-04
1.256128064032016027e+03 5.490775498486518812e-04
1.257028514257128563e+03 5.491192205776376832e-04
1.257928964482241099e+03 5.536937468356709557e-04
1.258829414707353635e+03 5.635694136264448196e-04
1.259729864932466171e+03 5.785784474671750235e-04
1.260630315157578707e+03 5.966755896007305045e-04
1.261530765382691243e+03 6.143614706739550062e-04
1.262431215607803779e+03 6.304468204191757390e-04
1.263331665832916315e+03 6.475226873654261724e-04
1.264232116058028851e+03 6.681104967917397700e-04
1.265132566283141614e+03 6.916649679398637150e-04
1.266033016508254150e+03 7.155572250121630022e-04
1.266933466733366686e+03 7.382064954414825847e-04
1.267833916958479222e+03 7.595158976367060626e-04
1.268734367183591758e+03 7.792370431871857139e-04
1.269634817408704293e+03 7.970056868104079609e-04
1.270535267633816829e+03 8.138238143424178029e-04
1.271435717858929365e+03 8.309373400326015933e-04
1.272336168084041901e+03 8.490134369430302847e-04
1.273236618309154437e+03 8.687551514222543190e-04
1.274137068534266973e+03 8.905535475602226235e-04
1.275037518759379736e+03 9.149530506014390881e-04
1.275937968984492272e+03 9.420349098706559373e-04
1.276838419209604808e+03 9.703291779476282304e-04
1.277738869434717344e+03 9.973137895900117521e-04
1.278639319659829880e+03 1.020293789251276772e-03
1.279539769884942416e+03 1.039622558024433548e-03
1.280440220110054952e+03 1.058358679721996482e-03
1.281340670335167488e+03 1.077949966372397390e-03
1.282241120560280024e+03 1.098230365661532690e-03
1.283141570785392560e+03 1.118744769472646700e-03
1.284042021010505096e+03 1.139429087932284246e-03
1.284942471235617859e+03 1.161208275122170433e-03
1.285842921460730395e+03 1.184261055167967454e-03
1.286743371685842931e+03 1.206026122532249337e-03
1.287643821910955467e+03 1.222249312294225541e-03
1.288544272136068003e+03 1.231806865664672544e-03
1.289444722361180538e+03 1.238288875901558247e-03
1.290345172586293074e+03 1.245135494530862086e-03
1.291245622811405610e+03 1.252507656508756789e-03
1.292146073036518146e+03 1.259510205682408098e-03
1.293046523261630682e+03 1.266326872177428713e-03
1.293946973486743218e+03 1.274692891546254803e-03
1.294847423711855754e+03 1.286938855350955920e-03
1.295747873936968517e+03 1.303387951780266832e-03
1.296648324162081053e+03 1.322564569318812611e-03
1.297548774387193589e+03 1.341999503244372359e-03
1.298449224612306125e+03 1.358190156441687951e-03
1.299349674837418661e+03 1.369764513274698446e-03
1.300250125062531197e+03 1.378980525515087095e-03
1.301150575287643733e+03 1.388701880697541368e-03
1.302051025512756269e+03 1.399381992924580119e-03
1.302951475737868805e+03 1.409675508160601045e-03
1.303851925962981340e+03 1.418482690508387220e-03
1.304752376188093876e+03 1.425474958399108264e-03
1.305652826413206640e+03 1.432411654791492048e-03
1.306553276638319176e+03 1.444352171041405524e-03
1.307453726863431712e+03 1.465686969945776373e-03
1.308354177088544247e+03 1.495204590428701567e-03
1.309254627313656783e+03 1.527179507265690427e-03
1.310155077538769319e+03 1.556834015192038595e-03
1.311055527763881855e+03 1.583009291448298677e-03
1.311955977988994391e+03 1.606413278750063942e-03
1.312856428214106927e+03 1.629162242233423395e-03
1.313756878439219463e+03 1.654780872978727294e-03
1.314657328664331999e+03 1.683519275410546440e-03
1.315557778889444762e+03 1.711334208083375736e-03
1.316458229114557298e+03 1.734763548898101511e-03
1.317358679339669834e+03 1.753961858577995220e-03
1.318259129564782370e+03 1.772054275343252008e-03
1.319159579789894906e+03 1.793614329402447175e-03
1.320060030015007442e+03 1.822973054555283119e-03
1.320960480240119978e+03 1.859865479139682183e-03
1.321860930465232514e+03 1.898232660141262098e-03
1.322761380690345050e+03 1.930881523077628047e-03
1.323661830915457585e+03 1.956935322869560005e-03
1.324562281140570121e+03 1.984932608114968987e-03
1.325462731365682885e+03 2.026216963256016572e-03
1.326363181590795421e+03 2.084939723241030062e-03
1.327263631815907956e+03 2.153426901285978960e-03
1.328164082041020492e+03 2.219663997491615106e-03
1.329064532266133028e+03 2.282079260785609479e-03
1.329964982491245564e+03 2.348189271887144401e-03
1.330865432716358100e+03 2.418153348292941072e-03
1.331765882941470636e+03 2.483310037691790519e-03
1.332666333166583172e+03 2.538597275222412211e-03
1.333566783391695708e+03 2.587887653033632031e-03
1.334467233616808244e+03 2.638361156527978604e-03
1.335367683841921007e+03 2.695352938301114141e-03
1.336268134067033543e+03 2.762219383598152594e-03
1.337168584292146079e+03 2.839124580055345497e-03
1.338069034517258615e+03 2.925914443310852382e-03
1.338969484742371151e+03 3.023618854731805784e-03
1.339869934967483687e+03 3.130816521419229649e-03
1.340770385192596223e+03 3.241264487516835706e-03
1.341670835417708759e+03 3.347117519458303776e-03
1.342571285642821294e+03 3.443284562236674333e-03
1.343471735867933830e+03 3.531441827270099827e-03
1.344372186093046366e+03 3.620278468855103824e-03
1.345272636318158902e+03 3.719232919371975952e-03
1.346173086543271666e+03 3.830978088835341067e-03
1.347073536768384201e+03 3.946136871724489729e-03
1.347973986993496737e+03 4.051611116714507084e-03
1.348874437218609273e+03 4.150605668613784917e-03
1.349774887443721809e+03 4.258532846949794788e-03
1.350675337668834345e+03 4.380015072486296603e-03
1.351575787893946881e+03 4.509697134337522020e-03
1.352476238119059417e+03 4.651865273953257468e-03
1.353376688344171953e+03 4.818688319837640538e-03
1.354277138569284489e+03 5.009444921562517319e-03
1.355177588794397025e+03 5.211971068469856659e-03
1.356078039019509788e+03 5.423500015597441243e-03
1.356978489244622324e+03 5.641849761759382999e-03
1.357878939469734860e+03 5.845530132409596132e-03
1.358779389694847396e+03 6.016640736169981928e-03
1.359679839919959932e+03 6.162048514435428982e-03
1.360580290145072468e+03 6.300838920078122643e-03
1.361480740370185003e+03 6.458503572517838680e-03
1.362381190595297539e+03 6.657765295047808618e-03
1.363281640820410075e+03 6.904206980934330697e-03
1.364182091045522611e+03 7.190858443200600844e-03
1.365082541270635147e+03 7.496696196879346769e-03
1.365982991495747910e+03 7.783901287838041784e-03
1.366883441720860446e+03 8.025434645856501653e-03
1.367783891945972982e+03 8.238286006250117657e-03
1.368684342171085518e+03 8.459377404976004683e-03
1.369584792396198054e+03 8.707853098883900841e-03
1.370485242621310590e+03 8.983717826127593856e-03
1.371385692846423126e+03 9.267139109520525220e-03
1.372286143071535662e+03 9.545220993465426337e-03
1.373186593296648198e+03 9.846061176832744330e-03
1.374087043521760734e+03 1.020394519066793876e-02
1.374987493746873270e+03 1.062147562047944215e-02
1.375887943971986033e+03 1.107991129444185936e-02
1.376788394197098569e+03 1.155338509543175213e-02
1.377688844422211105e+03 1.202604303965058331e-02
1.378589294647323641e+03 1.249180284288847753e-02
1.379489744872436177e+03 1.293150800404606511e-02
1.380390195097548713e+03 1.333468287475240988e-02
1.381290645322661248e+03 1.373866139792358047e-02
1.382191095547773784e+03 1.419822054359399024e-02
1.383091545772886320e+03 1.475690406349817671e-02
1.383991995997998856e+03 1.545462742230384497e-02
1.384892446223111392e+03 1.630856635486918615e-02
1.385792896448224155e+03 1.730652284647926989e-02
1.386693346673336691e+03 1.844233023255615819e-02
1.387593796898449227e+03 1.967615238885058598e-02
1.388494247123561763e+03 2.089587067852644031e-02
1.389394697348674299e+03 2.201830900956004353e-02
1.390295147573786835e+03 2.306649301863888252e-02
1.391195597798899371e+03 2.404554582882308805e-02
1.392096048024011907e+03 2.485706749558736287e-02
1.392996498249124443e+03 2.548709424468174542e-02
1.393896948474236979e+03 2.604249803743855646e-02
1.394797398699349515e+03 2.652407373146581371e-02
1.395697848924462278e+03 2.691871766397882157e-02
1.396598299149574814e+03 2.729996141181301184e-02
1.397498749374687350e+03 2.764184673691490179e-02
1.398399199599799886e+03 2.782335009050277905e-02
1.399299649824912422e+03 2.783433909556792471e-02
1.400200100050024957e+03 2.778021012579395127e-02
1.401100550275137493e+03 2.770887730117676737e-02
1.402001000500250029e+03 2.755649246360855967e-02
1.402901450725362565e+03 2.723094203903033902e-02
1.403801900950475101e+03 2.666373119348188284e-02
1.404702351175587637e+03 2.589409031855295293e-02
1.405602801400700173e+03 2.507107849869001995e-02
1.406503251625812936e+03 2.434467245780708861e-02
1.407403701850925472e+03 2.378540774770053837e-02
1.408304152076038008e+03 2.338739429032483594e-02
1.409204602301150544e+03 2.312390536010206638e-02
1.410105052526263080e+03 2.294560103109277369e-02
1.411005502751375616e+03 2.274969401421215662e-02
1.411905952976488152e+03 2.240649270385808647e-02
1.412806403201600688e+03 2.187842402351341045e-02
1.413706853426713224e+03 2.125940140038415360e-02
1.414607303651825760e+03 2.067210657757333897e-02
1.415507753876938295e+03 2.017827760149341204e-02
1.416408204102051059e+03 1.972125579816802129e-02
1.417308654327163595e+03 1.918880563781693097e-02
1.418209104552276131e+03 1.854767956692864386e-02
1.419109554777388666e+03 1.786717100308873873e-02
1.420010005002501202e+03 1.721760847346255272e-02
1.420910455227613738e+03 1.661549495707577775e-02
1.421810905452726274e+03 1.605145397132383411e-02
1.422711355677838810e+03 1.550385683235857084e-02
1.423611805902951346e+03 1.492370679130605900e-02
1.424512256128063882e+03 1.431492580461297091e-02
1.425412706353176418e+03 1.374522381561559849e-02
1.426313156578289181e+03 1.323664394469947769e-02
1.427213606803401717e+03 1.276242853657496602e-02
1.428114057028514253e+03 1.229075084283977673e-02
1.429014507253626789e+03 1.181169206248296882e-02
1.429914957478739325e+03 1.135171633716305743e-02
1.430815407703851861e+03 1.092986374262164100e-02
1.431715857928964397e+03 1.054050017775993997e-02
1.432616308154076933e+03 1.017764395229558451e-02
1.433516758379189469e+03 9.844669898569302635e-03
1.434417208604302004e+03 9.554243939697100105e-03
1.435317658829414540e+03 9.320045391375769359e-03
1.436218109054527304e+03 9.146090125160285730e-03
1.437118559279639840e+03 9.009713778746212404e-03
1.438019009504752376e+03 8.858531423341762037e-03
1.438919459729864911e+03 8.646289544755497367e-03
1.439819909954977447e+03 8.363519270189218036e-03
1.440720360180089983e+03 8.035118945808517391e-03
1.441620810405202519e+03 7.713244346446669272e-03
1.442521260630315055e+03 7.440949687197979598e-03
1.443421710855427591e+03 7.225157947045262805e-03
1.444322161080540127e+03 7.049771746617478595e-03
1.445222611305652663e+03 6.889784167964181985e-03
1.446123061530765426e+03 6.735023502779204259e-03
1.447023511755877962e+03 6.589282729874566293e-03
1.447923961980990498e+03 6.443085792345890593e-03
1.448824412206103034e+03 6.278307390809171815e-03
1.449724862431215570e+03 6.087340606057302546e-03
1.450625312656328106e+03 5.878190067783289549e-03
1.451525762881440642e+03 5.666438627012785646e-03
1.452426213106553178e+03 5.448029946091900201e-03
1.453326663331665713e+03 5.213681622005876017e-03
1.454227113556778249e+03 4.970325967592116936e-03
1.455127563781890785e+03 4.726022425784421471e-03
1.456028014007003321e+03 4.491324538408803316e-03
1.456928464232116085e+03 4.284830612363201702e-03
1.457828914457228620e+03 4.120209358120904136e-03
1.458729364682341156e+03 3.993650647301335427e-03
1.459629814907453692e+03 3.891905634339790088e-03
1.460530265132566228e+03 3.805304236460953053e-03
1.461430715357678764e+03 3.726361697093727877e-03
1.462331165582791300e+03 3.644737643979265203e-03
1.463231615807903836e+03 3.550163848386955583e-03
1.464132066033016372e+03 3.436119257823807074e-03
1.465032516258128908e+03 3.311145079313594034e-03
1.465932966483241444e+03 3.193249284606804704e-03
1.466833416708354207e+03 3.091141800843498662e-03
1.467733866933466743e+03 3.000037855089329741e-03
1.468634317158579279e+03 2.911008968380615364e-03
1.469534767383691815e+03 2.823896443304228180e-03
1.470435217608804351e+03 2.744986216337956270e-03
1.471335667833916887e+03 2.673720780212871396e-03
1.472236118059029423e+03 2.602409291815243816e-03
1.473136568284141958e+03 2.528128982530768263e-03
1.474037018509254494e+03 2.454044402860291844e-03
1.474937468734367030e+03 2.383650973364469065e-03
1.475837918959479566e+03 2.319070187026676163e-03
1.476738369184592329e+03 2.261045023959074897e-03
1.477638819409704865e+03 2.210986326157434248e-03
1.478539269634817401e+03 2.167218453928269808e-03
1.479439719859929937e+03 2.120298630250146404e-03
1.480340170085042473e+03 2.060011279615053814e-03
1.481240620310155009e+03 1.986234410681339112e-03
1.482141070535267545e+03 1.907279021575348935e-03
1.483041520760380081e+03 1.827800052547005026e-03
1.483941970985492617e+03 1.750504507722734897e-03
1.484842421210605153e+03 1.680695097335891145e-03
1.485742871435717689e+03 1.622758720384653158e-03
1.486643321660830452e+03 1.577533691350753225e-03
1.487543771885942988e+03 1.541893898556750183e-03
1.488444222111055524e+03 1.512131750171894764e-03
1.489344672336168060e+03 1.486195974404135338e-03
1.490245122561280596e+03 1.463378873660842877e-03
1.491145572786393132e+03 1.444677066074374818e-03
1.492046023011505667e+03 1.430876911140779775e-03
1.492946473236618203e+03 1.419742550970903112e-03
1.493846923461730739e+03 1.408386873348534737e-03
1.494747373686843275e+03 1.394151974569202406e-03
1.495647823911955811e+03 1.375274902416216737e-03
1.496548274137068574e+03 1.353854529359415932e-03
1.497448724362181110e+03 1.333966441039641021e-03
1.498349174587293646e+03 1.318984853506445900e-03
1.499249624812406182e+03 1.312526365803584529e-03
1.500150075037518718e+03 1.315348719065012216e-03
1.501050525262631254e+03 1.321274469082085561e-03
1.501950975487743790e+03 1.321028516365784465e-03
1.502851425712856326e+03 1.309538516511598964e-03
1.503751875937968862e+03 1.287978846450630460e-03
1.504652326163081398e+03 1.262925077586665853e-03
1.505552776388193934e+03 1.240211052244142567e-03
1.506453226613306470e+03 1.217638232297065968e-03
1.507353676838419233e+03 1.189218866780237345e-03
1.508254127063531769e+03 1.155101501297861686e-03
1.509154577288644305e+03 1.122266348286319725e-03
1.510055027513756841e+03 1.097998297968275690e-03
1.510955477738869376e+03 1.083899356549959626e-03
1.511855927963981912e+03 1.076987373282489073e-03
1.512756378189094448e+03 1.075657066325318330e-03
1.513656828414206984e+03 1.079573071364731303e-03
1.514557278639319520e+03 1.086382706411069283e-03
1.515457728864432056e+03 1.092659074503416839e-03
1.516358179089544592e+03 1.095625933536951329e-03
1.517258629314657355e+03 1.093634019900918599e-03
1.518159079539769891e+03 1.087785108924968838e-03
1.519059529764882427e+03 1.082133370719245329e-03
1.519959979989994963e+03 1.080606952701945777e-03
1.520860430215107499e+03 1.083542507269853131e-03
1.521760880440220035e+03 1.088401080624737047e-03
1.522661330665332571e+03 1.093051798483942426e-03
1.523561780890445107e+03 1.096673598892660773e-03
1.524462231115557643e+03 1.098347340877568528e-03
1.525362681340670179e+03 1.094614906348238478e-03
1.526263131565782714e+03 1.081146650611055325e-03
1.527163581790895478e+03 1.059048465420418935e-03
1.528064032016008014e+03 1.036804829236315575e-03
1.528964482241120550e+03 1.020502058892856691e-03
1.529864932466233086e+03 1.008130499965186099e-03
1.530765382691345621e+03 9.960195678186312043e-04
1.531665832916458157e+03 9.840935381314635556e-04
1.532566283141570693e+03 9.727552181236255591e-04
1.533466733366683229e+03 9.618653173946544030e-04
1.534367183591795765e+03 9.531712441411074486e-04
1.535267633816908301e+03 9.479479314214321519e-04
1.536168084042020837e+03 9.467429111690815746e-04
1.537068534267133600e+03 9.504287312260795931e-04
1.537968984492246136e+03 9.590002330812835490e-04
1.538869434717358672e+03 9.699262972026601298e-04
1.539769884942471208e+03 9.782276747946701441e-04
1.540670335167583744e+03 9.799497512546263573e-04
1.541570785392696280e+03 9.734581341480495103e-04
1.542471235617808816e+03 9.609186321401393376e-04
1.543371685842921352e+03 9.465306453663337302e-04
1.544272136068033888e+03 9.327474732897223474e-04
1.545172586293146423e+03 9.215576192755534036e-04
1.546073036518258959e+03 9.149277898111655288e-04
1.546973486743371723e+03 9.116639633266654559e-04
1.547873936968484259e+03 9.075273978211494900e-04
1.548774387193596795e+03 8.981415048517924025e-04
1.549674837418709330e+03 8.834955950815420777e-04
1.550575287643821866e+03 8.685860659947865344e-04
1.551475737868934402e+03 8.565969474972717724e-04
1.552376188094046938e+03 8.466789803577477952e-04
1.553276638319159474e+03 8.387776741539710061e-04
1.554177088544272010e+03 8.342974985181461547e-04
1.555077538769384546e+03 8.311289916887682015e-04
1.555977988994497082e+03 8.257944590768109914e-04
1.556878439219609618e+03 8.191455431845925386e-04
1.557778889444722381e+03 8.135493619270507204e-04
1.558679339669834917e+03 8.079663213849849453e-04
1.559579789894947453e+03 8.015121811692991734e-04
1.560480240120059989e+03 7.955769345436463410e-04
1.561380690345172525e+03 7.916603753974405834e-04
1.562281140570285061e+03 7.911497738880184441e-04
1.563181590795397597e+03 7.963496920497790434e-04
1.564082041020510133e+03 8.081321107888890564e-04
1.564982491245622668e+03 8.222994232825439663e-04
1.565882941470735204e+03 8.326336723454155027e-04
1.566783391695847740e+03 8.381970554716052261e-04
1.567683841920960504e+03 8.437551380608415827e-04
1.568584292146073039e+03 8.529831456102663322e-04
1.569484742371185575e+03 8.658808179699055375e-04
1.570385192596298111e+03 8.823202145274958337e-04
1.571285642821410647e+03 9.016929601814752896e-04
1.572186093046523183e+03 9.163860381605383595e-04
1.573086543271635719e+03 9.135633267737877650e-04
1.573986993496748255e+03 8.869403893069314343e-04
1.574887443721860791e+03 8.413768666360302078e-04
1.575787893946973327e+03 7.825928342333069235e-04
1.576688344172085863e+03 7.088563891972254503e-04
1.577588794397198626e+03 6.184878509155564705e-04
1.578489244622311162e+03 5.214919035002638743e-04
1.579389694847423698e+03 4.324290434150293463e-04
1.580290145072536234e+03 3.588907512535686323e-04
1.581190595297648770e+03 3.019810619133893943e-04
1.582091045522761306e+03 2.595214230782909044e-04
1.582991495747873842e+03 2.282402241686434157e-04
1.583891945972986377e+03 2.051357221150394022e-04
1.584792396198098913e+03 1.876397964647252240e-04
1.585692846423211449e+03 1.732972264400442508e-04
1.586593296648323985e+03 1.603223972531251035e-04
1.587493746873436749e+03 1.485154201515492367e-04
1.588394197098549284e+03 1.383652693894443938e-04
1.589294647323661820e+03 1.299560653181054172e-04
1.590195097548774356e+03 1.229805961943537785e-04
1.591095547773886892e+03 1.170276790360376607e-04
1.591995997998999428e+03 1.118445783056952914e-04
1.592896448224111964e+03 1.073993803303451591e-04
1.593796898449224500e+03 1.037106149047809103e-04
1.594697348674337036e+03 1.007699274001520450e-04
1.595597798899449572e+03 9.854434291052725455e-05
1.596498249124562108e+03 9.691696892897452126e-05
1.597398699349674871e+03 9.562208279935325726e-05
1.598299149574787407e+03 9.442254809100952004e-05
1.599199599799899943e+03 9.322010019865881007e-05
1.600100050025012479e+03 9.174092672798649052e-05
1.601000500250125015e+03 8.988114492802662674e-05
1.601900950475237551e+03 8.819323070272057277e-05
1.602801400700350086e+03 8.732068222787708043e-05
1.603701850925462622e+03 8.758425615558676643e-05
1.604602301150575158e+03 8.905708922140906738e-05
1.605502751375687694e+03 9.168273218039393131e-05
1.606403201600800230e+03 9.529650585333905176e-05
1.607303651825912766e+03 9.923371217183931325e-05
1.608204102051025529e+03 1.024270080063911911e-04
1.609104552276138065e+03 1.042882683273133190e-04
1.610005002501250601e+03 1.044066056864056149e-04
1.610905452726363137e+03 1.025309761591325125e-04
1.611805902951475673e+03 9.924949384370893913e-05
1.612706353176588209e+03 9.552364415128274241e-05
1.613606803401700745e+03 9.169927620617578730e-05
1.614507253626813281e+03 8.733087286515341238e-05
1.615407703851925817e+03 8.247989870601646009e-05
1.616308154077038353e+03 7.821057117196382285e-05
1.617208604302150889e+03 7.519511208395079124e-05
1.618109054527263652e+03 7.315913129930093546e-05
1.619009504752376188e+03 7.147363902498797973e-05
1.619909954977488724e+03 6.953476064541261163e-05
1.620810405202601260e+03 6.676850642858073376e-05
1.621710855427713796e+03 6.333996583189571391e-05
1.622611305652826331e+03 6.001180537591926706e-05
1.623511755877938867e+03 5.722011595361710092e-05
1.624412206103051403e+03 5.498408895825302324e-05
1.625312656328163939e+03 5.318253829724836932e-05
1.626213106553276475e+03 5.169482440803047936e-05
1.627113556778389011e+03 5.043159055517273525e-05
1.628014007003501774e+03 4.933153259909741939e-05
1.628914457228614310e+03 4.835309551538454485e-05
1.629814907453726846e+03 4.746778112750533438e-05
1.630715357678839382e+03 4.665564224537038378e-05
1.631615807903951918e+03 4.590239111827549797e-05
1.632516258129064454e+03 4.519755488994038026e-05
1.633416708354176990e+03 4.453328656790617304e-05
1.634317158579289526e+03 4.390358530825928075e-05
1.635217608804402062e+03 4.330377503094927127e-05
1.636118059029514598e+03 4.273014875954345355e-05
1.637018509254627133e+03 4.217972125894134264e-05
1.637918959479739897e+03 4.165005379567253630e-05
1.638819409704852433e+03 4.113912782758942900e-05
1.639719859929964969e+03 4.064525248216123069e-05
1.640620310155077505e+03 4.016699576212044535e-05
1.641520760380190040e+03 3.970313267730286264e-05
1.642421210605302576e+03 3.925260562990234424e-05
1.643321660830415112e+03 3.881449379301245202e-05
1.644222111055527648e+03 3.838798917480979464e-05
1.645122561280640184e+03 3.797237771269466660e-05
1.646023011505752720e+03 3.756702419425312218e-05
1.646923461730865256e+03 3.717136012030162817e-05
1.647823911955978019e+03 3.678487385210122676e-05
1.648724362181090555e+03 3.640710254834353399e-05
1.649624812406203091e+03 3.603762551668875992e-05
1.650525262631315627e+03 3.567605869247452750e-05
1.651425712856428163e+03 3.532205002249896544e-05
1.652326163081540699e+03 3.497527558086698088e-05
1.653226613306653235e+03 3.463543628103221206e-05
1.654127063531765771e+03 3.430225507656984256e-05
1.655027513756878307e+03 3.397547456506599505e-05
1.655927963981990843e+03 3.365485492647896201e-05
1.656828414207103378e+03 3.334017214056906795e-05
1.657728864432216142e+03 3.303121643842200401e-05
1.658629314657328678e+03 3.272779095134311798e-05
1.659529764882441214e+03 3.242971052696954015e-05
1.660430215107553749e+03 3.213680068771969085e-05
1.661330665332666285e+03 3.184889671093630285e-05
1.662231115557778821e+03 3.156584281352634670e-05
1.663131565782891357e+03 3.128749142668994381e-05
1.664032016008003893e+03 3.101370254862955171e-05
1.664932466233116429e+03 3.074434316500798870e-05
1.665832916458228965e+03 3.047928672848189722e-05
1.666733366683341501e+03 3.021841268992448817e-05
1.667633816908454037e+03 2.996160607502926129e-05
1.668534267133566800e+03 2.970875710087888464e-05
1.669434717358679336e+03 2.945976082782612550e-05
1.670335167583791872e+03 2.921451684265806951e-05
1.671235617808904408e+03 2.897292896956399645e-05
1.672136068034016944e+03 2.873490500587622869e-05
1.673036518259129480e+03 2.850035647994133154e-05
1.673936968484242016e+03 2.826919842881625190e-05
1.674837418709354552e+03 2.804134919376240797e-05
1.675737868934467087e+03 2.781673023176140053e-05
1.676638319159579623e+03 2.759526594147879204e-05
1.677538769384692159e+03 2.737688350229405688e-05
1.678439219609804923e+03 2.716151272516604832e-05
1.679339669834917459e+03 2.694908591424166906e-05
1.680240120060029994e+03 2.673953773823858362e-05
1.681140570285142530e+03 2.653280511073561720e-05
1.682041020510255066e+03 2.632882707859291924e-05
1.682941470735367602e+03 2.612754471781201029e-05
1.683841920960480138e+03 2.592890103620850816e-05
1.684742371185592674e+03 2.573284088233772579e-05
1.685642821410705210e+03 2.553931086017088424e-05
1.686543271635817746e+03 2.534825924905901017e-05
1.687443721860930282e+03 2.515963592857786403e-05
1.688344172086043045e+03 2.497339230787554639e-05
1.689244622311155581e+03 2.478948125918530740e-05
1.690145072536268117e+03 2.460785705519188862e-05
1.691045522761380653e+03 2.442847530997321130e-05
1.691945972986493189e+03 2.425129292325908965e-05
1.692846423211605725e+03 2.407626802777202262e-05
1.693746873436718261e+03 2.390335993943591044e-05
1.694647323661830796e+03 2.373252911025632331e-05
1.695547773886943332e+03 2.356373708369300187e-05
1.696448224112055868e+03 2.339694645235641953e-05
1.697348674337168404e+03 2.323212081787826507e-05
1.698249124562281168e+03 2.306922475281449601e-05
1.699149574787393703e+03 2.290822376445207135e-05
1.700050025012506239e+03 2.274908426039798064e-05
1.700950475237618775e+03 2.259177351584510681e-05
1.701850925462731311e+03 2.243625964240510002e-05
1.702751375687843847e+03 2.228251155842051660e-05
1.703651825912956383e+03 2.213049896066541104e-05
1.704552276138068919e+03 2.198019229735208318e-05
1.705452726363181455e+03 2.183156274237047534e-05
1.706353176588293991e+03 2.168458217068714382e-05
1.707253626813406527e+03 2.153922313484234782e-05
1.708154077038519290e+03 2.139545884247852275e-05
1.709054527263631826e+03 2.125326313484753076e-05
1.709954977488744362e+03 2.111261046624285425e-05
1.710855427713856898e+03 2.097347588430340995e-05
1.711755877938969434e+03 2.083583501114898346e-05
1.712656328164081970e+03 2.069966402529651960e-05
1.713556778389194506e+03 2.056493964432312661e-05
1.714457228614307041e+03 2.043163910823137907e-05
1.715357678839419577e+03 2.029974016348640942e-05
1.716258129064532113e+03 2.016922104768793195e-05
1.717158579289644649e+03 2.004006047484685186e-05
1.718059029514757185e+03 1.991223762123579672e-05
1.718959479739869948e+03 1.978573211178728182e-05
1.719859929964982484e+03 1.966052400701038844e-05
1.720760380190095020e+03 1.953659379040481313e-05
1.721660830415207556e+03 1.941392235634585366e-05
1.722561280640320092e+03 1.929249099841891550e-05
1.723461730865432628e+03 1.917228139818437184e-05
1.724362181090545164e+03 1.905327561435172707e-05
1.725262631315657700e+03 1.893545607234297477e-05
1.726163081540770236e+03 1.881880555423242813e-05
1.727063531765882772e+03 1.870330718904012211e-05
1.727963981990995308e+03 1.858894444336887732e-05
1.728864432216108071e+03 1.847570111236553685e-05
1.729764882441220607e+03 1.836356131099546306e-05
1.730665332666333143e+03 1.825250946561483080e-05
1.731565782891445679e+03 1.814253030583049513e-05
1.732466233116558215e+03 1.803360885663080106e-05
1.733366683341670750e+03 1.792573043078204330e-05
1.734267133566783286e+03 1.781888062147489208e-05
1.735167583791895822e+03 1.771304529521223358e-05
1.736068034017008358e+03 1.760821058492891445e-05
1.736968484242120894e+03 1.750436288333298877e-05
1.737868934467233430e+03 1.740148883646144737e-05
1.738769384692346193e+03 1.729957533743947556e-05
1.739669834917458729e+03 1.719860952043665288e-05
1.740570285142571265e+03 1.709857875481376560e-05
1.741470735367683801e+03 1.699947063944867880e-05
1.742371185592796337e+03 1.690127299723997000e-05
1.743271635817908873e+03 1.680397386977583595e-05
1.744172086043021409e+03 1.670756151216782525e-05
1.745072536268133945e+03 1.661202438803719268e-05
1.745972986493246481e+03 1.651735116465326221e-05
1.746873436718359017e+03 1.642353070821594467e-05
1.747773886943471553e+03 1.633055207927644052e-05
1.748674337168584316e+03 1.623840452829253950e-05
1.749574787393696852e+03 1.614707749131350948e-05
1.750475237618809388e+03 1.605656058578894363e-05
1.751375687843921924e+03 1.596684360649786580e-05
1.752276138069034459e+03 1.587791652159409298e-05
1.753176588294146995e+03 1.578976946876306381e-05
1.754077038519259531e+03 1.570239275148663341e-05
1.754977488744372067e+03 1.561577683541266978e-05
1.755877938969484603e+03 1.552991234482439689e-05
1.756778389194597139e+03 1.544479005920729899e-05
1.757678839419709675e+03 1.536040090991055380e-05
1.758579289644822438e+03 1.527673597689808516e-05
1.759479739869934974e+03 1.519378648558868971e-05
1.760380190095047510e+03 1.511154380377961319e-05
1.761280640320160046e+03 1.502999943865295818e-05
1.762181090545272582e+03 1.494914503386170264e-05
1.763081540770385118e+03 1.486897236669174998e-05
1.763981990995497654e+03 1.478947334529847726e-05
1.764882441220610190e+03 1.471064000601575046e-05
1.765782891445722726e+03 1.463246451073384763e-05
1.766683341670835262e+03 1.455493914434498200e-05
1.767583791895947797e+03 1.447805631225452604e-05
1.768484242121060333e+03 1.440180853795459921e-05
1.769384692346173097e+03 1.432618846066017008e-05
1.770285142571285633e+03 1.425118883300318703e-05
1.771185592796398169e+03 1.417680251878564887e-05
1.772086043021510704e+03 1.410302249078714810e-05
1.772986493246623240e+03 1.402984182862748838e-05
1.773886943471735776e+03 1.395725371668116060e-05
1.774787393696848312e+03 1.388525144204355073e-05
1.775687843921960848e+03 1.381382839254554879e-05
1.776588294147073384e+03 1.374297805481648955e-05
1.777488744372185920e+03 1.367269401239402899e-05
1.778389194597298456e+03 1.360296994387874751e-05
1.779289644822411219e+03 1.353379962113222790e-05
1.780190095047523755e+03 1.346517690751856420e-05
1.781090545272636291e+03 1.339709575618691082e-05
1.781990995497748827e+03 1.332955020839344092e-05
1.782891445722861363e+03 1.326253439186384019e-05
1.783791895947973899e+03 1.319604251919184208e-05
1.784692346173086435e+03 1.313006888627645872e-05
1.785592796398198971e+03 1.306460787079383186e-05
1.786493246623311506e+03 1.299965393070422381e-05
1.787393696848424042e+03 1.293520160279278974e-05
1.788294147073536578e+03 1.287124550124385178e-05
1.789194597298649342e+03 1.280778031624603233e-05
1.790095047523761878e+03 1.274480081262979813e-05
1.790995497748874413e+03 1.268230182853456415e-05
1.791895947973986949e+03 1.262027827410537076e-05
1.792796398199099485e+03 1.255872513021844644e-05
1.793696848424212021e+03 1.249763744723446337e-05
1.794597298649324557e+03 1.243701034377936564e-05
1.795497748874437093e+03 1.237683900555138939e-05
1.796398199099549629e+03 1.231711868415343472e-05
1.797298649324662165e+03 1.225784469595183952e-05
1.798199099549774701e+03 1.219901242095783688e-05
1.799099549774887464e+03 1.214061730173465056e-05
1.800000000000000000e+03 1.208265484232629810e-05
