0.000000000000000000e+00 9.653543168356730139e-04
9.004502251125562351e-01 1.289414618298305145e-03
1.800900450225112470e+00 1.702151565138613695e-03
2.701350675337668594e+00 2.125836035159458549e-03
3.601800900450224940e+00 2.398887103219809157e-03
4.502251125562780842e+00 2.415853036800905563e-03
5.402701350675337189e+00 2.194259678057584092e-03
6.303151575787893535e+00 1.812728051895558159e-03
7.203601800900449881e+00 1.401484210340910421e-03
8.104052026013006227e+00 1.058598814669688484e-03
9.004502251125561685e+00 8.046896165676547131e-04
9.904952476238118919e+00 6.221543064704667140e-04
1.080540270135067438e+01 4.897418236277039337e-04
1.170585292646323161e+01 3.925074307826155809e-04
1.260630315157578707e+01 3.203084370176198970e-04
1.350675337668834430e+01 2.659162892617732729e-04
1.440720360180089976e+01 2.242742691943812512e-04
1.530765382691345522e+01 1.919390815847923817e-04
1.620810405202601245e+01 1.665670534400790826e-04
1.710855427713856969e+01 1.464929557460518191e-04
1.800900450225112337e+01 1.303270535864541903e-04
1.890945472736368060e+01 1.166489565299746919e-04
1.980990495247623784e+01 1.043325488403020802e-04
2.071035517758879507e+01 9.317538499658614009e-05
2.161080540270134875e+01 8.343394170440874647e-05
2.251125562781390599e+01 7.513797954521674494e-05
2.341170585292646322e+01 6.810073373260130361e-05
2.431215607803901690e+01 6.209682342128255744e-05
2.521260630315157414e+01 5.693570358489412510e-05
2.611305652826413137e+01 5.247209567105962471e-05
2.701350675337668861e+01 4.859937456152612988e-05
2.791395697848924229e+01 4.523934233617198845e-05
2.881440720360179952e+01 4.232637336683851213e-05
2.971485742871435676e+01 3.977890350454023804e-05
3.061530765382691044e+01 3.747860729611047001e-05
3.151575787893946767e+01 3.531430494461686799e-05
3.241620810405202491e+01 3.322627664345334720e-05
3.331665832916458214e+01 3.119634975215217779e-05
3.421710855427713938e+01 2.927425352920339348e-05
3.511755877938969661e+01 2.752709419019910329e-05
3.601800900450224674e+01 2.597070075094440000e-05
3.691845922961480397e+01 2.457857416703848624e-05
3.781890945472736121e+01 2.331144580875819301e-05
3.871935967983991844e+01 2.214485899471891885e-05
3.961980990495247568e+01 2.107534421581181970e-05
4.052026013006503291e+01 2.010262522712379191e-05
4.142071035517759015e+01 1.922181612549245084e-05
4.232116058029014027e+01 1.842702368086883839e-05
4.322161080540269751e+01 1.771475148446195226e-05
4.412206103051525474e+01 1.708546873808993799e-05
4.502251125562781198e+01 1.654432906027558228e-05
4.592296148074036921e+01 1.610043611620080544e-05
4.682341170585292645e+01 1.576217521808574021e-05
4.772386193096548368e+01 1.552541409899516349e-05
4.862431215607803381e+01 1.534600673260472009e-05
4.952476238119059104e+01 1.511055316758175224e-05
5.042521260630314828e+01 1.471253499379917087e-05
5.132566283141570551e+01 1.417984898259348314e-05
5.222611305652826275e+01 1.359795738790666129e-05
5.312656328164081998e+01 1.300417580430188153e-05
5.402701350675337721e+01 1.242880060392741731e-05
5.492746373186592734e+01 1.190672200023123241e-05
5.582791395697848458e+01 1.144343268054049888e-05
5.672836418209104181e+01 1.102630713403657280e-05
5.762881440720359905e+01 1.065621982879070702e-05
5.852926463231615628e+01 1.034368766248571335e-05
5.942971485742871351e+01 1.009083303974009431e-05
6.033016508254127075e+01 9.887875718597079482e-06
6.123061530765382088e+01 9.720438457892324846e-06
6.213106553276637811e+01 9.585079098492504894e-06
6.303151575787893535e+01 9.494405226123367174e-06
6.393196598299149258e+01 9.447970874928950368e-06
6.483241620810404982e+01 9.406579326020492730e-06
6.573286643321659994e+01 9.320310966401406069e-06
6.663331665832916428e+01 9.164946119191034118e-06
6.753376688344171441e+01 8.925252523564647150e-06
6.843421710855427875e+01 8.619524320752020773e-06
6.933466733366682888e+01 8.318370794185114380e-06
7.023511755877939322e+01 8.083241458436785456e-06
7.113556778389194335e+01 7.937691169092290044e-06
7.203601800900449348e+01 7.885355552826957043e-06
7.293646823411705782e+01 7.918267196178971362e-06
7.383691845922960795e+01 8.002508148216059842e-06
7.473736868434217229e+01 8.076309272116358439e-06
7.563781890945472242e+01 8.109702685599589150e-06
7.653826913456728676e+01 8.148741100666895320e-06
7.743871935967983688e+01 8.261410021021295297e-06
7.833916958479238701e+01 8.461178991561139957e-06
7.923961980990495135e+01 8.672606379572785849e-06
8.014007003501750148e+01 8.784820784308294744e-06
8.104052026013006582e+01 8.736819794824986750e-06
8.194097048524261595e+01 8.539203575274238210e-06
8.284142071035518029e+01 8.266847044316366134e-06
8.374187093546773042e+01 8.017516656083944527e-06
8.464232116058028055e+01 7.818310021566048399e-06
8.554277138569284489e+01 7.596179290302202987e-06
8.644322161080539502e+01 7.284435009429586655e-06
8.734367183591795936e+01 6.930821552377733527e-06
8.824412206103050949e+01 6.632036078472610497e-06
8.914457228614307382e+01 6.439493895909331705e-06
9.004502251125562395e+01 6.357793624854319217e-06
9.094547273636817408e+01 6.369787609983404226e-06
9.184592296148073842e+01 6.443806176567908056e-06
9.274637318659328855e+01 6.524540665090536368e-06
9.364682341170585289e+01 6.548002550731025818e-06
9.454727363681840302e+01 6.521849749361378891e-06
9.544772386193096736e+01 6.526550310347596771e-06
9.634817408704351749e+01 6.596985808314666686e-06
9.724862431215606762e+01 6.685116088508542144e-06
9.814907453726863196e+01 6.728968580195629273e-06
9.904952476238118209e+01 6.697497854328630873e-06
9.994997498749374643e+01 6.592619771450364908e-06
1.008504252126062966e+02 6.475688019758616631e-06
1.017508754377188609e+02 6.425656848889234149e-06
1.026513256628314110e+02 6.440217058119003493e-06
1.035517758879439612e+02 6.432281349429137616e-06
1.044522261130565255e+02 6.338053511706090010e-06
1.053526763381690756e+02 6.189301825406465201e-06
1.062531265632816400e+02 6.068192321836592603e-06
1.071535767883941901e+02 6.041416850532945730e-06
1.080540270135067544e+02 6.130149531578279739e-06
1.089544772386193046e+02 6.309240164212326689e-06
1.098549274637318547e+02 6.516143893872057736e-06
1.107553776888444190e+02 6.665242048536790405e-06
1.116558279139569692e+02 6.707092269734111947e-06
1.125562781390695335e+02 6.678541219098937056e-06
1.134567283641820836e+02 6.646909341498663277e-06
1.143571785892946480e+02 6.646637596009450803e-06
1.152576288144071981e+02 6.673654924674173549e-06
1.161580790395197482e+02 6.688222444728919572e-06
1.170585292646323126e+02 6.645421066084882774e-06
1.179589794897448627e+02 6.557305628365036017e-06
1.188594297148574270e+02 6.501774849094236524e-06
1.197598799399699772e+02 6.526108874984605367e-06
1.206603301650825415e+02 6.579519621537444296e-06
1.215607803901950916e+02 6.560357839555413015e-06
1.224612306153076418e+02 6.417397834854108362e-06
1.233616808404202061e+02 6.212662585153255312e-06
1.242621310655327562e+02 6.070412604128574436e-06
1.251625812906453206e+02 6.080838325163192206e-06
1.260630315157578707e+02 6.273984025897831582e-06
1.269634817408704350e+02 6.640729606104861660e-06
1.278639319659829852e+02 7.142701344791946192e-06
1.287643821910955353e+02 7.677381834043878349e-06
1.296648324162080996e+02 8.076737308742089292e-06
1.305652826413206640e+02 8.209305933148218628e-06
1.314657328664331999e+02 8.075234367419592210e-06
1.323661830915457642e+02 7.787219308482593537e-06
1.332666333166583286e+02 7.471874213434069591e-06
1.341670835417708929e+02 7.212791088282281001e-06
1.350675337668834288e+02 7.050498529638124706e-06
1.359679839919959932e+02 7.011928275454627906e-06
1.368684342171085575e+02 7.107227942050196272e-06
1.377688844422210934e+02 7.320074903827869388e-06
1.386693346673336578e+02 7.603115243948636687e-06
1.395697848924462221e+02 7.845900964487191568e-06
1.404702351175587864e+02 7.925358077683653668e-06
1.413706853426713224e+02 7.840749464541799566e-06
1.422711355677838867e+02 7.730357396153232245e-06
1.431715857928964510e+02 7.752872971227372676e-06
1.440720360180089870e+02 7.957616837490921486e-06
1.449724862431215513e+02 8.248920968076333505e-06
1.458729364682341156e+02 8.482561070223938068e-06
1.467733866933466800e+02 8.576923414027946594e-06
1.476738369184592159e+02 8.540747514234581128e-06
1.485742871435717802e+02 8.427421462653448772e-06
1.494747373686843446e+02 8.286384756327455476e-06
1.503751875937968805e+02 8.159234921343275874e-06
1.512756378189094448e+02 8.087607441681367350e-06
1.521760880440220092e+02 8.078168124318421705e-06
1.530765382691345735e+02 8.126717522749179762e-06
1.539769884942471094e+02 8.257110074040616940e-06
1.548774387193596738e+02 8.420945092632675815e-06
1.557778889444722381e+02 8.501108493018439920e-06
1.566783391695847740e+02 8.483820063330323817e-06
1.575787893946973384e+02 8.456202357293541390e-06
1.584792396198099027e+02 8.473011333038503099e-06
1.593796898449224670e+02 8.502146806207096217e-06
1.602801400700350030e+02 8.496501630978025823e-06
1.611805902951475673e+02 8.483445291034427685e-06
1.620810405202601316e+02 8.515350796473917955e-06
1.629814907453726676e+02 8.594204426950298529e-06
1.638819409704852319e+02 8.678754323524254347e-06
1.647823911955977962e+02 8.689799913998313250e-06
1.656828414207103606e+02 8.569609878434154062e-06
1.665832916458228965e+02 8.348647880359672248e-06
1.674837418709354608e+02 8.116343284446499447e-06
1.683841920960480252e+02 7.951542580134813657e-06
1.692846423211605611e+02 7.889391154180687483e-06
1.701850925462731254e+02 7.950344656949707027e-06
1.710855427713856898e+02 8.157906796023996386e-06
1.719859929964982541e+02 8.467945845561338080e-06
1.728864432216107900e+02 8.750252074546639806e-06
1.737868934467233544e+02 8.953061135095757110e-06
1.746873436718359187e+02 9.195090921304814816e-06
1.755877938969484546e+02 9.601146111695652434e-06
1.764882441220610190e+02 1.014067930212312878e-05
1.773886943471735833e+02 1.069469785688212057e-05
1.782891445722861476e+02 1.118898621372610015e-05
1.791895947973986836e+02 1.159801263011079703e-05
1.800900450225112479e+02 1.190010844583250531e-05
1.809904952476238122e+02 1.203039792837552120e-05
1.818909454727363482e+02 1.192132262352624729e-05
1.827913956978489125e+02 1.156926404733655758e-05
1.836918459229614768e+02 1.105502804271648474e-05
1.845922961480740412e+02 1.054545418106721778e-05
1.854927463731865771e+02 1.020304093686110622e-05
1.863931965982991414e+02 1.009152503470198770e-05
1.872936468234117058e+02 1.019795769229839856e-05
1.881940970485242417e+02 1.046295544633365388e-05
1.890945472736368060e+02 1.077830260753084956e-05
1.899949974987493704e+02 1.103545269576442657e-05
1.908954477238619347e+02 1.113346882236114773e-05
1.917958979489744706e+02 1.106407582724553215e-05
1.926963481740870350e+02 1.098870142278254981e-05
1.935967983991995993e+02 1.104320911267446143e-05
1.944972486243121352e+02 1.118741403517141238e-05
1.953976988494246996e+02 1.126741112836210535e-05
1.962981490745372639e+02 1.120216378949740730e-05
1.971985992996498283e+02 1.105127427390272253e-05
1.980990495247623642e+02 1.093425050941448245e-05
1.989994997498749285e+02 1.095402558023360544e-05
1.998999499749874929e+02 1.111757125900319258e-05
2.008004002001000288e+02 1.130416580148663064e-05
2.017008504252125931e+02 1.133903034514040804e-05
2.026013006503251574e+02 1.118030520573177935e-05
2.035017508754377218e+02 1.098521486713848323e-05
2.044022011005502577e+02 1.093808502996780729e-05
2.053026513256628220e+02 1.109145288794969960e-05
2.062031015507753864e+02 1.136940136652525701e-05
2.071035517758879223e+02 1.168813233039313946e-05
2.080040020010004866e+02 1.201983241235520066e-05
2.089044522261130510e+02 1.236819412384125997e-05
2.098049024512256153e+02 1.270341661126453814e-05
2.107053526763381512e+02 1.294975363024283568e-05
2.116058029014507156e+02 1.310086488939418649e-05
2.125062531265632799e+02 1.325465807437561218e-05
2.134067033516758158e+02 1.350721469673254457e-05
2.143071535767883802e+02 1.382035998313736932e-05
2.152076038019009445e+02 1.403253057318046519e-05
2.161080540270135089e+02 1.401899221987614017e-05
2.170085042521260448e+02 1.377007193771350058e-05
2.179089544772386091e+02 1.338283053731439505e-05
2.188094047023511735e+02 1.304056451198651708e-05
2.197098549274637094e+02 1.288299453661624677e-05
2.206103051525762737e+02 1.288298978728375313e-05
2.215107553776888381e+02 1.296836942530911340e-05
2.224112056028014024e+02 1.314148202846944674e-05
2.233116558279139383e+02 1.339626832908167151e-05
2.242121060530265027e+02 1.365821428050633520e-05
2.251125562781390670e+02 1.385918022770749249e-05
2.260130065032516029e+02 1.400759423295477530e-05
2.269134567283641672e+02 1.412326866006266707e-05
2.278139069534767316e+02 1.416394915787521579e-05
2.287143571785892959e+02 1.407387763121829300e-05
2.296148074037018318e+02 1.386014937808856899e-05
2.305152576288143962e+02 1.357197742733288246e-05
2.314157078539269605e+02 1.323679961007412905e-05
2.323161580790394964e+02 1.289467333501481536e-05
2.332166083041520608e+02 1.264273133830731717e-05
2.341170585292646251e+02 1.255787923401326997e-05
2.350175087543771895e+02 1.260732275527875943e-05
2.359179589794897254e+02 1.267798838871934041e-05
2.368184092046022897e+02 1.269318093362383558e-05
2.377188594297148541e+02 1.269534150515408411e-05
2.386193096548273900e+02 1.275247223994685840e-05
2.395197598799399543e+02 1.286870585654953485e-05
2.404202101050525187e+02 1.304059739992106163e-05
2.413206603301650830e+02 1.326112885885759740e-05
2.422211105552776189e+02 1.350761634962096830e-05
2.431215607803901833e+02 1.375923853748732415e-05
2.440220110055027476e+02 1.391007295312494123e-05
2.449224612306152835e+02 1.385577983904691863e-05
2.458229114557278479e+02 1.364848638710654205e-05
2.467233616808404122e+02 1.339950703647524975e-05
2.476238119059529765e+02 1.317936929217763506e-05
2.485242621310655124e+02 1.300655073954948577e-05
2.494247123561780768e+02 1.285138430652971739e-05
2.503251625812906411e+02 1.270855993686108449e-05
2.512256128064031770e+02 1.260046042896273926e-05
2.521260630315157414e+02 1.250534740325828030e-05
2.530265132566283057e+02 1.242141854397287517e-05
2.539269634817408701e+02 1.244991591215993859e-05
2.548274137068534060e+02 1.267782882305198668e-05
2.557278639319659703e+02 1.308635131416074734e-05
2.566283141570785347e+02 1.358254502551274476e-05
2.575287643821910706e+02 1.404133621142120650e-05
2.584292146073036633e+02 1.435005306008099882e-05
2.593296648324161993e+02 1.444830009523905328e-05
2.602301150575287352e+02 1.438150480529888387e-05
2.611305652826413279e+02 1.428286537390715253e-05
2.620310155077538639e+02 1.425041662985143163e-05
2.629314657328663998e+02 1.426092941390210278e-05
2.638319159579789925e+02 1.420910373846626352e-05
2.647323661830915285e+02 1.404228540740686752e-05
2.656328164082040644e+02 1.381093776495562042e-05
2.665332666333166571e+02 1.359731081402614693e-05
2.674337168584291931e+02 1.351327082789583477e-05
2.683341670835417858e+02 1.364305128643372616e-05
2.692346173086543217e+02 1.394959193406774569e-05
2.701350675337668577e+02 1.431734685705822436e-05
2.710355177588794504e+02 1.465485200382369267e-05
2.719359679839919863e+02 1.493986037627109304e-05
2.728364182091045222e+02 1.522712928366892976e-05
2.737368684342171150e+02 1.555335561379139628e-05
2.746373186593296509e+02 1.583505225744625438e-05
2.755377688844421868e+02 1.596676683368810037e-05
2.764382191095547796e+02 1.597141659765594237e-05
2.773386693346673155e+02 1.590972685359710254e-05
2.782391195597798514e+02 1.582654161343665319e-05
2.791395697848924442e+02 1.581196677598954015e-05
2.800400200100049801e+02 1.596406357721185615e-05
2.809404702351175729e+02 1.624739748600973247e-05
2.818409204602301088e+02 1.652714259666787495e-05
2.827413706853426447e+02 1.674023312744592201e-05
2.836418209104552375e+02 1.689408282184641462e-05
2.845422711355677734e+02 1.699229903597351013e-05
2.854427213606803093e+02 1.702919957737414715e-05
2.863431715857929021e+02 1.702029208162595807e-05
2.872436218109054380e+02 1.700010111362769736e-05
2.881440720360179739e+02 1.698899434775572558e-05
2.890445222611305667e+02 1.701959645594336264e-05
2.899449724862431026e+02 1.715707133477933978e-05
2.908454227113556385e+02 1.740831414061543708e-05
2.917458729364682313e+02 1.769445850850851835e-05
2.926463231615807672e+02 1.794580451220823759e-05
2.935467733866933600e+02 1.815729521528058549e-05
2.944472236118058959e+02 1.835113925285386768e-05
2.953476738369184318e+02 1.850678843184141252e-05
2.962481240620310246e+02 1.858777457529758886e-05
2.971485742871435605e+02 1.862675670198772900e-05
2.980490245122560964e+02 1.870325769537782719e-05
2.989494747373686891e+02 1.890622729614009867e-05
2.998499249624812251e+02 1.925783012595106087e-05
3.007503751875937610e+02 1.971100195321328843e-05
3.016508254127063537e+02 2.025448101071668659e-05
3.025512756378188897e+02 2.093779273376165318e-05
3.034517258629314256e+02 2.173622045952820650e-05
3.043521760880440183e+02 2.243994566467961998e-05
3.052526263131565543e+02 2.287800013296960392e-05
3.061530765382691470e+02 2.310272700658126517e-05
3.070535267633816829e+02 2.323236972603304041e-05
3.079539769884942189e+02 2.333024509683763337e-05
3.088544272136068116e+02 2.342343826101262740e-05
3.097548774387193475e+02 2.347750959544107999e-05
3.106553276638318835e+02 2.335022043471408337e-05
3.115557778889444762e+02 2.300601224749994309e-05
3.124562281140570121e+02 2.267974417157612484e-05
3.133566783391695481e+02 2.259856018194545671e-05
3.142571285642821408e+02 2.273069423169313960e-05
3.151575787893946767e+02 2.286454888180183947e-05
3.160580290145072127e+02 2.281916511122855591e-05
3.169584792396198054e+02 2.253726319188338525e-05
3.178589294647323413e+02 2.206088748796998403e-05
3.187593796898449341e+02 2.157333972258131921e-05
3.196598299149574700e+02 2.122983843990056946e-05
3.205602801400700059e+02 2.099163784498614494e-05
3.214607303651825987e+02 2.081286761753273966e-05
3.223611805902951346e+02 2.074480520522155685e-05
3.232616308154076705e+02 2.083038578989452575e-05
3.241620810405202633e+02 2.110173697256053992e-05
3.250625312656327992e+02 2.156778809006051139e-05
3.259629814907453351e+02 2.215805857188229942e-05
3.268634317158579279e+02 2.271699279566958521e-05
3.277638819409704638e+02 2.310609567914811540e-05
3.286643321660829997e+02 2.336496405175165879e-05
3.295647823911955925e+02 2.366946229818679570e-05
3.304652326163081284e+02 2.403884026589456248e-05
3.313656828414207212e+02 2.431681013058940190e-05
3.322661330665332571e+02 2.450013487078606767e-05
3.331665832916457930e+02 2.469805304135789273e-05
3.340670335167583858e+02 2.483779591013709250e-05
3.349674837418709217e+02 2.472174855568511502e-05
3.358679339669834576e+02 2.443741889203446613e-05
3.367683841920960504e+02 2.433726660231169678e-05
3.376688344172085863e+02 2.463167375271952449e-05
3.385692846423211222e+02 2.523379554284237411e-05
3.394697348674337150e+02 2.591894993735200352e-05
3.403701850925462509e+02 2.648862537058604630e-05
3.412706353176587868e+02 2.676969639569076834e-05
3.421710855427713796e+02 2.668981231619797789e-05
3.430715357678839155e+02 2.622839075762368024e-05
3.439719859929965082e+02 2.541084264428645890e-05
3.448724362181090441e+02 2.450019040418672671e-05
3.457728864432215801e+02 2.383957973259458849e-05
3.466733366683341728e+02 2.355722455118975419e-05
3.475737868934467087e+02 2.352113832671726189e-05
3.484742371185592447e+02 2.352972251142710898e-05
3.493746873436718374e+02 2.355708828582291867e-05
3.502751375687843733e+02 2.364966366316735330e-05
3.511755877938969093e+02 2.375095880042988759e-05
3.520760380190095020e+02 2.380821785373802619e-05
3.529764882441220379e+02 2.386435250582430169e-05
3.538769384692345739e+02 2.393237309012274120e-05
3.547773886943471666e+02 2.394022084351858686e-05
3.556778389194597025e+02 2.386715222714317014e-05
3.565782891445722953e+02 2.378482182642195950e-05
3.574787393696848312e+02 2.377882550160644864e-05
3.583791895947973671e+02 2.389219672493213191e-05
3.592796398199099599e+02 2.408973454809359407e-05
3.601800900450224958e+02 2.426998414795885730e-05
3.610805402701350317e+02 2.436384957205914347e-05
3.619809904952476245e+02 2.435855029231257180e-05
3.628814407203601604e+02 2.422603067736188722e-05
3.637818909454726963e+02 2.392945893651563245e-05
3.646823411705852891e+02 2.354924996544783359e-05
3.655827913956978250e+02 2.328554906674053124e-05
3.664832416208103609e+02 2.325274092981755776e-05
3.673836918459229537e+02 2.339452485959419179e-05
3.682841420710354896e+02 2.356618243036948064e-05
3.691845922961480824e+02 2.365978175357072680e-05
3.700850425212606183e+02 2.369260520136911799e-05
3.709854927463731542e+02 2.370542675272732742e-05
3.718859429714857470e+02 2.370196580984065075e-05
3.727863931965982829e+02 2.369241133062016509e-05
3.736868434217108188e+02 2.368484063956917431e-05
3.745872936468234116e+02 2.369276703169625507e-05
3.754877438719359475e+02 2.372710594130083525e-05
3.763881940970484834e+02 2.378535903256205272e-05
3.772886443221610762e+02 2.390600882276085532e-05
3.781890945472736121e+02 2.413875077240657641e-05
3.790895447723861480e+02 2.449739296491578805e-05
3.799899949974987408e+02 2.497366456906152082e-05
3.808904452226112767e+02 2.545849204974256385e-05
3.817908954477238694e+02 2.574858401569702721e-05
3.826913456728364054e+02 2.573803226903301645e-05
3.835917958979489413e+02 2.547054261148412084e-05
3.844922461230615340e+02 2.503188838287112044e-05
3.853926963481740700e+02 2.452414237814466534e-05
3.862931465732866059e+02 2.404978007801493621e-05
3.871935967983991986e+02 2.370251405824520802e-05
3.880940470235117346e+02 2.351440535813722937e-05
3.889944972486242705e+02 2.343387258904197789e-05
3.898949474737368632e+02 2.337762622246101552e-05
3.907953976988493991e+02 2.325250960777049965e-05
3.916958479239619351e+02 2.307402293184584788e-05
3.925962981490745278e+02 2.292224007311377483e-05
3.934967483741870637e+02 2.277626058978965241e-05
3.943971985992996565e+02 2.258322254831211226e-05
3.952976488244121924e+02 2.239140911373209815e-05
3.961980990495247283e+02 2.226251172872866440e-05
3.970985492746373211e+02 2.220084343413134169e-05
3.979989994997498570e+02 2.220666719841753064e-05
3.988994497248623929e+02 2.222021324814407530e-05
3.997998999499749857e+02 2.216469451719070614e-05
4.007003501750875216e+02 2.210233067013519048e-05
4.016008004002000575e+02 2.216664523978228657e-05
4.025012506253126503e+02 2.234514051491654974e-05
4.034017008504251862e+02 2.245838983062495842e-05
4.043021510755377221e+02 2.239743503551545024e-05
4.052026013006503149e+02 2.223756912611854432e-05
4.061030515257628508e+02 2.209503781616501574e-05
4.070035017508754436e+02 2.203356887626026401e-05
4.079039519759879795e+02 2.208199071998012510e-05
4.088044022011005154e+02 2.223467154262460656e-05
4.097048524262131082e+02 2.242283636336534367e-05
4.106053026513256441e+02 2.255563096321370076e-05
4.115057528764381800e+02 2.258767383333855908e-05
4.124062031015507728e+02 2.253565171631310472e-05
4.133066533266633087e+02 2.243666818950846410e-05
4.142071035517758446e+02 2.226241503600148188e-05
4.151075537768884374e+02 2.198760094321846410e-05
4.160080040020009733e+02 2.165668241731985802e-05
4.169084542271135092e+02 2.137677143903460414e-05
4.178089044522261020e+02 2.123754126099675334e-05
4.187093546773386379e+02 2.122569726280084290e-05
4.196098049024512306e+02 2.127068894988673502e-05
4.205102551275637666e+02 2.130717294882089480e-05
4.214107053526763025e+02 2.127824217315122781e-05
4.223111555777888952e+02 2.118809916228331196e-05
4.232116058029014312e+02 2.109878477158602000e-05
4.241120560280139671e+02 2.106189033874752203e-05
4.250125062531265598e+02 2.108244812753259879e-05
4.259129564782390958e+02 2.112829823160963317e-05
4.268134067033516317e+02 2.114721811473317309e-05
4.277138569284642244e+02 2.108910869864117369e-05
4.286143071535767604e+02 2.098087159118118555e-05
4.295147573786892963e+02 2.090792814123901034e-05
4.304152076038018890e+02 2.089998185389776083e-05
4.313156578289144250e+02 2.090742136982055114e-05
4.322161080540270177e+02 2.086963153668973056e-05
4.331165582791395536e+02 2.079932519755857068e-05
4.340170085042520896e+02 2.077753391508181492e-05
4.349174587293646823e+02 2.086030745281994433e-05
4.358179089544772182e+02 2.102373907682706061e-05
4.367183591795897541e+02 2.118765098666416054e-05
4.376188094047023469e+02 2.133266267730988186e-05
4.385192596298148828e+02 2.156016515316273871e-05
4.394197098549274187e+02 2.197099401522292403e-05
4.403201600800400115e+02 2.251540265029012796e-05
4.412206103051525474e+02 2.304382715125897466e-05
4.421210605302650833e+02 2.343363997716025276e-05
4.430215107553776761e+02 2.361282362871490264e-05
4.439219609804902120e+02 2.359673290349837744e-05
4.448224112056028048e+02 2.350145959625705224e-05
4.457228614307153407e+02 2.343508292068826528e-05
4.466233116558278766e+02 2.336770505943908043e-05
4.475237618809404694e+02 2.318334324123999415e-05
4.484242121060530053e+02 2.285321692280181005e-05
4.493246623311655412e+02 2.251660061941399872e-05
4.502251125562781340e+02 2.232662404117178432e-05
4.511255627813906699e+02 2.227081277869441016e-05
4.520260130065032058e+02 2.226216378547335112e-05
4.529264632316157986e+02 2.227671138188154127e-05
4.538269134567283345e+02 2.230263751935673383e-05
4.547273636818408704e+02 2.229302572719201188e-05
4.556278139069534632e+02 2.226585975514892824e-05
4.565282641320659991e+02 2.235260606963420911e-05
4.574287143571785919e+02 2.262378749759680246e-05
4.583291645822911278e+02 2.300820068258855230e-05
4.592296148074036637e+02 2.344466046431135228e-05
4.601300650325162565e+02 2.392928594835512705e-05
4.610305152576287924e+02 2.442147312418714876e-05
4.619309654827413283e+02 2.485849095762806245e-05
4.628314157078539210e+02 2.513854634243868570e-05
4.637318659329664570e+02 2.509140452660911042e-05
4.646323161580789929e+02 2.466161549859091688e-05
4.655327663831915856e+02 2.404543872062728894e-05
4.664332166083041216e+02 2.354530073318715502e-05
4.673336668334167143e+02 2.338172921190309581e-05
4.682341170585292502e+02 2.359429394722896206e-05
4.691345672836417862e+02 2.400689156891370500e-05
4.700350175087543789e+02 2.434863843866616600e-05
4.709354677338669148e+02 2.444065805663693568e-05
4.718359179589794508e+02 2.428083474330988958e-05
4.727363681840920435e+02 2.400856900363541901e-05
4.736368184092045794e+02 2.379783171287001896e-05
4.745372686343171154e+02 2.373213118998470685e-05
4.754377188594297081e+02 2.378356869966288510e-05
4.763381690845422440e+02 2.390001323977377406e-05
4.772386193096547800e+02 2.402229785161202481e-05
4.781390695347673727e+02 2.410099296487600278e-05
4.790395197598799086e+02 2.417622898103620967e-05
4.799399699849925014e+02 2.426727757917315114e-05
4.808404202101050373e+02 2.434192166832330239e-05
4.817408704352175732e+02 2.438781444977325711e-05
4.826413206603301660e+02 2.435067027647821683e-05
4.835417708854427019e+02 2.421187795342109330e-05
4.844422211105552378e+02 2.412828750506950897e-05
4.853426713356678306e+02 2.425471008542261957e-05
4.862431215607803665e+02 2.456029645545285990e-05
4.871435717858929024e+02 2.488423197216970141e-05
4.880440220110054952e+02 2.515638989249763567e-05
4.889444722361180311e+02 2.548974858975179770e-05
4.898449224612305670e+02 2.599351174408041695e-05
4.907453726863431598e+02 2.664536371664038991e-05
4.916458229114556957e+02 2.733673141926305040e-05
4.925462731365682885e+02 2.795421558099582459e-05
4.934467233616808244e+02 2.844514445700110241e-05
4.943471735867933603e+02 2.885102107426388082e-05
4.952476238119059531e+02 2.926019874084812044e-05
4.961480740370184890e+02 2.965777741740879310e-05
4.970485242621310249e+02 2.992590581652576943e-05
4.979489744872436177e+02 2.999372908201114601e-05
4.988494247123561536e+02 2.993760403887476049e-05
4.997498749374686895e+02 2.988642356256575997e-05
5.006503251625812823e+02 2.984898261459497610e-05
5.015507753876938182e+02 2.974538475364774210e-05
5.024512256128063541e+02 2.952827112056407831e-05
5.033516758379189469e+02 2.926365235308132123e-05
5.042521260630314828e+02 2.909258184476441137e-05
5.051525762881440755e+02 2.910906181166839218e-05
5.060530265132566115e+02 2.929684076407333069e-05
5.069534767383691474e+02 2.958291804895583809e-05
5.078539269634817401e+02 2.987929566705534260e-05
5.087543771885942760e+02 3.013844414074565048e-05
5.096548274137068120e+02 3.038553379395961712e-05
5.105552776388194047e+02 3.068896270896125051e-05
5.114557278639319406e+02 3.109298764503841151e-05
5.123561780890445334e+02 3.153575934278183152e-05
5.132566283141570693e+02 3.181465234297160333e-05
5.141570785392696052e+02 3.178387369047616461e-05
5.150575287643821412e+02 3.157533850644747016e-05
5.159579789894946771e+02 3.142825617107081090e-05
5.168584292146073267e+02 3.139242473285426137e-05
5.177588794397198626e+02 3.136710668701669685e-05
5.186593296648323985e+02 3.135244192299759994e-05
5.195597798899449344e+02 3.146545681927848142e-05
5.204602301150574704e+02 3.175963014234685686e-05
5.213606803401700063e+02 3.213860651364757647e-05
5.222611305652826559e+02 3.242369652442949376e-05
5.231615807903951918e+02 3.254270686226444861e-05
5.240620310155077277e+02 3.256687973167540556e-05
5.249624812406202636e+02 3.255908545236883866e-05
5.258629314657327996e+02 3.255524763132843630e-05
5.267633816908454492e+02 3.260362251075185565e-05
5.276638319159579851e+02 3.267745914231428260e-05
5.285642821410705210e+02 3.273675928024115812e-05
5.294647323661830569e+02 3.281148699740079499e-05
5.303651825912955928e+02 3.291975539900739883e-05
5.312656328164081287e+02 3.309535417584336472e-05
5.321660830415207784e+02 3.338167405314613508e-05
5.330665332666333143e+02 3.378535434029747637e-05
5.339669834917458502e+02 3.429001081379031188e-05
5.348674337168583861e+02 3.484328308470922305e-05
5.357678839419709220e+02 3.535083918442693027e-05
5.366683341670835716e+02 3.573284211966474839e-05
5.375687843921961075e+02 3.601509707618292112e-05
5.384692346173086435e+02 3.628292183671913049e-05
5.393696848424211794e+02 3.662245654281477935e-05
5.402701350675337153e+02 3.709007498975797317e-05
5.411705852926462512e+02 3.768073657753444469e-05
5.420710355177589008e+02 3.830653045005092452e-05
5.429714857428714367e+02 3.885626472902150235e-05
5.438719359679839727e+02 3.929723460329134278e-05
5.447723861930965086e+02 3.972365190620742091e-05
5.456728364182090445e+02 4.028957046861077223e-05
5.465732866433215804e+02 4.104560778962322722e-05
5.474737368684342300e+02 4.194950326879014793e-05
5.483741870935467659e+02 4.300003238190533889e-05
5.492746373186593019e+02 4.416890720336622304e-05
5.501750875437718378e+02 4.527590090646098006e-05
5.510755377688843737e+02 4.600099674296263510e-05
5.519759879939970233e+02 4.613475543154244393e-05
5.528764382191095592e+02 4.571706843384912587e-05
5.537768884442220951e+02 4.490688353642797342e-05
5.546773386693346310e+02 4.395327846556713083e-05
5.555777888944471670e+02 4.316164858182240649e-05
5.564782391195597029e+02 4.276259809860814425e-05
5.573786893446723525e+02 4.280400017677566646e-05
5.582791395697848884e+02 4.308888846836774969e-05
5.591795897948974243e+02 4.335636757180546126e-05
5.600800400200099602e+02 4.345142514883586964e-05
5.609804902451224962e+02 4.328540560973102006e-05
5.618809404702351458e+02 4.289722130071455577e-05
5.627813906953476817e+02 4.248697894675902329e-05
5.636818409204602176e+02 4.221664702558355973e-05
5.645822911455727535e+02 4.203309869640548175e-05
5.654827413706852894e+02 4.178473917921678946e-05
5.663831915957978254e+02 4.149887320039763732e-05
5.672836418209104750e+02 4.130915956160430649e-05
5.681840920460230109e+02 4.125646595599985792e-05
5.690845422711355468e+02 4.125594094092560274e-05
5.699849924962480827e+02 4.124782454962060499e-05
5.708854427213606186e+02 4.126622396427576242e-05
5.717858929464731546e+02 4.133757174199602634e-05
5.726863431715858042e+02 4.146515864187030778e-05
5.735867933966983401e+02 4.162977569392353332e-05
5.744872436218108760e+02 4.169505190248389063e-05
5.753876938469234119e+02 4.155588360729635822e-05
5.762881440720359478e+02 4.131955392594108110e-05
5.771885942971485974e+02 4.111669726638749530e-05
5.780890445222611334e+02 4.093412458287075113e-05
5.789894947473736693e+02 4.076561273986186064e-05
5.798899449724862052e+02 4.063170984951639761e-05
5.807903951975987411e+02 4.047380118877464295e-05
5.816908454227112770e+02 4.023054750348999299e-05
5.825912956478239266e+02 3.980911484137817193e-05
5.834917458729364625e+02 3.914212147472537846e-05
5.843921960980489985e+02 3.836820839552067768e-05
5.852926463231615344e+02 3.775206985095913722e-05
5.861930965482740703e+02 3.739497832291898858e-05
5.870935467733867199e+02 3.719379453695333479e-05
5.879939969984992558e+02 3.701353039099041794e-05
5.888944472236117917e+02 3.670185997787908303e-05
5.897948974487243277e+02 3.616005069186327691e-05
5.906953476738368636e+02 3.546085484434625913e-05
5.915957978989493995e+02 3.476283208688050769e-05
5.924962481240620491e+02 3.414592811131728447e-05
5.933966983491745850e+02 3.363180853945324159e-05
5.942971485742871209e+02 3.327365252117319414e-05
5.951975987993996569e+02 3.303801784475557819e-05
5.960980490245121928e+02 3.284167285196914126e-05
5.969984992496247287e+02 3.268526569029389937e-05
5.978989494747373783e+02 3.258977383475386677e-05
5.987993996998499142e+02 3.257007109018326832e-05
5.996998499249624501e+02 3.264881866775998329e-05
6.006003001500749860e+02 3.277218706743508018e-05
6.015007503751875220e+02 3.289951406714105317e-05
6.024012006003001716e+02 3.299599798142088971e-05
6.033016508254127075e+02 3.297064656310521794e-05
6.042021010505252434e+02 3.282078648454381269e-05
6.051025512756377793e+02 3.263199222835653189e-05
6.060030015007503152e+02 3.244359473543130046e-05
6.069034517258628512e+02 3.223800285639755121e-05
6.078039019509755008e+02 3.203099868837227854e-05
6.087043521760880367e+02 3.190475448090580933e-05
6.096048024012005726e+02 3.184903582848022392e-05
6.105052526263131085e+02 3.178372520362455925e-05
6.114057028514256444e+02 3.168569449286190649e-05
6.123061530765382940e+02 3.153832679695453697e-05
6.132066033016508300e+02 3.139081753694825030e-05
6.141070535267633659e+02 3.134907909086879027e-05
6.150075037518759018e+02 3.135541583944659734e-05
6.159079539769884377e+02 3.124061112505670035e-05
6.168084042021009736e+02 3.098344713550716615e-05
6.177088544272136232e+02 3.066014885711893385e-05
6.186093046523261592e+02 3.027252783478624247e-05
6.195097548774386951e+02 2.982655345588425014e-05
6.204102051025512310e+02 2.944561734385937559e-05
6.213106553276637669e+02 2.933203669186365843e-05
6.222111055527763028e+02 2.960498167657938442e-05
6.231115557778889524e+02 3.014581647399995141e-05
6.240120060030014884e+02 3.074555894001166338e-05
6.249124562281140243e+02 3.128749585855479206e-05
6.258129064532265602e+02 3.166227246321442790e-05
6.267133566783390961e+02 3.178410361238428984e-05
6.276138069034517457e+02 3.167088732760304994e-05
6.285142571285642816e+02 3.145455433221104109e-05
6.294147073536768175e+02 3.133171857278201495e-05
6.303151575787893535e+02 3.138881731289997439e-05
6.312156078039018894e+02 3.153477131674083762e-05
6.321160580290144253e+02 3.161820253007237177e-05
6.330165082541270749e+02 3.146941735775831127e-05
6.339169584792396108e+02 3.097257167356673511e-05
6.348174087043521467e+02 3.016681538447109226e-05
6.357178589294646827e+02 2.921339655159525789e-05
6.366183091545772186e+02 2.835251598015999856e-05
6.375187593796898682e+02 2.775431887216470834e-05
6.384192096048024041e+02 2.737835144559951493e-05
6.393196598299149400e+02 2.709873170416284300e-05
6.402201100550274759e+02 2.683238834911731230e-05
6.411205602801400119e+02 2.655854880315065161e-05
6.420210105052525478e+02 2.634092179055866665e-05
6.429214607303651974e+02 2.629864599084505284e-05
6.438219109554777333e+02 2.645348397628914864e-05
6.447223611805902692e+02 2.671680097609913662e-05
6.456228114057028051e+02 2.700664202686061565e-05
6.465232616308153411e+02 2.728355036686715815e-05
6.474237118559278770e+02 2.756117135656991038e-05
6.483241620810405266e+02 2.781945315348407255e-05
6.492246123061530625e+02 2.790326903627427018e-05
6.501250625312655984e+02 2.765427052226227537e-05
6.510255127563781343e+02 2.713450684334856627e-05
6.519259629814906702e+02 2.656092843269812614e-05
6.528264132066033198e+02 2.614069965935823819e-05
6.537268634317158558e+02 2.599234598034421521e-05
6.546273136568283917e+02 2.611054519925647764e-05
6.555277638819409276e+02 2.643215267664396169e-05
6.564282141070534635e+02 2.689071696018529057e-05
6.573286643321659994e+02 2.733445176405805704e-05
6.582291145572786490e+02 2.757914373275609270e-05
6.591295647823911850e+02 2.759865860793624332e-05
6.600300150075037209e+02 2.748501212599051112e-05
6.609304652326162568e+02 2.735569776872042951e-05
6.618309154577287927e+02 2.728198327781661945e-05
6.627313656828414423e+02 2.725172618644355581e-05
6.636318159079539782e+02 2.721865213675097177e-05
6.645322661330665142e+02 2.719134098543311075e-05
6.654327163581790501e+02 2.726004439346014672e-05
6.663331665832915860e+02 2.747388293635839109e-05
6.672336168084041219e+02 2.774303813242710536e-05
6.681340670335167715e+02 2.791941530924687732e-05
6.690345172586293074e+02 2.794082552084240268e-05
6.699349674837418434e+02 2.783223815906098821e-05
6.708354177088543793e+02 2.765474228445246062e-05
6.717358679339669152e+02 2.748477358977651964e-05
6.726363181590794511e+02 2.732014663199213120e-05
6.735367683841921007e+02 2.707439944916639320e-05
6.744372186093046366e+02 2.669063449780874873e-05
6.753376688344171725e+02 2.622247863907995673e-05
6.762381190595297085e+02 2.577059070444878385e-05
6.771385692846422444e+02 2.542618600118115590e-05
6.780390195097548940e+02 2.528181457163203010e-05
6.789394697348674299e+02 2.537056584424666108e-05
6.798399199599799658e+02 2.561989810624193276e-05
6.807403701850925017e+02 2.589929543315170127e-05
6.816408204102050377e+02 2.609873818886479833e-05
6.825412706353175736e+02 2.612926369706053214e-05
6.834417208604302232e+02 2.599454133762067040e-05
6.843421710855427591e+02 2.583297299942075581e-05
6.852426213106552950e+02 2.570080585737742859e-05
6.861430715357678309e+02 2.554773730404124034e-05
6.870435217608803669e+02 2.538892831902907107e-05
6.879439719859930165e+02 2.528784538757429252e-05
6.888444222111055524e+02 2.531045403654164018e-05
6.897448724362180883e+02 2.552249602662424527e-05
6.906453226613306242e+02 2.592306367278311284e-05
6.915457728864431601e+02 2.640977801455024959e-05
6.924462231115556961e+02 2.690174875924589517e-05
6.933466733366683457e+02 2.738271370649838059e-05
6.942471235617808816e+02 2.779170600886754047e-05
6.951475737868934175e+02 2.800523379692018203e-05
6.960480240120059534e+02 2.796867497000028209e-05
6.969484742371184893e+02 2.778847821663917928e-05
6.978489244622311389e+02 2.765265403229619521e-05
6.987493746873436749e+02 2.765568933357650283e-05
6.996498249124562108e+02 2.774478101913057496e-05
7.005502751375687467e+02 2.782524956680416844e-05
7.014507253626812826e+02 2.786912662793393497e-05
7.023511755877938185e+02 2.787687106271032959e-05
7.032516258129064681e+02 2.787105280563550644e-05
7.041520760380190040e+02 2.792010257421312106e-05
7.050525262631315400e+02 2.805960397698085214e-05
7.059529764882440759e+02 2.830056794851733461e-05
7.068534267133566118e+02 2.863134133493675323e-05
7.077538769384691477e+02 2.897654127521367783e-05
7.086543271635817973e+02 2.921944329775519252e-05
7.095547773886943332e+02 2.929347479015198674e-05
7.104552276138068692e+02 2.922007812310945394e-05
7.113556778389194051e+02 2.902632327104661270e-05
7.122561280640319410e+02 2.874933327588632159e-05
7.131565782891445906e+02 2.851804582308871850e-05
7.140570285142571265e+02 2.842573295528870675e-05
7.149574787393696624e+02 2.839862108137947670e-05
7.158579289644821984e+02 2.833903689438904759e-05
7.167583791895947343e+02 2.825352551087152511e-05
7.176588294147072702e+02 2.818576184397347481e-05
7.185592796398199198e+02 2.817135083051823668e-05
7.194597298649324557e+02 2.829542853520404603e-05
7.203601800900449916e+02 2.863625015979674534e-05
7.212606303151575275e+02 2.916004712016217478e-05
7.221610805402700635e+02 2.969897228234750098e-05
7.230615307653827131e+02 3.011414138164994139e-05
7.239619809904952490e+02 3.039486482139637448e-05
7.248624312156077849e+02 3.051608847681154063e-05
7.257628814407203208e+02 3.044070909576275597e-05
7.266633316658328567e+02 3.021311502936993722e-05
7.275637818909453927e+02 2.996029747918555269e-05
7.284642321160580423e+02 2.981324122943173165e-05
7.293646823411705782e+02 2.984088982018773294e-05
7.302651325662831141e+02 3.006446601220292606e-05
7.311655827913956500e+02 3.048754513670433008e-05
7.320660330165081859e+02 3.104863708401855402e-05
7.329664832416207219e+02 3.162136856813193436e-05
7.338669334667333715e+02 3.208462428646918557e-05
7.347673836918459074e+02 3.239713618304722873e-05
7.356678339169584433e+02 3.259455492633232977e-05
7.365682841420709792e+02 3.269230068571147570e-05
7.374687343671835151e+02 3.268611425664846593e-05
7.383691845922961647e+02 3.264014950605583648e-05
7.392696348174087007e+02 3.263691887729404812e-05
7.401700850425212366e+02 3.271283256679912072e-05
7.410705352676337725e+02 3.276972303915774557e-05
7.419709854927463084e+02 3.257981092053019602e-05
7.428714357178588443e+02 3.208498201722844622e-05
7.437718859429714939e+02 3.150200307734133748e-05
7.446723361680840299e+02 3.113914326874679548e-05
7.455727863931965658e+02 3.113325305982552404e-05
7.464732366183091017e+02 3.131374885319758802e-05
7.473736868434216376e+02 3.138225501063389178e-05
7.482741370685342872e+02 3.122823242139323425e-05
7.491745872936468231e+02 3.097466953482281871e-05
7.500750375187593590e+02 3.080685826900122809e-05
7.509754877438718950e+02 3.082209612476395508e-05
7.518759379689844309e+02 3.094797928636905100e-05
7.527763881940969668e+02 3.103094669205717053e-05
7.536768384192096164e+02 3.103521936276372928e-05
7.545772886443221523e+02 3.100619980334408420e-05
7.554777388694346882e+02 3.097249253588606682e-05
7.563781890945472242e+02 3.101023443343847832e-05
7.572786393196597601e+02 3.119751471686695379e-05
7.581790895447722960e+02 3.148585198942606579e-05
7.590795397698849456e+02 3.179809528669676227e-05
7.599799899949974815e+02 3.212209817505870801e-05
7.608804402201100174e+02 3.249567277503164815e-05
7.617808904452225534e+02 3.291916511001419005e-05
7.626813406703350893e+02 3.330191942416210152e-05
7.635817908954477389e+02 3.353089312801839323e-05
7.644822411205602748e+02 3.355367069320257023e-05
7.653826913456728107e+02 3.344919033505310902e-05
7.662831415707853466e+02 3.341573523272872107e-05
7.671835917958978825e+02 3.361620278395431957e-05
7.680840420210104185e+02 3.403871251304755398e-05
7.689844922461230681e+02 3.451922843154056890e-05
7.698849424712356040e+02 3.487317367134557081e-05
7.707853926963481399e+02 3.506906693565421630e-05
7.716858429214606758e+02 3.517247338794964344e-05
7.725862931465732117e+02 3.511214182686416880e-05
7.734867433716858613e+02 3.481528069982533342e-05
7.743871935967983973e+02 3.445741828605468387e-05
7.752876438219109332e+02 3.425178174871232155e-05
7.761880940470234691e+02 3.420327322562944261e-05
7.770885442721360050e+02 3.416841401327224868e-05
7.779889944972485409e+02 3.405541725919777299e-05
7.788894447223611905e+02 3.388890794413685096e-05
7.797898949474737265e+02 3.375088224192834401e-05
7.806903451725862624e+02 3.369263708483786232e-05
7.815907953976987983e+02 3.377254961103185805e-05
7.824912456228113342e+02 3.403103803453267663e-05
7.833916958479238701e+02 3.438910487448227309e-05
7.842921460730365197e+02 3.475596836798286221e-05
7.851925962981490557e+02 3.511723615607211733e-05
7.860930465232615916e+02 3.545783530383712884e-05
7.869934967483741275e+02 3.565742110374322583e-05
7.878939469734866634e+02 3.560853139518528268e-05
7.887943971985993130e+02 3.537723399993979666e-05
7.896948474237118489e+02 3.510214184330670301e-05
7.905952976488243849e+02 3.481423322281002432e-05
7.914957478739369208e+02 3.454123369011269834e-05
7.923961980990494567e+02 3.437940900155110992e-05
7.932966483241619926e+02 3.434195181035927698e-05
7.941970985492746422e+02 3.441349195748548163e-05
7.950975487743871781e+02 3.461010845252291134e-05
7.959979989994997140e+02 3.489693801267155718e-05
7.968984492246122500e+02 3.520750143238755202e-05
7.977988994497247859e+02 3.543762967466295577e-05
7.986993496748374355e+02 3.543842864669192105e-05
7.995997998999499714e+02 3.516812501948006508e-05
8.005002501250625073e+02 3.475898772962930341e-05
8.014007003501750432e+02 3.441404943790336233e-05
8.023011505752875792e+02 3.418597643760373810e-05
8.032016008004001151e+02 3.392892611264615693e-05
8.041020510255127647e+02 3.356908252201309099e-05
8.050025012506253006e+02 3.319197876606728688e-05
8.059029514757378365e+02 3.288194406858762020e-05
8.068034017008503724e+02 3.264743040665762171e-05
8.077038519259629084e+02 3.246873588531779166e-05
8.086043021510754443e+02 3.233122626240579010e-05
8.095047523761880939e+02 3.222795855579755703e-05
8.104052026013006298e+02 3.211404163998556548e-05
8.113056528264131657e+02 3.193094568632752673e-05
8.122061030515257016e+02 3.170614327606821945e-05
8.131065532766382375e+02 3.145048479664635491e-05
8.140070035017508872e+02 3.109979170034098828e-05
8.149074537268634231e+02 3.062484902697801221e-05
8.158079039519759590e+02 3.011891805644302959e-05
8.167083541770884949e+02 2.970243753343575281e-05
8.176088044022010308e+02 2.944484911020320170e-05
8.185092546273135667e+02 2.938977009757291241e-05
8.194097048524262163e+02 2.947261802648534358e-05
8.203101550775387523e+02 2.950925230604224418e-05
8.212106053026512882e+02 2.935949594310926732e-05
8.221110555277638241e+02 2.908139713598355456e-05
8.230115057528763600e+02 2.886437514515651653e-05
8.239119559779890096e+02 2.878164973072437966e-05
8.248124062031015455e+02 2.874958127558252652e-05
8.257128564282140815e+02 2.870745941482696627e-05
8.266133066533266174e+02 2.869082715564752890e-05
8.275137568784391533e+02 2.881239457216517127e-05
8.284142071035516892e+02 2.921978043505730731e-05
8.293146573286643388e+02 2.989990812177046957e-05
8.302151075537768747e+02 3.061438094740845362e-05
8.311155577788894107e+02 3.116203237692237536e-05
8.320160080040019466e+02 3.149061171167196935e-05
8.329164582291144825e+02 3.159468208637087390e-05
8.338169084542270184e+02 3.154527775642535322e-05
8.347173586793396680e+02 3.145310660590936076e-05
8.356178089044522039e+02 3.128362033429348682e-05
8.365182591295647399e+02 3.098043730457182484e-05
8.374187093546772758e+02 3.069667254589670570e-05
8.383191595797898117e+02 3.059175562775427520e-05
8.392196098049024613e+02 3.061286356018966969e-05
8.401200600300149972e+02 3.062610989027463585e-05
8.410205102551275331e+02 3.064676850119513288e-05
8.419209604802400690e+02 3.075225365289608410e-05
8.428214107053526050e+02 3.086857168179342638e-05
8.437218609304651409e+02 3.084772521171309453e-05
8.446223111555777905e+02 3.071085455863950466e-05
8.455227613806903264e+02 3.062694554399219865e-05
8.464232116058028623e+02 3.068901461117869194e-05
8.473236618309153982e+02 3.091691489265488755e-05
8.482241120560279342e+02 3.129355786746888129e-05
8.491245622811405838e+02 3.167872180269244237e-05
8.500250125062531197e+02 3.189663705734565864e-05
8.509254627313656556e+02 3.195495062854560091e-05
8.518259129564781915e+02 3.204081194177122089e-05
8.527263631815907274e+02 3.226150159320009581e-05
8.536268134067032634e+02 3.256116806016231250e-05
8.545272636318159130e+02 3.276313607194615514e-05
8.554277138569284489e+02 3.272373179630507027e-05
8.563281640820409848e+02 3.246243317342840321e-05
8.572286143071535207e+02 3.204298358268555674e-05
8.581290645322660566e+02 3.154838002292600685e-05
8.590295147573785925e+02 3.107921275051911809e-05
8.599299649824912422e+02 3.070778079189638408e-05
8.608304152076037781e+02 3.050581788675737460e-05
8.617308654327163140e+02 3.049717883680554600e-05
8.626313156578288499e+02 3.062173677184956802e-05
8.635317658829413858e+02 3.077835881175701509e-05
8.644322161080540354e+02 3.088441904261147363e-05
8.653326663331665713e+02 3.092193721049142185e-05
8.662331165582791073e+02 3.092873270919016819e-05
8.671335667833916432e+02 3.094121698832828001e-05
8.680340170085041791e+02 3.101730373886280820e-05
8.689344672336167150e+02 3.118626187019259990e-05
8.698349174587293646e+02 3.132204366007550336e-05
8.707353676838419005e+02 3.139769803240283929e-05
8.716358179089544365e+02 3.158347889419602626e-05
8.725362681340669724e+02 3.193235641127701598e-05
8.734367183591795083e+02 3.232566455402200708e-05
8.743371685842921579e+02 3.268879326635734905e-05
8.752376188094046938e+02 3.305037971619451950e-05
8.761380690345172297e+02 3.346474279229527248e-05
8.770385192596297657e+02 3.398070114184370452e-05
8.779389694847423016e+02 3.450224600879146569e-05
8.788394197098548375e+02 3.486501219895474284e-05
8.797398699349674871e+02 3.508661132474386735e-05
8.806403201600800230e+02 3.523571463017021588e-05
8.815407703851925589e+02 3.533106906577790861e-05
8.824412206103050949e+02 3.545190928791798772e-05
8.833416708354176308e+02 3.572012415643048794e-05
8.842421210605301667e+02 3.616386378384646449e-05
8.851425712856428163e+02 3.672624851081200643e-05
8.860430215107553522e+02 3.736895140469785468e-05
8.869434717358678881e+02 3.808019776144054596e-05
8.878439219609804240e+02 3.874165201221087181e-05
8.887443721860929600e+02 3.909623529652731135e-05
8.896448224112056096e+02 3.897078512979296113e-05
8.905452726363181455e+02 3.841587280424661884e-05
8.914457228614306814e+02 3.763405677216600799e-05
8.923461730865432173e+02 3.686287156879534623e-05
8.932466233116557532e+02 3.634740412614834030e-05
8.941470735367682892e+02 3.625329821901251346e-05
8.950475237618809388e+02 3.657426465976188542e-05
8.959479739869934747e+02 3.720652900390530600e-05
8.968484242121060106e+02 3.801709987230377836e-05
8.977488744372185465e+02 3.887645728403398807e-05
8.986493246623310824e+02 3.966920435902640779e-05
8.995497748874437320e+02 4.016086096628290178e-05
9.004502251125562680e+02 4.015531320551732564e-05
9.013506753376688039e+02 3.984861187994862052e-05
9.022511255627813398e+02 3.959430861842470087e-05
9.031515757878938757e+02 3.947846559537584939e-05
9.040520260130064116e+02 3.938441581224685206e-05
9.049524762381190612e+02 3.923861977733897403e-05
9.058529264632315972e+02 3.910729009747982798e-05
9.067533766883441331e+02 3.913922824926777919e-05
9.076538269134566690e+02 3.941036968042731941e-05
9.085542771385692049e+02 3.979017797868965778e-05
9.094547273636817408e+02 4.009069615827398929e-05
9.103551775887943904e+02 4.034946978645842860e-05
9.112556278139069263e+02 4.079269789762174445e-05
9.121560780390194623e+02 4.151982596826088901e-05
9.130565282641319982e+02 4.236617321953579549e-05
9.139569784892445341e+02 4.310969260843699639e-05
9.148574287143571837e+02 4.363765455332545675e-05
9.157578789394697196e+02 4.392803795736314733e-05
9.166583291645822555e+02 4.394014610394290492e-05
9.175587793896947915e+02 4.373904002148799793e-05
9.184592296148073274e+02 4.354029401563365740e-05
9.193596798399198633e+02 4.351899238153548723e-05
9.202601300650325129e+02 4.379519149870175987e-05
9.211605802901450488e+02 4.448243474212070598e-05
9.220610305152575847e+02 4.557508223781061299e-05
9.229614807403701207e+02 4.690997426548201843e-05
9.238619309654826566e+02 4.826047380940255580e-05
9.247623811905953062e+02 4.953606098917381602e-05
9.256628314157078421e+02 5.077704968004374841e-05
9.265632816408203780e+02 5.187125299953840497e-05
9.274637318659329139e+02 5.254270337556151609e-05
9.283641820910454499e+02 5.263567959134727426e-05
9.292646323161579858e+02 5.236949109830106971e-05
9.301650825412706354e+02 5.216575632616770290e-05
9.310655327663831713e+02 5.224515287600302701e-05
9.319659829914957072e+02 5.254177947820843036e-05
9.328664332166082431e+02 5.302555557218545314e-05
9.337668834417207790e+02 5.377513799229769576e-05
9.346673336668334287e+02 5.483288577389606403e-05
9.355677838919459646e+02 5.614582939052205991e-05
9.364682341170585005e+02 5.758453925328098182e-05
9.373686843421710364e+02 5.906442076007972081e-05
9.382691345672835723e+02 6.034798074864951224e-05
9.391695847923961082e+02 6.105852862023604182e-05
9.400700350175087578e+02 6.136224811365262918e-05
9.409704852426212938e+02 6.193632011680738159e-05
9.418709354677338297e+02 6.305798639696386782e-05
9.427713856928463656e+02 6.436972975321170946e-05
9.436718359179589015e+02 6.532411846878156481e-05
9.445722861430714374e+02 6.552418551433709199e-05
9.454727363681840870e+02 6.500212251504753063e-05
9.463731865932966230e+02 6.410756118219304231e-05
9.472736368184091589e+02 6.312157427553384559e-05
9.481740870435216948e+02 6.218008012583186358e-05
9.490745372686342307e+02 6.145016131152689672e-05
9.499749874937468803e+02 6.108282344420534174e-05
9.508754377188594162e+02 6.114752873724264425e-05
9.517758879439719522e+02 6.168275108557606833e-05
9.526763381690844881e+02 6.256301062534698747e-05
9.535767883941970240e+02 6.348161714316083177e-05
9.544772386193095599e+02 6.432405829801118315e-05
9.553776888444222095e+02 6.527157771094976293e-05
9.562781390695347454e+02 6.642215194477965666e-05
9.571785892946472813e+02 6.748973500676385729e-05
9.580790395197598173e+02 6.823965463440811855e-05
9.589794897448723532e+02 6.894213241806791659e-05
9.598799399699850028e+02 6.994382552132690639e-05
9.607803901950975387e+02 7.117176595126703900e-05
9.616808404202100746e+02 7.219094034361522860e-05
9.625812906453226105e+02 7.269918681682846235e-05
9.634817408704351465e+02 7.287479669899867756e-05
9.643821910955476824e+02 7.314458560368551447e-05
9.652826413206603320e+02 7.373314189909914028e-05
9.661830915457728679e+02 7.449979582145401674e-05
9.670835417708854038e+02 7.522595717208455199e-05
9.679839919959979397e+02 7.597086518716823908e-05
9.688844422211104757e+02 7.701938542767124021e-05
9.697848924462230116e+02 7.859788727146796048e-05
9.706853426713356612e+02 8.072938178876738172e-05
9.715857928964481971e+02 8.328227306901590571e-05
9.724862431215607330e+02 8.594247622093924071e-05
9.733866933466732689e+02 8.830598411773638782e-05
9.742871435717858049e+02 9.025866056364374387e-05
9.751875937968984545e+02 9.213779686140203423e-05
9.760880440220109904e+02 9.421089810771427701e-05
9.769884942471235263e+02 9.629519463856852626e-05
9.778889444722360622e+02 9.804699240712617914e-05
9.787893946973485981e+02 9.931801651141234115e-05
9.796898449224611340e+02 1.000513476274133813e-04
9.805902951475737837e+02 1.003483229353657676e-04
9.814907453726863196e+02 1.004076671938347560e-04
9.823911955977988555e+02 1.002809419025318499e-04
9.832916458229113914e+02 1.000760809795614171e-04
9.841920960480239273e+02 9.986905007018329896e-05
9.850925462731365769e+02 9.939707340961124560e-05
9.859929964982491128e+02 9.824408710432751116e-05
9.868934467233616488e+02 9.640174841314246837e-05
9.877938969484741847e+02 9.425156731585761065e-05
9.886943471735867206e+02 9.218184697947204894e-05
9.895947973986992565e+02 9.060053742149367989e-05
9.904952476238119061e+02 8.996361131013528992e-05
9.913956978489244420e+02 9.049574559755807956e-05
9.922961480740369780e+02 9.197372272047991981e-05
9.931965982991495139e+02 9.372728408145298792e-05
9.940970485242620498e+02 9.529799206005246700e-05
9.949974987493745857e+02 9.689755028405222981e-05
9.958979489744872353e+02 9.858652506265220530e-05
9.967983991995997712e+02 9.996879538594677828e-05
9.976988494247123072e+02 1.009652541399299323e-04
9.985992996498248431e+02 1.019987427051302338e-04
9.994997498749373790e+02 1.034155222567331381e-04
1.000400200100050029e+03 1.047690899498738968e-04
1.001300650325162565e+03 1.052361037518369761e-04
1.002201100550275100e+03 1.049006869232879880e-04
1.003101550775387636e+03 1.046933397993856730e-04
1.004002001000500172e+03 1.050348517074138762e-04
1.004902451225612708e+03 1.057049180216180367e-04
1.005802901450725358e+03 1.065806025539474378e-04
1.006703351675837894e+03 1.075636461180299962e-04
1.007603801900950430e+03 1.083002058038460685e-04
1.008504252126062966e+03 1.085474053934663575e-04
1.009404702351175501e+03 1.085078596227924191e-04
1.010305152576288151e+03 1.087991813863530943e-04
1.011205602801400687e+03 1.099534877478963480e-04
1.012106053026513223e+03 1.118650474815935950e-04
1.013006503251625759e+03 1.138494428724961632e-04
1.013906953476738295e+03 1.152334237111762790e-04
1.014807403701850831e+03 1.160060289998830481e-04
1.015707853926963480e+03 1.164771626028231227e-04
1.016608304152076016e+03 1.168652249699907294e-04
1.017508754377188552e+03 1.174645015394034449e-04
1.018409204602301088e+03 1.184763625184976379e-04
1.019309654827413624e+03 1.200067433612417729e-04
1.020210105052526160e+03 1.221570277935807942e-04
1.021110555277638809e+03 1.246833424878336378e-04
1.022011005502751345e+03 1.266986806020748465e-04
1.022911455727863881e+03 1.276455949572219862e-04
1.023811905952976417e+03 1.279922085063011229e-04
1.024712356178089067e+03 1.281121581177289753e-04
1.025612806403201603e+03 1.277335909399856845e-04
1.026513256628314139e+03 1.270686249836118845e-04
1.027413706853426675e+03 1.268401170172101834e-04
1.028314157078539210e+03 1.272128570638513684e-04
1.029214607303651746e+03 1.278837564140906740e-04
1.030115057528764282e+03 1.286814680684967053e-04
1.031015507753876818e+03 1.296795398468961115e-04
1.031915957978989354e+03 1.311446061115050378e-04
1.032816408204101890e+03 1.332994885236549589e-04
1.033716858429214653e+03 1.357661540779107228e-04
1.034617308654327189e+03 1.378046117190519020e-04
1.035517758879439725e+03 1.390636583227937732e-04
1.036418209104552261e+03 1.395455200380498471e-04
1.037318659329664797e+03 1.395776521735121842e-04
1.038219109554777333e+03 1.398378166705656421e-04
1.039119559779889869e+03 1.405119201247168807e-04
1.040020010005002405e+03 1.409884266291940621e-04
1.040920460230114941e+03 1.408779484553837570e-04
1.041820910455227477e+03 1.405787579393332116e-04
1.042721360680340013e+03 1.406047545682995647e-04
1.043621810905452776e+03 1.413349436801188423e-04
1.044522261130565312e+03 1.430352932065286249e-04
1.045422711355677848e+03 1.456267689336118156e-04
1.046323161580790384e+03 1.487775808802525108e-04
1.047223611805902920e+03 1.522695701468248684e-04
1.048124062031015455e+03 1.553783288883117013e-04
1.049024512256127991e+03 1.568373572774953519e-04
1.049924962481240527e+03 1.566662371973430326e-04
1.050825412706353063e+03 1.562078561233419007e-04
1.051725862931465599e+03 1.564348473271456224e-04
1.052626313156578135e+03 1.572034518723732519e-04
1.053526763381690898e+03 1.576765527146526237e-04
1.054427213606803434e+03 1.571182893526484317e-04
1.055327663831915970e+03 1.555420601511483267e-04
1.056228114057028506e+03 1.535958154153473001e-04
1.057128564282141042e+03 1.519619013080968594e-04
1.058029014507253578e+03 1.512200306852677547e-04
1.058929464732366114e+03 1.517127705078254575e-04
1.059829914957478650e+03 1.530110125041722472e-04
1.060730365182591186e+03 1.539830263613064544e-04
1.061630815407703722e+03 1.539192928544683787e-04
1.062531265632816257e+03 1.529228229858662475e-04
1.063431715857929021e+03 1.512973792006232655e-04
1.064332166083041557e+03 1.496514000602688693e-04
1.065232616308154093e+03 1.487837626955948196e-04
1.066133066533266629e+03 1.490740104103018687e-04
1.067033516758379164e+03 1.502090363843485755e-04
1.067933966983491700e+03 1.513072470664012122e-04
1.068834417208604236e+03 1.516254628981244124e-04
1.069734867433716772e+03 1.513536601748321857e-04
1.070635317658829308e+03 1.509433067468373844e-04
1.071535767883941844e+03 1.505062568986419386e-04
1.072436218109054380e+03 1.499862158982372324e-04
1.073336668334167143e+03 1.493131626774585384e-04
1.074237118559279679e+03 1.484391067806942785e-04
1.075137568784392215e+03 1.472195200004770051e-04
1.076038019009504751e+03 1.459768169146268457e-04
1.076938469234617287e+03 1.455905660236186483e-04
1.077838919459729823e+03 1.468133499931324358e-04
1.078739369684842359e+03 1.495980850288686030e-04
1.079639819909954895e+03 1.529059253185353093e-04
1.080540270135067431e+03 1.557696247155627468e-04
1.081440720360179967e+03 1.580287770339190863e-04
1.082341170585292502e+03 1.598250033200739745e-04
1.083241620810405038e+03 1.614007016649467597e-04
1.084142071035517802e+03 1.629443420685004144e-04
1.085042521260630338e+03 1.645088421281703432e-04
1.085942971485742873e+03 1.659736075508299355e-04
1.086843421710855409e+03 1.669316305144913847e-04
1.087743871935967945e+03 1.672059011812586816e-04
1.088644322161080481e+03 1.670573083568816918e-04
1.089544772386193017e+03 1.668047551137867633e-04
1.090445222611305553e+03 1.665777044299808192e-04
1.091345672836418089e+03 1.663199396964003414e-04
1.092246123061530625e+03 1.663504209904027539e-04
1.093146573286643161e+03 1.674176441717293315e-04
1.094047023511755924e+03 1.699447792947214435e-04
1.094947473736868460e+03 1.733578342265580728e-04
1.095847923961980996e+03 1.762181389062214987e-04
1.096748374187093532e+03 1.775946753977245040e-04
1.097648824412206068e+03 1.777955831929797358e-04
1.098549274637318604e+03 1.778206864950628377e-04
1.099449724862431140e+03 1.786066667393581859e-04
1.100350175087543676e+03 1.802342209991736961e-04
1.101250625312656211e+03 1.819468181138772034e-04
1.102151075537768747e+03 1.828595586586440633e-04
1.103051525762881283e+03 1.826944821729447829e-04
1.103951975987994047e+03 1.818142492440073821e-04
1.104852426213106583e+03 1.806452860804751484e-04
1.105752876438219118e+03 1.795932063375171406e-04
1.106653326663331654e+03 1.787542579820057835e-04
1.107553776888444190e+03 1.777476759870670945e-04
1.108454227113556726e+03 1.764848962338367645e-04
1.109354677338669262e+03 1.752876318842210446e-04
1.110255127563781798e+03 1.746266627937012887e-04
1.111155577788894334e+03 1.750184917999481613e-04
1.112056028014006870e+03 1.766899646260680981e-04
1.112956478239119406e+03 1.792462264151052902e-04
1.113856928464232169e+03 1.822182719945461581e-04
1.114757378689344705e+03 1.852873411298384509e-04
1.115657828914457241e+03 1.879300702661502098e-04
1.116558279139569777e+03 1.897785575243726003e-04
1.117458729364682313e+03 1.911228892488153210e-04
1.118359179589794849e+03 1.921564006650759542e-04
1.119259629814907385e+03 1.918331852419828632e-04
1.120160080040019920e+03 1.893896233852843775e-04
1.121060530265132456e+03 1.860353573508025170e-04
1.121960980490244992e+03 1.834066256748711240e-04
1.122861430715357528e+03 1.821735991666333738e-04
1.123761880940470292e+03 1.820094312697207936e-04
1.124662331165582827e+03 1.822057947918004697e-04
1.125562781390695363e+03 1.826079773375971862e-04
1.126463231615807899e+03 1.836607501043799632e-04
1.127363681840920435e+03 1.857546125885807704e-04
1.128264132066032971e+03 1.889938473220897008e-04
1.129164582291145507e+03 1.935971947973571150e-04
1.130065032516258043e+03 1.994632816927289143e-04
1.130965482741370579e+03 2.057029330647151626e-04
1.131865932966483115e+03 2.114724240501594723e-04
1.132766383191595651e+03 2.164944617768300625e-04
1.133666833416708187e+03 2.209337248115932116e-04
1.134567283641820950e+03 2.251202114057064573e-04
1.135467733866933486e+03 2.294307370284019904e-04
1.136368184092046022e+03 2.344297000415467317e-04
1.137268634317158558e+03 2.407002208446391487e-04
1.138169084542271094e+03 2.487269335641821262e-04
1.139069534767383630e+03 2.590461994927369181e-04
1.139969984992496165e+03 2.719295105075178963e-04
1.140870435217608701e+03 2.867257630527066223e-04
1.141770885442721237e+03 3.026517928644957642e-04
1.142671335667833773e+03 3.202468787124122373e-04
1.143571785892946309e+03 3.403308026318409437e-04
1.144472236118059072e+03 3.636195755188091801e-04
1.145372686343171608e+03 3.922276839236036607e-04
1.146273136568284144e+03 4.296558570364955696e-04
1.147173586793396680e+03 4.786790695235984420e-04
1.148074037018509216e+03 5.385391823793691905e-04
1.148974487243621752e+03 6.051285953122133949e-04
1.149874937468734288e+03 6.738983953685226749e-04
1.150775387693846824e+03 7.423271235479799888e-04
1.151675837918959360e+03 8.115132556497664735e-04
1.152576288144071896e+03 8.844004026389156196e-04
1.153476738369184432e+03 9.607563739050843047e-04
1.154377188594297195e+03 1.034582924085168014e-03
1.155277638819409731e+03 1.102972422550718831e-03
1.156178089044522267e+03 1.173656440522665139e-03
1.157078539269634803e+03 1.256230495133296666e-03
1.157978989494747339e+03 1.352980195364802832e-03
1.158879439719859874e+03 1.467396350190001064e-03
1.159779889944972410e+03 1.606356953820461822e-03
1.160680340170084946e+03 1.766554429804362281e-03
1.161580790395197482e+03 1.935230479771468887e-03
1.162481240620310018e+03 2.102932981948572432e-03
1.163381690845422554e+03 2.264062637551792889e-03
1.164282141070535317e+03 2.403979460934391448e-03
1.165182591295647853e+03 2.493926527204529207e-03
1.166083041520760389e+03 2.510834075562895333e-03
1.166983491745872925e+03 2.460725439955174267e-03
1.167883941970985461e+03 2.366320594932744444e-03
1.168784392196097997e+03 2.244230056761718859e-03
1.169684842421210533e+03 2.104038455580799129e-03
1.170585292646323069e+03 1.953433770649303566e-03
1.171485742871435605e+03 1.801848120002049738e-03
1.172386193096548141e+03 1.656987424406715674e-03
1.173286643321660677e+03 1.517129236616098116e-03
1.174187093546773440e+03 1.375131906872497593e-03
1.175087543771885976e+03 1.233793173371914654e-03
1.175987993996998512e+03 1.109007165744797839e-03
1.176888444222111048e+03 1.014490206297337122e-03
1.177788894447223583e+03 9.509759466570966331e-04
1.178689344672336119e+03 9.113668303242214224e-04
1.179589794897448655e+03 8.854784176093498599e-04
1.180490245122561191e+03 8.597656741974079361e-04
1.181390695347673727e+03 8.274457976843090177e-04
1.182291145572786263e+03 7.948845593174726958e-04
1.183191595797898799e+03 7.719034217034911362e-04
1.184092046023011562e+03 7.623655048646956053e-04
1.184992496248124098e+03 7.648947614725485483e-04
1.185892946473236634e+03 7.767195669713829707e-04
1.186793396698349170e+03 7.951887233740194882e-04
1.187693846923461706e+03 8.195301068103185739e-04
1.188594297148574242e+03 8.495128051433567919e-04
1.189494747373686778e+03 8.792502620746107510e-04
1.190395197598799314e+03 8.989237368258729249e-04
1.191295647823911850e+03 9.059632501095476282e-04
1.192196098049024386e+03 9.060415222072756933e-04
1.193096548274136921e+03 9.042749320075099554e-04
1.193996998499249457e+03 9.032535885493356981e-04
1.194897448724362221e+03 9.027415456119597826e-04
1.195797898949474757e+03 9.003431749987809377e-04
1.196698349174587293e+03 8.940126796779110851e-04
1.197598799399699828e+03 8.840617443723864342e-04
1.198499249624812364e+03 8.720195571316819621e-04
1.199399699849924900e+03 8.587829158072963088e-04
1.200300150075037436e+03 8.431502275751807897e-04
1.201200600300149972e+03 8.219106638327218885e-04
1.202101050525262508e+03 7.935233906340248815e-04
1.203001500750375044e+03 7.604379293256281541e-04
1.203901950975487580e+03 7.282453382909054654e-04
1.204802401200600343e+03 7.023319906087586995e-04
1.205702851425712879e+03 6.830297964031004044e-04
1.206603301650825415e+03 6.666655878520322308e-04
1.207503751875937951e+03 6.506117942776524880e-04
1.208404202101050487e+03 6.338192834210214449e-04
1.209304652326163023e+03 6.155135759339416378e-04
1.210205102551275559e+03 5.958564762666372075e-04
1.211105552776388095e+03 5.770453806013263768e-04
1.212006003001500630e+03 5.618972277177140470e-04
1.212906453226613166e+03 5.496341595097014709e-04
1.213806903451725702e+03 5.345878787907377668e-04
1.214707353676838466e+03 5.123461490232637848e-04
1.215607803901951002e+03 4.863631821319075021e-04
1.216508254127063537e+03 4.640213768734566583e-04
1.217408704352176073e+03 4.491202818166913579e-04
1.218309154577288609e+03 4.404471298796740794e-04
1.219209604802401145e+03 4.355557735695056117e-04
1.220110055027513681e+03 4.326145785110465779e-04
1.221010505252626217e+03 4.291275794771006488e-04
1.221910955477738753e+03 4.226876199377669610e-04
1.222811405702851289e+03 4.128253568055033481e-04
1.223711855927963825e+03 4.008564146089713945e-04
1.224612306153076588e+03 3.881074288250902947e-04
1.225512756378189124e+03 3.767625139494119413e-04
1.226413206603301660e+03 3.691998876011248830e-04
1.227313656828414196e+03 3.653800674658778296e-04
1.228214107053526732e+03 3.630550873007888711e-04
1.229114557278639268e+03 3.609673802200831353e-04
1.230015007503751804e+03 3.603973132447645306e-04
1.230915457728864340e+03 3.630453009868231840e-04
1.231815907953976875e+03 3.686567597469529874e-04
1.232716358179089411e+03 3.760542325563078305e-04
1.233616808404201947e+03 3.851685540841295126e-04
1.234517258629314711e+03 3.958690321451125544e-04
1.235417708854427246e+03 4.063937459225728513e-04
1.236318159079539782e+03 4.157020050067266942e-04
1.237218609304652318e+03 4.236690246167524828e-04
1.238119059529764854e+03 4.298188258364940757e-04
1.239019509754877390e+03 4.350421746368626557e-04
1.239919959979989926e+03 4.414700805149818479e-04
1.240820410205102462e+03 4.502386504279547088e-04
1.241720860430214998e+03 4.607411879920254015e-04
1.242621310655327534e+03 4.711637545898592679e-04
1.243521760880440070e+03 4.801705460061625160e-04
1.244422211105552606e+03 4.884202373954563093e-04
1.245322661330665369e+03 4.978953757560174902e-04
1.246223111555777905e+03 5.087705547871104262e-04
1.247123561780890441e+03 5.197147864772685153e-04
1.248024012006002977e+03 5.308953086184819850e-04
1.248924462231115513e+03 5.427744272330502521e-04
1.249824912456228049e+03 5.546075725861861856e-04
1.250725362681340584e+03 5.657268412614967820e-04
1.251625812906453120e+03 5.754877602959559274e-04
1.252526263131565656e+03 5.832559190685254660e-04
1.253426713356678192e+03 5.891867863074423412e-04
1.254327163581790728e+03 5.942013412092637904e-04
1.255227613806903491e+03 5.995076002516622768e-04
1.256128064032016027e+03 6.049060000073564185e-04
1.257028514257128563e+03 6.084244664020611653e-04
1.257928964482241099e+03 6.098289098934623091e-04
1.258829414707353635e+03 6.115358038977131193e-04
1.259729864932466171e+03 6.152064014842785261e-04
1.260630315157578707e+03 6.206978499371770862e-04
1.261530765382691243e+03 6.275696989565519466e-04
1.262431215607803779e+03 6.358294300614175491e-04
1.263331665832916315e+03 6.463324667602885192e-04
1.264232116058028851e+03 6.599864709446034029e-04
1.265132566283141614e+03 6.768538330027913576e-04
1.266033016508254150e+03 6.969537244713702034e-04
1.266933466733366686e+03 7.209632862598126498e-04
1.267833916958479222e+03 7.490203338440872298e-04
1.268734367183591758e+03 7.788000915198859189e-04
1.269634817408704293e+03 8.063038901699368620e-04
1.270535267633816829e+03 8.295112693153736116e-04
1.271435717858929365e+03 8.488231103992332268e-04
1.272336168084041901e+03 8.649408502402545270e-04
1.273236618309154437e+03 8.794336145999595697e-04
1.274137068534266973e+03 8.956956040419479254e-04
1.275037518759379736e+03 9.163289922582056133e-04
1.275937968984492272e+03 9.408113812767975167e-04
1.276838419209604808e+03 9.666367183253061308e-04
1.277738869434717344e+03 9.912185762956996198e-04
1.278639319659829880e+03 1.013323204495516659e-03
1.279539769884942416e+03 1.034962782772825890e-03
1.280440220110054952e+03 1.059532856126138263e-03
1.281340670335167488e+03 1.087208602462289356e-03
1.282241120560280024e+03 1.114402413725971682e-03
1.283141570785392560e+03 1.137464551396611453e-03
1.284042021010505096e+03 1.155328901593162929e-03
1.284942471235617859e+03 1.169932749076250077e-03
1.285842921460730395e+03 1.184220118423817344e-03
1.286743371685842931e+03 1.199682712044708444e-03
1.287643821910955467e+03 1.216437702274241698e-03
1.288544272136068003e+03 1.233669194938476991e-03
1.289444722361180538e+03 1.249161134685036496e-03
1.290345172586293074e+03 1.260497524494901466e-03
1.291245622811405610e+03 1.268850869104348137e-03
1.292146073036518146e+03 1.279390004762502933e-03
1.293046523261630682e+03 1.295090280877445477e-03
1.293946973486743218e+03 1.313236731306859865e-03
1.294847423711855754e+03 1.328613128874089975e-03
1.295747873936968517e+03 1.337489107566603927e-03
1.296648324162081053e+03 1.339720581724771842e-03
1.297548774387193589e+03 1.340106412177096470e-03
1.298449224612306125e+03 1.346619588531549087e-03
1.299349674837418661e+03 1.363183577031745319e-03
1.300250125062531197e+03 1.386197925544406344e-03
1.301150575287643733e+03 1.409402975991930424e-03
1.302051025512756269e+03 1.427738813658486735e-03
1.302951475737868805e+03 1.439102315825711333e-03
1.303851925962981340e+03 1.445894007779474849e-03
1.304752376188093876e+03 1.453024313263111657e-03
1.305652826413206640e+03 1.464463956295705650e-03
1.306553276638319176e+03 1.482117824288457612e-03
1.307453726863431712e+03 1.505029093836358781e-03
1.308354177088544247e+03 1.527946954745733506e-03
1.309254627313656783e+03 1.545019107161856335e-03
1.310155077538769319e+03 1.557157988100002196e-03
1.311055527763881855e+03 1.569596336876612468e-03
1.311955977988994391e+03 1.585184226961152678e-03
1.312856428214106927e+03 1.604160947461720933e-03
1.313756878439219463e+03 1.625549210391435398e-03
1.314657328664331999e+03 1.648882278547610927e-03
1.315557778889444762e+03 1.675621444438504196e-03
1.316458229114557298e+03 1.707873846144954827e-03
1.317358679339669834e+03 1.747555777423582136e-03
1.318259129564782370e+03 1.793055995926338790e-03
1.319159579789894906e+03 1.836126320614681062e-03
1.320060030015007442e+03 1.868601520147950435e-03
1.320960480240119978e+03 1.889444242746999691e-03
1.321860930465232514e+03 1.904122365331768155e-03
1.322761380690345050e+03 1.919810601058488881e-03
1.323661830915457585e+03 1.941176754289515149e-03
1.324562281140570121e+03 1.969408079205408908e-03
1.325462731365682885e+03 2.005286640267347174e-03
1.326363181590795421e+03 2.049463523291246772e-03
1.327263631815907956e+03 2.100018928801119719e-03
1.328164082041020492e+03 2.153716545495371927e-03
1.329064532266133028e+03 2.208821485957701298e-03
1.329964982491245564e+03 2.267208944622593845e-03
1.330865432716358100e+03 2.332866508045657906e-03
1.331765882941470636e+03 2.405085541128806209e-03
1.332666333166583172e+03 2.477843110635274786e-03
1.333566783391695708e+03 2.546888356432258031e-03
1.334467233616808244e+03 2.613717071431541882e-03
1.335367683841921007e+03 2.683462651760480829e-03
1.336268134067033543e+03 2.762720078722145749e-03
1.337168584292146079e+03 2.855604384356278010e-03
1.338069034517258615e+03 2.957708444215956418e-03
1.338969484742371151e+03 3.057778740517889341e-03
1.339869934967483687e+03 3.150587200904983454e-03
1.340770385192596223e+03 3.244224365415814340e-03
1.341670835417708759e+03 3.347845986832468073e-03
1.342571285642821294e+03 3.463268322146591336e-03
1.343471735867933830e+03 3.589291021546605308e-03
1.344372186093046366e+03 3.722669303352649488e-03
1.345272636318158902e+03 3.851932922663609329e-03
1.346173086543271666e+03 3.968141381178295207e-03
1.347073536768384201e+03 4.075796832883301843e-03
1.347973986993496737e+03 4.181227203370597306e-03
1.348874437218609273e+03 4.284432397809609383e-03
1.349774887443721809e+03 4.385250314517916310e-03
1.350675337668834345e+03 4.490670826766195861e-03
1.351575787893946881e+03 4.615108401254239615e-03
1.352476238119059417e+03 4.774485511881540814e-03
1.353376688344171953e+03 4.977582815622583721e-03
1.354277138569284489e+03 5.217621751862295924e-03
1.355177588794397025e+03 5.473795186749492656e-03
1.356078039019509788e+03 5.721866119017505851e-03
1.356978489244622324e+03 5.943903459747189484e-03
1.357878939469734860e+03 6.139319517382753680e-03
1.358779389694847396e+03 6.324817638066131988e-03
1.359679839919959932e+03 6.506534297271467440e-03
1.360580290145072468e+03 6.682500294165510599e-03
1.361480740370185003e+03 6.868220074119748067e-03
1.362381190595297539e+03 7.086301212261378324e-03
1.363281640820410075e+03 7.343019214758714393e-03
1.364182091045522611e+03 7.628624850428146822e-03
1.365082541270635147e+03 7.931428713401050823e-03
1.365982991495747910e+03 8.239229089704955961e-03
1.366883441720860446e+03 8.530013586824480853e-03
1.367783891945972982e+03 8.781965297097600945e-03
1.368684342171085518e+03 9.008138613877650705e-03
1.369584792396198054e+03 9.253229356508891820e-03
1.370485242621310590e+03 9.531076910703543265e-03
1.371385692846423126e+03 9.818205974980990028e-03
1.372286143071535662e+03 1.011242739977981191e-02
1.373186593296648198e+03 1.044357977202212129e-02
1.374087043521760734e+03 1.083746716574063122e-02
1.374987493746873270e+03 1.130756909087361761e-02
1.375887943971986033e+03 1.186316336437231132e-02
1.376788394197098569e+03 1.248542803207810213e-02
1.377688844422211105e+03 1.313093446842459461e-02
1.378589294647323641e+03 1.375438332851249695e-02
1.379489744872436177e+03 1.430580591309176149e-02
1.380390195097548713e+03 1.475501095552338854e-02
1.381290645322661248e+03 1.512476175444965598e-02
1.382191095547773784e+03 1.549969471097239516e-02
1.383091545772886320e+03 1.599318556318864853e-02
1.383991995997998856e+03 1.669879354015323114e-02
1.384892446223111392e+03 1.763060848520481630e-02
1.385792896448224155e+03 1.868927846825460190e-02
1.386693346673336691e+03 1.971667628524596469e-02
1.387593796898449227e+03 2.057378349622436195e-02
1.388494247123561763e+03 2.120031731447279480e-02
1.389394697348674299e+03 2.163631309026060184e-02
1.390295147573786835e+03 2.198553035997931338e-02
1.391195597798899371e+03 2.235714048151619948e-02
1.392096048024011907e+03 2.281092334869879237e-02
1.392996498249124443e+03 2.336284431798454214e-02
1.393896948474236979e+03 2.404416767490331203e-02
1.394797398699349515e+03 2.482725466713913559e-02
1.395697848924462278e+03 2.556813455413857114e-02
1.396598299149574814e+03 2.613776301088085313e-02
1.397498749374687350e+03 2.649319297284907782e-02
1.398399199599799886e+03 2.664318657914297936e-02
1.399299649824912422e+03 2.660507938501653624e-02
1.400200100050024957e+03 2.639705125867957899e-02
1.401100550275137493e+03 2.600846263314739171e-02
1.402001000500250029e+03 2.544581850444790211e-02
1.402901450725362565e+03 2.478674408632271925e-02
1.403801900950475101e+03 2.413720855520001124e-02
1.404702351175587637e+03 2.355146073313511140e-02
1.405602801400700173e+03 2.301013423223933346e-02
1.406503251625812936e+03 2.250115658353641496e-02
1.407403701850925472e+03 2.207104055274181076e-02
1.408304152076038008e+03 2.179325693515873907e-02
1.409204602301150544e+03 2.169030012115647985e-02
1.410105052526263080e+03 2.174437079834612083e-02
1.411005502751375616e+03 2.189792055736939497e-02
1.411905952976488152e+03 2.203176242477890637e-02
1.412806403201600688e+03 2.200781044782873508e-02
1.413706853426713224e+03 2.172390651830317931e-02
1.414607303651825760e+03 2.117169967747095996e-02
1.415507753876938295e+03 2.046672698370525720e-02
1.416408204102051059e+03 1.979497242819141037e-02
1.417308654327163595e+03 1.925122194930033864e-02
1.418209104552276131e+03 1.878234225050325404e-02
1.419109554777388666e+03 1.827021638593720812e-02
1.420010005002501202e+03 1.765809638976412535e-02
1.420910455227613738e+03 1.701265676570561797e-02
1.421810905452726274e+03 1.639242147677267072e-02
1.422711355677838810e+03 1.577987389498557158e-02
1.423611805902951346e+03 1.514192520654425791e-02
1.424512256128063882e+03 1.447218243328448131e-02
1.425412706353176418e+03 1.377640961549137302e-02
1.426313156578289181e+03 1.306082962062007913e-02
1.427213606803401717e+03 1.237516202868808347e-02
1.428114057028514253e+03 1.179325750556847220e-02
1.429014507253626789e+03 1.134375925269630499e-02
1.429914957478739325e+03 1.099952262031793880e-02
1.430815407703851861e+03 1.073329369687579631e-02
1.431715857928964397e+03 1.053117206621885169e-02
1.432616308154076933e+03 1.037200545430459926e-02
1.433516758379189469e+03 1.022695011966089432e-02
1.434417208604302004e+03 1.005527111022670554e-02
1.435317658829414540e+03 9.798545042803214616e-03
1.436218109054527304e+03 9.439233502910475415e-03
1.437118559279639840e+03 9.037600280975190831e-03
1.438019009504752376e+03 8.675117961007465864e-03
1.438919459729864911e+03 8.375964811905275281e-03
1.439819909954977447e+03 8.109090507935533265e-03
1.440720360180089983e+03 7.865854087701252759e-03
1.441620810405202519e+03 7.659654462911892961e-03
1.442521260630315055e+03 7.469944818435667391e-03
1.443421710855427591e+03 7.264588080803249283e-03
1.444322161080540127e+03 7.044291202429285408e-03
1.445222611305652663e+03 6.825257159757948562e-03
1.446123061530765426e+03 6.610401196716646569e-03
1.447023511755877962e+03 6.394862425482765629e-03
1.447923961980990498e+03 6.180770587613642134e-03
1.448824412206103034e+03 5.972602430269088186e-03
1.449724862431215570e+03 5.769349113971932591e-03
1.450625312656328106e+03 5.582325369419869655e-03
1.451525762881440642e+03 5.431454753209077196e-03
1.452426213106553178e+03 5.315507247680454836e-03
1.453326663331665713e+03 5.199984535598838227e-03
1.454227113556778249e+03 5.046956344575721266e-03
1.455127563781890785e+03 4.854455957925783542e-03
1.456028014007003321e+03 4.654966007222575801e-03
1.456928464232116085e+03 4.481642376407078340e-03
1.457828914457228620e+03 4.342016041431613974e-03
1.458729364682341156e+03 4.214865334067894806e-03
1.459629814907453692e+03 4.079233225197588693e-03
1.460530265132566228e+03 3.943894087270886570e-03
1.461430715357678764e+03 3.826576947945821601e-03
1.462331165582791300e+03 3.726155902706778777e-03
1.463231615807903836e+03 3.630502474333713661e-03
1.464132066033016372e+03 3.536762086724440281e-03
1.465032516258128908e+03 3.450463105125322911e-03
1.465932966483241444e+03 3.373880451021045272e-03
1.466833416708354207e+03 3.305213064039920923e-03
1.467733866933466743e+03 3.237123597701036404e-03
1.468634317158579279e+03 3.159653248080129470e-03
1.469534767383691815e+03 3.074478147607725368e-03
1.470435217608804351e+03 2.991439267956260729e-03
1.471335667833916887e+03 2.910305362569512791e-03
1.472236118059029423e+03 2.822986609899058759e-03
1.473136568284141958e+03 2.728127801526154805e-03
1.474037018509254494e+03 2.635235206891233840e-03
1.474937468734367030e+03 2.551116259371158639e-03
1.475837918959479566e+03 2.474388537069367820e-03
1.476738369184592329e+03 2.401873638912842886e-03
1.477638819409704865e+03 2.330458587566159451e-03
1.478539269634817401e+03 2.255984379315919761e-03
1.479439719859929937e+03 2.175099408866757941e-03
1.480340170085042473e+03 2.092739387637273553e-03
1.481240620310155009e+03 2.018128032340248210e-03
1.482141070535267545e+03 1.953222876709189738e-03
1.483041520760380081e+03 1.891666676920903843e-03
1.483941970985492617e+03 1.827959451120593666e-03
1.484842421210605153e+03 1.765144361828272813e-03
1.485742871435717689e+03 1.710475021595857844e-03
1.486643321660830452e+03 1.666734484167651728e-03
1.487543771885942988e+03 1.632178531092838732e-03
1.488444222111055524e+03 1.604606227252331711e-03
1.489344672336168060e+03 1.582939663987283779e-03
1.490245122561280596e+03 1.564373466624391449e-03
1.491145572786393132e+03 1.544743927904812563e-03
1.492046023011505667e+03 1.519042452192762363e-03
1.492946473236618203e+03 1.483769049350022349e-03
1.493846923461730739e+03 1.444016905665436749e-03
1.494747373686843275e+03 1.406912540893771576e-03
1.495647823911955811e+03 1.372970433530972022e-03
1.496548274137068574e+03 1.341383857503974540e-03
1.497448724362181110e+03 1.314516959259611796e-03
1.498349174587293646e+03 1.294430404327323418e-03
1.499249624812406182e+03 1.280307186347312423e-03
1.500150075037518718e+03 1.269593426669191148e-03
1.501050525262631254e+03 1.260958367578923203e-03
1.501950975487743790e+03 1.255352076427768571e-03
1.502851425712856326e+03 1.252838400668909767e-03
1.503751875937968862e+03 1.251627025864437710e-03
1.504652326163081398e+03 1.249036937996076237e-03
1.505552776388193934e+03 1.241027791235544981e-03
1.506453226613306470e+03 1.227302893506608105e-03
1.507353676838419233e+03 1.212415349023813213e-03
1.508254127063531769e+03 1.199853208344951825e-03
1.509154577288644305e+03 1.190438048349332393e-03
1.510055027513756841e+03 1.183594196491547478e-03
1.510955477738869376e+03 1.175592610157084840e-03
1.511855927963981912e+03 1.161184213192842938e-03
1.512756378189094448e+03 1.140218726596816702e-03
1.513656828414206984e+03 1.118673841321665046e-03
1.514557278639319520e+03 1.101122322830600745e-03
1.515457728864432056e+03 1.088415170551790918e-03
1.516358179089544592e+03 1.080769183571884994e-03
1.517258629314657355e+03 1.077390355036603967e-03
1.518159079539769891e+03 1.077058721322031497e-03
1.519059529764882427e+03 1.079780300825445736e-03
1.519959979989994963e+03 1.084453977773412346e-03
1.520860430215107499e+03 1.086920841717515249e-03
1.521760880440220035e+03 1.083926311731042485e-03
1.522661330665332571e+03 1.076437599734620439e-03
1.523561780890445107e+03 1.067856563521127821e-03
1.524462231115557643e+03 1.060407456697808016e-03
1.525362681340670179e+03 1.053187971079466104e-03
1.526263131565782714e+03 1.045357859107728981e-03
1.527163581790895478e+03 1.036169197467846090e-03
1.528064032016008014e+03 1.023830525611050223e-03
1.528964482241120550e+03 1.007872610292700425e-03
1.529864932466233086e+03 9.906191539550308900e-04
1.530765382691345621e+03 9.763540146663212413e-04
1.531665832916458157e+03 9.660864975330454765e-04
1.532566283141570693e+03 9.571025049226499545e-04
1.533466733366683229e+03 9.483583309819898109e-04
1.534367183591795765e+03 9.407666136500371411e-04
1.535267633816908301e+03 9.358187808754150471e-04
1.536168084042020837e+03 9.351553826458193410e-04
1.537068534267133600e+03 9.393381238447532028e-04
1.537968984492246136e+03 9.454183518964028119e-04
1.538869434717358672e+03 9.490263409174785501e-04
1.539769884942471208e+03 9.506156260296533874e-04
1.540670335167583744e+03 9.526076878716850226e-04
1.541570785392696280e+03 9.532859523455350110e-04
1.542471235617808816e+03 9.510324289634360453e-04
1.543371685842921352e+03 9.469625988029709441e-04
1.544272136068033888e+03 9.413637917092331853e-04
1.545172586293146423e+03 9.330605821192272664e-04
1.546073036518258959e+03 9.225405776245413107e-04
1.546973486743371723e+03 9.135565343778117957e-04
1.547873936968484259e+03 9.091717241852242254e-04
1.548774387193596795e+03 9.079796491045750506e-04
1.549674837418709330e+03 9.071404619856093463e-04
1.550575287643821866e+03 9.052778741936794811e-04
1.551475737868934402e+03 9.035876156991578569e-04
1.552376188094046938e+03 9.034515479101515962e-04
1.553276638319159474e+03 9.048746835672242649e-04
1.554177088544272010e+03 9.090143222062220790e-04
1.555077538769384546e+03 9.170576840646500706e-04
1.555977988994497082e+03 9.254202698921662733e-04
1.556878439219609618e+03 9.282527393130160422e-04
1.557778889444722381e+03 9.256056237895397961e-04
1.558679339669834917e+03 9.227682817998682967e-04
1.559579789894947453e+03 9.233611428959895675e-04
1.560480240120059989e+03 9.284287721201394403e-04
1.561380690345172525e+03 9.371502122866250031e-04
1.562281140570285061e+03 9.466764491170323289e-04
1.563181590795397597e+03 9.522285838631235977e-04
1.564082041020510133e+03 9.511104887397335995e-04
1.564982491245622668e+03 9.492981894634242284e-04
1.565882941470735204e+03 9.563065141352209168e-04
1.566783391695847740e+03 9.748715357101348736e-04
1.567683841920960504e+03 1.000167014253311362e-03
1.568584292146073039e+03 1.023747576477399002e-03
1.569484742371185575e+03 1.038582850423363808e-03
1.570385192596298111e+03 1.041051493310518822e-03
1.571285642821410647e+03 1.030132190333485527e-03
1.572186093046523183e+03 1.005297736590713168e-03
1.573086543271635719e+03 9.653499535195777517e-04
1.573986993496748255e+03 9.073626409699778227e-04
1.574887443721860791e+03 8.286571267914770618e-04
1.575787893946973327e+03 7.303019495605619481e-04
1.576688344172085863e+03 6.210750790267419771e-04
1.577588794397198626e+03 5.165864214369665728e-04
1.578489244622311162e+03 4.288252035400655815e-04
1.579389694847423698e+03 3.600131423091564942e-04
1.580290145072536234e+03 3.065106286944267234e-04
1.581190595297648770e+03 2.647012246532661492e-04
1.582091045522761306e+03 2.322899132269906901e-04
1.582991495747873842e+03 2.072730448993167736e-04
1.583891945972986377e+03 1.878509914297274441e-04
1.584792396198098913e+03 1.726258583195011481e-04
1.585692846423211449e+03 1.605435610160440836e-04
1.586593296648323985e+03 1.506648542406065889e-04
1.587493746873436749e+03 1.420644078026115449e-04
1.588394197098549284e+03 1.342344834381258782e-04
1.589294647323661820e+03 1.272973282283828254e-04
1.590195097548774356e+03 1.214617230059877293e-04
1.591095547773886892e+03 1.166754842729501542e-04
1.591995997998999428e+03 1.126049938650890446e-04
1.592896448224111964e+03 1.087652694354552900e-04
1.593796898449224500e+03 1.049750067680379432e-04
1.594697348674337036e+03 1.014292201033468516e-04
1.595597798899449572e+03 9.816740496369538694e-05
1.596498249124562108e+03 9.504337660383178335e-05
1.597398699349674871e+03 9.211279198131366191e-05
1.598299149574787407e+03 8.957555926542632352e-05
1.599199599799899943e+03 8.754449811905827647e-05
1.600100050025012479e+03 8.606034946973411561e-05
1.601000500250125015e+03 8.517529779715294150e-05
1.601900950475237551e+03 8.499699525153928744e-05
1.602801400700350086e+03 8.569423359056266060e-05
1.603701850925462622e+03 8.742658700263067958e-05
1.604602301150575158e+03 9.008929405956058042e-05
1.605502751375687694e+03 9.294971489773994490e-05
1.606403201600800230e+03 9.492050966675532513e-05
1.607303651825912766e+03 9.556607991092663020e-05
1.608204102051025529e+03 9.535260759066598957e-05
1.609104552276138065e+03 9.519630668755936921e-05
1.610005002501250601e+03 9.544431854149301774e-05
1.610905452726363137e+03 9.479142588890928397e-05
1.611805902951475673e+03 9.187739990246650301e-05
1.612706353176588209e+03 8.770053368904472981e-05
1.613606803401700745e+03 8.401943344908281556e-05
1.614507253626813281e+03 8.097960407202895502e-05
1.615407703851925817e+03 7.754793821849233909e-05
1.616308154077038353e+03 7.335694055917224760e-05
1.617208604302150889e+03 6.901695751418982167e-05
1.618109054527263652e+03 6.512856485464098364e-05
1.619009504752376188e+03 6.192452131076357162e-05
1.619909954977488724e+03 5.936462372780986868e-05
1.620810405202601260e+03 5.730647856171367752e-05
1.621710855427713796e+03 5.561317217652650597e-05
1.622611305652826331e+03 5.418265282855930183e-05
1.623511755877938867e+03 5.294460053459703290e-05
1.624412206103051403e+03 5.185139440672807042e-05
1.625312656328163939e+03 5.087065149554954456e-05
1.626213106553276475e+03 4.998018159651372485e-05
1.627113556778389011e+03 4.916479645915134252e-05
1.628014007003501774e+03 4.841437641149675373e-05
1.628914457228614310e+03 4.772279703782847957e-05
1.629814907453726846e+03 4.708750568207666185e-05
1.630715357678839382e+03 4.650968679889608650e-05
1.631615807903951918e+03 4.599507666370605282e-05
1.632516258129064454e+03 4.555555021833934188e-05
1.633416708354176990e+03 4.521137521205420074e-05
1.634317158579289526e+03 4.499253092650055041e-05
1.635217608804402062e+03 4.493146935080760950e-05
1.636118059029514598e+03 4.502334383292031178e-05
1.637018509254627133e+03 4.512283446406344686e-05
1.637918959479739897e+03 4.488994276769373617e-05
1.638819409704852433e+03 4.411127947069748428e-05
1.639719859929964969e+03 4.301848165416105444e-05
1.640620310155077505e+03 4.194285949106105844e-05
1.641520760380190040e+03 4.101657436461762953e-05
1.642421210605302576e+03 4.023799470786159211e-05
1.643321660830415112e+03 3.957165602390922500e-05
1.644222111055527648e+03 3.898515578999712752e-05
1.645122561280640184e+03 3.845538317210623046e-05
1.646023011505752720e+03 3.796688319915636267e-05
1.646923461730865256e+03 3.750940701246504140e-05
1.647823911955978019e+03 3.707606880700497023e-05
1.648724362181090555e+03 3.666214070753435794e-05
1.649624812406203091e+03 3.626429441370189065e-05
1.650525262631315627e+03 3.588012571813140283e-05
1.651425712856428163e+03 3.550785325169352017e-05
1.652326163081540699e+03 3.514612446065075495e-05
1.653226613306653235e+03 3.479388828837064526e-05
1.654127063531765771e+03 3.445031000362267708e-05
1.655027513756878307e+03 3.411471313086172100e-05
1.655927963981990843e+03 3.378653912610708428e-05
1.656828414207103378e+03 3.346531888131900679e-05
1.657728864432216142e+03 3.315065225029613149e-05
1.658629314657328678e+03 3.284219310474154258e-05
1.659529764882441214e+03 3.253963826304432662e-05
1.660430215107553749e+03 3.224271917156857069e-05
1.661330665332666285e+03 3.195119556987192840e-05
1.662231115557778821e+03 3.166485060498655941e-05
1.663131565782891357e+03 3.138348701746354228e-05
1.664032016008003893e+03 3.110692412961601491e-05
1.664932466233116429e+03 3.083499544102387050e-05
1.665832916458228965e+03 3.056754668870096205e-05
1.666733366683341501e+03 3.030443426647317750e-05
1.667633816908454037e+03 3.004552392477363978e-05
1.668534267133566800e+03 2.979068969139682906e-05
1.669434717358679336e+03 2.953981296792562383e-05
1.670335167583791872e+03 2.929278176702503043e-05
1.671235617808904408e+03 2.904949006362090176e-05
1.672136068034016944e+03 2.880983723888152375e-05
1.673036518259129480e+03 2.857372760038941903e-05
1.673936968484242016e+03 2.834106996532628959e-05
1.674837418709354552e+03 2.811177729613008197e-05
1.675737868934467087e+03 2.788576638014263391e-05
1.676638319159579623e+03 2.766295754637539912e-05
1.677538769384692159e+03 2.744327441378421840e-05
1.678439219609804923e+03 2.722664366644933671e-05
1.679339669834917459e+03 2.701299485186559952e-05
1.680240120060029994e+03 2.680226019918127792e-05
1.681140570285142530e+03 2.659437445475364899e-05
1.682041020510255066e+03 2.638927473280669231e-05
1.682941470735367602e+03 2.618690037932265322e-05
1.683841920960480138e+03 2.598719284758330074e-05
1.684742371185592674e+03 2.579009558400858200e-05
1.685642821410705210e+03 2.559555392313941064e-05
1.686543271635817746e+03 2.540351499076331170e-05
1.687443721860930282e+03 2.521392761432789717e-05
1.688344172086043045e+03 2.502674223989330386e-05
1.689244622311155581e+03 2.484191085497544049e-05
1.690145072536268117e+03 2.465938691670542019e-05
1.691045522761380653e+03 2.447912528481719938e-05
1.691945972986493189e+03 2.430108215901050100e-05
1.692846423211605725e+03 2.412521502030887027e-05
1.693746873436718261e+03 2.395148257606603346e-05
1.694647323661830796e+03 2.377984470831036613e-05
1.695547773886943332e+03 2.361026242515771106e-05
1.696448224112055868e+03 2.344269781504473122e-05
1.697348674337168404e+03 2.327711400356177295e-05
1.698249124562281168e+03 2.311347511269025922e-05
1.699149574787393703e+03 2.295174622226150464e-05
1.700050025012506239e+03 2.279189333347824212e-05
1.700950475237618775e+03 2.263388333435031519e-05
1.701850925462731311e+03 2.247768396691170097e-05
1.702751375687843847e+03 2.232326379609570177e-05
1.703651825912956383e+03 2.217059218016068127e-05
1.704552276138068919e+03 2.201963924256046973e-05
1.705452726363181455e+03 2.187037584516934413e-05
1.706353176588293991e+03 2.172277356277512854e-05
1.707253626813406527e+03 2.157680465876186420e-05
1.708154077038519290e+03 2.143244206190830306e-05
1.709054527263631826e+03 2.128965934423864684e-05
1.709954977488744362e+03 2.114843069985961171e-05
1.710855427713856898e+03 2.100873092472950720e-05
1.711755877938969434e+03 2.087053539730518670e-05
1.712656328164081970e+03 2.073382006001770123e-05
1.713556778389194506e+03 2.059856140153123501e-05
1.714457228614307041e+03 2.046473643974122970e-05
1.715357678839419577e+03 2.033232270547517004e-05
1.716258129064532113e+03 2.020129822685538993e-05
1.717158579289644649e+03 2.007164151429094974e-05
1.718059029514757185e+03 1.994333154606765760e-05
1.718959479739869948e+03 1.981634775450223857e-05
1.719859929964982484e+03 1.969067001263674120e-05
1.720760380190095020e+03 1.956627862144297666e-05
1.721660830415207556e+03 1.944315429751320896e-05
1.722561280640320092e+03 1.932127816121541219e-05
1.723461730865432628e+03 1.920063172528769073e-05
1.724362181090545164e+03 1.908119688385357307e-05
1.725262631315657700e+03 1.896295590183816237e-05
1.726163081540770236e+03 1.884589140476612945e-05
1.727063531765882772e+03 1.872998636892391297e-05
1.727963981990995308e+03 1.861522411187126316e-05
1.728864432216108071e+03 1.850158828328501217e-05
1.729764882441220607e+03 1.838906285612096624e-05
1.730665332666333143e+03 1.827763211807991329e-05
1.731565782891445679e+03 1.816728066336529434e-05
1.732466233116558215e+03 1.805799338471926086e-05
1.733366683341670750e+03 1.794975546572525268e-05
1.734267133566783286e+03 1.784255237336675932e-05
1.735167583791895822e+03 1.773636985083104671e-05
1.736068034017008358e+03 1.763119391054793883e-05
1.736968484242120894e+03 1.752701082745354767e-05
1.737868934467233430e+03 1.742380713247108074e-05
1.738769384692346193e+03 1.732156960619871770e-05
1.739669834917458729e+03 1.722028527279727828e-05
1.740570285142571265e+03 1.711994139406958736e-05
1.741470735367683801e+03 1.702052546372337171e-05
1.742371185592796337e+03 1.692202520181175252e-05
1.743271635817908873e+03 1.682442854934392706e-05
1.744172086043021409e+03 1.672772366305948704e-05
1.745072536268133945e+03 1.663189891036024779e-05
1.745972986493246481e+03 1.653694286439422149e-05
1.746873436718359017e+03 1.644284429928502257e-05
1.747773886943471553e+03 1.634959218550269039e-05
1.748674337168584316e+03 1.625717568536992191e-05
1.749574787393696852e+03 1.616558414869832399e-05
1.750475237618809388e+03 1.607480710855205264e-05
1.751375687843921924e+03 1.598483427713137182e-05
1.752276138069034459e+03 1.589565554177421744e-05
1.753176588294146995e+03 1.580726096107144002e-05
1.754077038519259531e+03 1.571964076109014566e-05
1.754977488744372067e+03 1.563278533170258069e-05
1.755877938969484603e+03 1.554668522301732439e-05
1.756778389194597139e+03 1.546133114190840883e-05
1.757678839419709675e+03 1.537671394863938099e-05
1.758579289644822438e+03 1.529282465357898672e-05
1.759479739869934974e+03 1.520965441400622173e-05
1.760380190095047510e+03 1.512719453099998936e-05
1.761280640320160046e+03 1.504543644641299574e-05
1.762181090545272582e+03 1.496437173992451392e-05
1.763081540770385118e+03 1.488399212617226760e-05
1.763981990995497654e+03 1.480428945195778148e-05
1.764882441220610190e+03 1.472525569352567581e-05
1.765782891445722726e+03 1.464688295391295138e-05
1.766683341670835262e+03 1.456916346036610479e-05
1.767583791895947797e+03 1.449208956182468849e-05
1.768484242121060333e+03 1.441565372646847948e-05
1.769384692346173097e+03 1.433984853932708125e-05
1.770285142571285633e+03 1.426466669994880945e-05
1.771185592796398169e+03 1.419010102012852940e-05
1.772086043021510704e+03 1.411614442169143165e-05
1.772986493246623240e+03 1.404278993433166819e-05
1.773886943471735776e+03 1.397003069350430428e-05
1.774787393696848312e+03 1.389785993836811258e-05
1.775687843921960848e+03 1.382627100977918418e-05
1.776588294147073384e+03 1.375525734833211072e-05
1.777488744372185920e+03 1.368481249244885783e-05
1.778389194597298456e+03 1.361493007651302257e-05
1.779289644822411219e+03 1.354560382904846191e-05
1.780190095047523755e+03 1.347682757094107069e-05
1.781090545272636291e+03 1.340859521370203376e-05
1.781990995497748827e+03 1.334090075777245225e-05
1.782891445722861363e+03 1.327373829086615244e-05
1.783791895947973899e+03 1.320710198635264220e-05
1.784692346173086435e+03 1.314098610167538207e-05
1.785592796398198971e+03 1.307538497680787114e-05
1.786493246623311506e+03 1.301029303274390912e-05
1.787393696848424042e+03 1.294570477002263413e-05
1.788294147073536578e+03 1.288161476728722330e-05
1.789194597298649342e+03 1.281801767987427120e-05
1.790095047523761878e+03 1.275490823843721054e-05
1.790995497748874413e+03 1.269228124759869968e-05
1.791895947973986949e+03 1.263013158463224636e-05
1.792796398199099485e+03 1.256845419817549179e-05
1.793696848424212021e+03 1.250724410696885152e-05
1.794597298649324557e+03 1.244649639862320452e-05
1.795497748874437093e+03 1.238620622841456866e-05
1.796398199099549629e+03 1.232636881810344180e-05
1.797298649324662165e+03 1.226697945478143431e-05
1.798199099549774701e+03 1.220803348974072913e-05
1.799099549774887464e+03 1.214952633736914419e-05
1.800000000000000000e+03 1.209145347406795807e-05
